 0.00000000E+00  0.45986E-04
 0.50000001E-01  0.45854E-04
 0.10000000E+00  0.19519E-03
 0.15000001E+00  0.29970E-03
 0.20000000E+00  0.38438E-03
 0.25000000E+00  0.46204E-03
 0.30000001E+00  0.55716E-03
 0.34999999E+00  0.63661E-03
 0.40000001E+00  0.73257E-03
 0.45000002E+00  0.80055E-03
 0.50000000E+00  0.87194E-03
 0.55000001E+00  0.89076E-03
 0.60000002E+00  0.95151E-03
 0.65000004E+00  0.97203E-03
 0.69999999E+00  0.98872E-03
 0.75000000E+00  0.10126E-02
 0.80000001E+00  0.98600E-03
 0.85000002E+00  0.97686E-03
 0.90000004E+00  0.95553E-03
 0.94999999E+00  0.91954E-03
 0.10000000E+01  0.88070E-03
 0.10500001E+01  0.84084E-03
 0.11000000E+01  0.78505E-03
 0.11500000E+01  0.72000E-03
 0.12000000E+01  0.64359E-03
 0.12500000E+01  0.58198E-03
 0.13000001E+01  0.49927E-03
 0.13500000E+01  0.42592E-03
 0.14000000E+01  0.32874E-03
 0.14500000E+01  0.24270E-03
 0.15000000E+01  0.18843E-03
 0.15500001E+01  0.11147E-03
 0.16000000E+01  0.81089E-04
 0.16500000E+01  0.42784E-04
 0.17000000E+01 -0.16153E-04
 0.17500000E+01 -0.80669E-04
 0.18000001E+01 -0.15131E-03
 0.18500000E+01 -0.22633E-03
 0.19000000E+01 -0.31322E-03
 0.19500000E+01 -0.36692E-03
 0.20000000E+01 -0.45435E-03
 0.20500000E+01 -0.52318E-03
 0.21000001E+01 -0.58219E-03
 0.21500001E+01 -0.65563E-03
 0.22000000E+01 -0.69708E-03
 0.22500000E+01 -0.77070E-03
 0.23000000E+01 -0.79916E-03
 0.23500001E+01 -0.81752E-03
 0.24000001E+01 -0.84009E-03
 0.24500000E+01 -0.81651E-03
 0.25000000E+01 -0.77824E-03
 0.25500000E+01 -0.72533E-03
 0.26000001E+01 -0.69041E-03
 0.26500001E+01 -0.62926E-03
 0.27000000E+01 -0.54879E-03
 0.27500000E+01 -0.47057E-03
 0.28000000E+01 -0.38150E-03
 0.28500001E+01 -0.28579E-03
 0.29000001E+01 -0.19115E-03
 0.29500000E+01 -0.94345E-04
 0.30000000E+01  0.16875E-05
 0.30500000E+01  0.94193E-04
 0.31000001E+01  0.20936E-03
 0.31500001E+01  0.31539E-03
 0.32000000E+01  0.41946E-03
 0.32500000E+01  0.51054E-03
 0.33000000E+01  0.57176E-03
 0.33500001E+01  0.62765E-03
 0.34000001E+01  0.68788E-03
 0.34500000E+01  0.74593E-03
 0.35000000E+01  0.81695E-03
 0.35500000E+01  0.87347E-03
 0.36000001E+01  0.91905E-03
 0.36500001E+01  0.94752E-03
 0.37000000E+01  0.93228E-03
 0.37500000E+01  0.92363E-03
 0.38000000E+01  0.92153E-03
 0.38500001E+01  0.91943E-03
 0.39000001E+01  0.91488E-03
 0.39500000E+01  0.89536E-03
 0.40000000E+01  0.86173E-03
 0.40500002E+01  0.80083E-03
 0.40999999E+01  0.73252E-03
 0.41500001E+01  0.68160E-03
 0.42000003E+01  0.66140E-03
 0.42500000E+01  0.62567E-03
 0.43000002E+01  0.59238E-03
 0.43499999E+01  0.54740E-03
 0.44000001E+01  0.49810E-03
 0.44500003E+01  0.43369E-03
 0.45000000E+01  0.35059E-03
 0.45500002E+01  0.27794E-03
 0.45999999E+01  0.21245E-03
 0.46500001E+01  0.16992E-03
 0.47000003E+01  0.11297E-03
 0.47500000E+01  0.65259E-04
 0.48000002E+01  0.57861E-05
 0.48499999E+01 -0.44565E-04
 0.49000001E+01 -0.93104E-04
 0.49500003E+01 -0.11532E-03
 0.50000000E+01 -0.14118E-03
 0.50500002E+01 -0.16873E-03
 0.50999999E+01 -0.13451E-03
 0.51500001E+01 -0.13009E-03
 0.52000003E+01 -0.11525E-03
 0.52500000E+01 -0.78400E-04
 0.53000002E+01 -0.43018E-04
 0.53499999E+01  0.20390E-04
 0.54000001E+01  0.52700E-04
 0.54500003E+01  0.11522E-03
 0.55000000E+01  0.17099E-03
 0.55500002E+01  0.20296E-03
 0.55999999E+01  0.26461E-03
 0.56500001E+01  0.31688E-03
 0.57000003E+01  0.34749E-03
 0.57500000E+01  0.37136E-03
 0.58000002E+01  0.41563E-03
 0.58499999E+01  0.42754E-03
 0.59000001E+01  0.42438E-03
 0.59500003E+01  0.40350E-03
 0.60000000E+01  0.36111E-03
 0.60500002E+01  0.32891E-03
 0.60999999E+01  0.27696E-03
 0.61500001E+01  0.21481E-03
 0.62000003E+01  0.16372E-03
 0.62500000E+01  0.99916E-04
 0.63000002E+01  0.28949E-04
 0.63499999E+01 -0.50485E-04
 0.64000001E+01 -0.11262E-03
 0.64500003E+01 -0.14201E-03
 0.65000000E+01 -0.17539E-03
 0.65500002E+01 -0.20242E-03
 0.65999999E+01 -0.23038E-03
 0.66500001E+01 -0.25483E-03
 0.67000003E+01 -0.25822E-03
 0.67500000E+01 -0.25380E-03
 0.68000002E+01 -0.24257E-03
 0.68499999E+01 -0.25193E-03
 0.69000001E+01 -0.25083E-03
 0.69500003E+01 -0.25640E-03
 0.70000000E+01 -0.26161E-03
 0.70500002E+01 -0.23794E-03
 0.70999999E+01 -0.21764E-03
 0.71500001E+01 -0.18560E-03
 0.72000003E+01 -0.16462E-03
 0.72500000E+01 -0.12815E-03
 0.73000002E+01 -0.93568E-04
 0.73499999E+01 -0.68338E-04
 0.74000001E+01 -0.20098E-04
 0.74500003E+01  0.21052E-04
 0.75000000E+01  0.42048E-04
 0.75500002E+01  0.69478E-04
 0.75999999E+01  0.78287E-04
 0.76500001E+01  0.79656E-04
 0.77000003E+01  0.78095E-04
 0.77500000E+01  0.85134E-04
 0.78000002E+01  0.98912E-04
 0.78499999E+01  0.10064E-03
 0.79000001E+01  0.11644E-03
 0.79500003E+01  0.11928E-03
 0.80000000E+01  0.13464E-03
 0.80500002E+01  0.17210E-03
 0.81000004E+01  0.22588E-03
 0.81500006E+01  0.27500E-03
 0.81999998E+01  0.32758E-03
 0.82500000E+01  0.37200E-03
 0.83000002E+01  0.42757E-03
 0.83500004E+01  0.49383E-03
 0.84000006E+01  0.54294E-03
 0.84499998E+01  0.62846E-03
 0.85000000E+01  0.69186E-03
 0.85500002E+01  0.74303E-03
 0.86000004E+01  0.81296E-03
 0.86500006E+01  0.86922E-03
 0.86999998E+01  0.93269E-03
 0.87500000E+01  0.10093E-02
 0.88000002E+01  0.10756E-02
 0.88500004E+01  0.11259E-02
 0.89000006E+01  0.11631E-02
 0.89499998E+01  0.12000E-02
 0.90000000E+01  0.12262E-02
 0.90500002E+01  0.12162E-02
 0.91000004E+01  0.12021E-02
 0.91500006E+01  0.11756E-02
 0.91999998E+01  0.11183E-02
 0.92500000E+01  0.10371E-02
 0.93000002E+01  0.95218E-03
 0.93500004E+01  0.85819E-03
 0.94000006E+01  0.74088E-03
 0.94499998E+01  0.65522E-03
 0.95000000E+01  0.52634E-03
 0.95500002E+01  0.38669E-03
 0.96000004E+01  0.23401E-03
 0.96500006E+01  0.64877E-04
 0.96999998E+01 -0.97385E-04
 0.97500000E+01 -0.27185E-03
 0.98000002E+01 -0.43265E-03
 0.98500004E+01 -0.58458E-03
 0.99000006E+01 -0.72808E-03
 0.99499998E+01 -0.88666E-03
 0.10000000E+02 -0.10274E-02
 0.10050000E+02 -0.11696E-02
 0.10100000E+02 -0.12970E-02
 0.10150001E+02 -0.13833E-02
 0.10200000E+02 -0.14527E-02
 0.10250000E+02 -0.15157E-02
 0.10300000E+02 -0.15625E-02
 0.10350000E+02 -0.15926E-02
 0.10400001E+02 -0.16066E-02
 0.10450000E+02 -0.15847E-02
 0.10500000E+02 -0.15364E-02
 0.10550000E+02 -0.14983E-02
 0.10600000E+02 -0.14300E-02
 0.10650001E+02 -0.13550E-02
 0.10700000E+02 -0.12764E-02
 0.10750000E+02 -0.11832E-02
 0.10800000E+02 -0.10721E-02
 0.10850000E+02 -0.95156E-03
 0.10900001E+02 -0.83232E-03
 0.10950000E+02 -0.70676E-03
 0.11000000E+02 -0.57322E-03
 0.11050000E+02 -0.42250E-03
 0.11100000E+02 -0.28064E-03
 0.11150001E+02 -0.13788E-03
 0.11200000E+02 -0.42620E-05
 0.11250000E+02  0.13905E-03
 0.11300000E+02  0.29843E-03
 0.11350000E+02  0.45494E-03
 0.11400001E+02  0.61763E-03
 0.11450000E+02  0.77271E-03
 0.11500000E+02  0.91511E-03
 0.11550000E+02  0.10499E-02
 0.11600000E+02  0.11814E-02
 0.11650001E+02  0.13154E-02
 0.11700000E+02  0.14236E-02
 0.11750000E+02  0.15188E-02
 0.11800000E+02  0.15860E-02
 0.11850000E+02  0.16454E-02
 0.11900001E+02  0.16963E-02
 0.11950000E+02  0.17312E-02
 0.12000000E+02  0.17593E-02
 0.12050000E+02  0.17621E-02
 0.12100000E+02  0.17546E-02
 0.12150001E+02  0.17311E-02
 0.12200000E+02  0.17122E-02
 0.12250000E+02  0.16719E-02
 0.12300000E+02  0.16129E-02
 0.12350000E+02  0.15367E-02
 0.12400001E+02  0.14467E-02
 0.12450000E+02  0.13481E-02
 0.12500000E+02  0.12454E-02
 0.12550000E+02  0.11343E-02
 0.12600000E+02  0.99921E-03
 0.12650001E+02  0.86304E-03
 0.12700000E+02  0.71084E-03
 0.12750000E+02  0.55681E-03
 0.12800000E+02  0.38357E-03
 0.12850000E+02  0.20085E-03
 0.12900001E+02  0.36563E-04
 0.12950000E+02 -0.13183E-03
 0.13000000E+02 -0.27754E-03
 0.13050000E+02 -0.41910E-03
 0.13100000E+02 -0.55683E-03
 0.13150001E+02 -0.68515E-03
 0.13200000E+02 -0.80266E-03
 0.13250000E+02 -0.89594E-03
 0.13300000E+02 -0.98713E-03
 0.13350000E+02 -0.10665E-02
 0.13400001E+02 -0.11301E-02
 0.13450000E+02 -0.11801E-02
 0.13500000E+02 -0.12129E-02
 0.13550000E+02 -0.12403E-02
 0.13600000E+02 -0.12521E-02
 0.13650001E+02 -0.12260E-02
 0.13700000E+02 -0.11857E-02
 0.13750000E+02 -0.11294E-02
 0.13800000E+02 -0.10512E-02
 0.13850000E+02 -0.97165E-03
 0.13900001E+02 -0.86867E-03
 0.13950000E+02 -0.76076E-03
 0.14000000E+02 -0.65543E-03
 0.14050000E+02 -0.55131E-03
 0.14100000E+02 -0.43392E-03
 0.14150001E+02 -0.32160E-03
 0.14200000E+02 -0.22770E-03
 0.14250000E+02 -0.13934E-03
 0.14300000E+02 -0.52016E-04
 0.14350000E+02  0.91107E-05
 0.14400001E+02  0.46626E-04
 0.14450000E+02  0.99061E-04
 0.14500000E+02  0.14263E-03
 0.14550000E+02  0.17353E-03
 0.14600000E+02  0.19377E-03
 0.14650001E+02  0.20851E-03
 0.14700000E+02  0.20349E-03
 0.14750000E+02  0.19478E-03
 0.14800000E+02  0.19008E-03
 0.14850000E+02  0.19353E-03
 0.14900001E+02  0.18827E-03
 0.14950000E+02  0.19602E-03
 0.15000000E+02  0.19432E-03
 0.15050000E+02  0.19600E-03
 0.15100000E+02  0.22267E-03
 0.15150001E+02  0.27032E-03
 0.15200000E+02  0.35134E-03
 0.15250000E+02  0.41608E-03
 0.15300000E+02  0.47870E-03
 0.15350000E+02  0.52548E-03
 0.15400001E+02  0.56778E-03
 0.15450000E+02  0.62084E-03
 0.15500000E+02  0.66597E-03
 0.15550000E+02  0.71645E-03
 0.15600000E+02  0.73172E-03
 0.15650001E+02  0.73942E-03
 0.15700000E+02  0.74381E-03
 0.15750000E+02  0.73783E-03
 0.15800000E+02  0.73711E-03
 0.15850000E+02  0.71972E-03
 0.15900001E+02  0.69698E-03
 0.15950000E+02  0.65684E-03
 0.16000000E+02  0.60565E-03
 0.16050001E+02  0.55187E-03
 0.16100000E+02  0.49842E-03
 0.16150000E+02  0.46409E-03
 0.16200001E+02  0.43778E-03
 0.16250000E+02  0.39751E-03
 0.16300001E+02  0.34863E-03
 0.16350000E+02  0.28092E-03
 0.16400000E+02  0.24682E-03
 0.16450001E+02  0.20863E-03
 0.16500000E+02  0.17415E-03
 0.16550001E+02  0.14645E-03
 0.16600000E+02  0.11909E-03
 0.16650000E+02  0.11037E-03
 0.16700001E+02  0.84181E-04
 0.16750000E+02  0.80192E-04
 0.16800001E+02  0.63204E-04
 0.16850000E+02  0.84156E-04
 0.16900000E+02  0.92534E-04
 0.16950001E+02  0.74530E-04
 0.17000000E+02  0.74224E-04
 0.17050001E+02  0.52544E-04
 0.17100000E+02  0.46389E-04
 0.17150000E+02  0.63113E-04
 0.17200001E+02  0.59268E-04
 0.17250000E+02  0.27840E-04
 0.17300001E+02 -0.65943E-05
 0.17350000E+02 -0.57496E-04
 0.17400000E+02 -0.97057E-04
 0.17450001E+02 -0.12629E-03
 0.17500000E+02 -0.17105E-03
 0.17550001E+02 -0.20221E-03
 0.17600000E+02 -0.23826E-03
 0.17650000E+02 -0.26375E-03
 0.17700001E+02 -0.28793E-03
 0.17750000E+02 -0.30499E-03
 0.17800001E+02 -0.30538E-03
 0.17850000E+02 -0.31744E-03
 0.17900000E+02 -0.28651E-03
 0.17950001E+02 -0.28219E-03
 0.18000000E+02 -0.27750E-03
 0.18050001E+02 -0.31524E-03
 0.18100000E+02 -0.39549E-03
 0.18150000E+02 -0.41481E-03
 0.18200001E+02 -0.61380E-03
 0.18250000E+02 -0.11123E-02
 0.18300001E+02 -0.12065E-02
 0.18350000E+02 -0.87213E-03
 0.18400000E+02  0.38979E-04
 0.18450001E+02  0.68586E-03
 0.18500000E+02 -0.46258E-04
 0.18550001E+02 -0.10454E-03
 0.18600000E+02 -0.32793E-03
 0.18650000E+02  0.34634E-03
 0.18700001E+02 -0.25291E-03
 0.18750000E+02  0.29438E-03
 0.18800001E+02  0.80016E-03
 0.18850000E+02  0.28550E-02
 0.18900000E+02  0.63159E-02
 0.18950001E+02  0.14301E-01
 0.19000000E+02  0.26467E-01
 0.19050001E+02  0.47121E-01
 0.19100000E+02  0.74203E-01
 0.19150000E+02  0.10076E+00
 0.19200001E+02  0.12125E+00
 0.19250000E+02  0.14992E+00
 0.19300001E+02  0.13202E+00
 0.19350000E+02  0.12160E-01
 0.19400000E+02 -0.88669E-01
 0.19450001E+02 -0.12031E+00
 0.19500000E+02  0.32617E-02
 0.19550001E+02  0.13983E+00
 0.19600000E+02  0.67751E-01
 0.19650000E+02  0.37879E-02
 0.19700001E+02 -0.34501E-02
 0.19750000E+02  0.15564E-01
 0.19800001E+02 -0.43023E-01
 0.19850000E+02 -0.12441E+00
 0.19900000E+02 -0.92787E-01
 0.19950001E+02 -0.10716E+00
 0.20000000E+02 -0.16621E-01
 0.20050001E+02  0.50357E-02
 0.20100000E+02 -0.11835E+00
 0.20150000E+02 -0.18134E+00
 0.20200001E+02 -0.10047E+00
 0.20250000E+02  0.57185E-01
 0.20300001E+02  0.10970E+00
 0.20350000E+02  0.73114E-01
 0.20400000E+02 -0.10273E+00
 0.20450001E+02 -0.15902E+00
 0.20500000E+02 -0.64166E-01
 0.20550001E+02  0.13569E+00
 0.20600000E+02  0.28986E+00
 0.20650000E+02  0.20197E+00
 0.20700001E+02 -0.15887E-01
 0.20750000E+02 -0.52184E-01
 0.20800001E+02  0.10021E+00
 0.20850000E+02  0.59508E-01
 0.20900000E+02  0.32877E-01
 0.20950001E+02 -0.85815E-01
 0.21000000E+02 -0.14325E+00
 0.21050001E+02 -0.50813E-01
 0.21100000E+02  0.43173E-01
 0.21150000E+02 -0.64846E-01
 0.21200001E+02 -0.25264E+00
 0.21250000E+02 -0.22640E+00
 0.21300001E+02 -0.13760E+00
 0.21350000E+02  0.20041E-03
 0.21400000E+02 -0.74775E-01
 0.21450001E+02 -0.11170E+00
 0.21500000E+02 -0.44103E-01
 0.21550001E+02  0.12233E-01
 0.21600000E+02  0.68911E-01
 0.21650000E+02  0.78987E-01
 0.21700001E+02  0.10446E+00
 0.21750000E+02  0.10464E+00
 0.21800001E+02  0.65759E-01
 0.21850000E+02  0.56650E-01
 0.21900000E+02  0.60392E-01
 0.21950001E+02  0.10830E-01
 0.22000000E+02  0.29087E-02
 0.22050001E+02  0.34003E-01
 0.22100000E+02  0.27171E-01
 0.22150000E+02 -0.51747E-02
 0.22200001E+02 -0.50861E-01
 0.22250000E+02 -0.40298E-01
 0.22300001E+02  0.19786E-01
 0.22350000E+02 -0.30211E-01
 0.22400000E+02 -0.28613E-01
 0.22450001E+02 -0.81716E-01
 0.22500000E+02 -0.12333E+00
 0.22550001E+02  0.62727E-02
 0.22600000E+02  0.36086E-01
 0.22650000E+02  0.68246E-01
 0.22700001E+02  0.81869E-01
 0.22750000E+02  0.60874E-01
 0.22800001E+02  0.15012E-01
 0.22850000E+02 -0.39538E-01
 0.22900000E+02 -0.16637E-01
 0.22950001E+02 -0.46890E-01
 0.23000000E+02 -0.10793E+00
 0.23050001E+02 -0.66669E-01
 0.23100000E+02 -0.44435E-01
 0.23150000E+02 -0.36343E-01
 0.23200001E+02  0.58078E-01
 0.23250000E+02  0.93784E-01
 0.23300001E+02 -0.25725E-01
 0.23350000E+02 -0.73985E-01
 0.23400000E+02 -0.36564E-01
 0.23450001E+02  0.19238E-01
 0.23500000E+02  0.34402E-01
 0.23550001E+02  0.17133E-01
 0.23600000E+02  0.59668E-01
 0.23650000E+02 -0.48668E-02
 0.23700001E+02 -0.51347E-01
 0.23750000E+02  0.21498E-01
 0.23800001E+02  0.13593E+00
 0.23850000E+02  0.12415E+00
 0.23900000E+02  0.60497E-01
 0.23950001E+02  0.82085E-01
 0.24000000E+02 -0.12808E-01
 0.24050001E+02 -0.71464E-01
 0.24100000E+02 -0.43188E-01
 0.24150000E+02 -0.87382E-01
 0.24200001E+02 -0.67144E-01
 0.24250000E+02 -0.28699E-02
 0.24300001E+02  0.17653E-01
 0.24350000E+02 -0.24669E-01
 0.24400000E+02 -0.10205E+00
 0.24450001E+02 -0.69992E-01
 0.24500000E+02 -0.16264E-01
 0.24550001E+02 -0.72186E-01
 0.24600000E+02 -0.86344E-01
 0.24650000E+02 -0.19401E-01
 0.24700001E+02  0.10347E+00
 0.24750000E+02  0.15955E+00
 0.24800001E+02  0.69033E-01
 0.24850000E+02  0.36197E-02
 0.24900000E+02  0.55914E-02
 0.24950001E+02  0.23502E-01
 0.25000000E+02  0.23883E-01
 0.25050001E+02  0.65255E-01
 0.25100000E+02  0.57540E-01
 0.25150000E+02 -0.37034E-02
 0.25200001E+02 -0.26772E-01
 0.25250000E+02 -0.22956E-01
 0.25300001E+02  0.11567E-01
 0.25350000E+02  0.10229E+00
 0.25400000E+02  0.21766E+00
 0.25450001E+02  0.15593E+00
 0.25500000E+02 -0.41316E-01
 0.25550001E+02 -0.11792E+00
 0.25600000E+02 -0.68446E-01
 0.25650000E+02 -0.66998E-01
 0.25700001E+02 -0.20330E-02
 0.25750000E+02  0.55304E-01
 0.25800001E+02  0.69661E-01
 0.25850000E+02  0.90334E-01
 0.25900000E+02  0.19189E-02
 0.25950001E+02 -0.21629E-01
 0.26000000E+02 -0.32976E-01
 0.26050001E+02 -0.70828E-01
 0.26100000E+02 -0.30397E-01
 0.26150000E+02 -0.14482E-01
 0.26200001E+02 -0.70760E-02
 0.26250000E+02 -0.39322E-01
 0.26300001E+02 -0.38756E-01
 0.26350000E+02 -0.46337E-02
 0.26400000E+02 -0.26705E-01
 0.26450001E+02  0.26750E-02
 0.26500000E+02  0.89374E-05
 0.26550001E+02 -0.22597E-01
 0.26600000E+02 -0.12682E-01
 0.26650000E+02 -0.17947E-01
 0.26700001E+02 -0.26731E-01
 0.26750000E+02  0.11389E-01
 0.26800001E+02  0.75779E-01
 0.26850000E+02  0.11729E+00
 0.26900000E+02  0.81916E-01
 0.26950001E+02  0.28653E-01
 0.27000000E+02 -0.57442E-02
 0.27050001E+02 -0.81566E-01
 0.27100000E+02 -0.59081E-01
 0.27150000E+02 -0.39381E-02
 0.27200001E+02 -0.15800E-01
 0.27250000E+02 -0.24622E-01
 0.27300001E+02  0.65895E-02
 0.27350000E+02  0.25877E-02
 0.27400000E+02 -0.70201E-01
 0.27450001E+02 -0.64541E-01
 0.27500000E+02 -0.79990E-01
 0.27550001E+02 -0.10677E+00
 0.27600000E+02 -0.44426E-01
 0.27650000E+02  0.25819E-01
 0.27700001E+02  0.10164E+00
 0.27750000E+02  0.41662E-01
 0.27800001E+02 -0.97266E-02
 0.27850000E+02 -0.35098E-01
 0.27900000E+02 -0.93264E-01
 0.27950001E+02 -0.48777E-01
 0.28000000E+02 -0.15899E-01
 0.28050001E+02  0.57698E-01
 0.28100000E+02  0.10557E+00
 0.28150000E+02  0.68563E-01
 0.28200001E+02  0.12819E-02
 0.28250000E+02 -0.28205E-01
 0.28300001E+02  0.34056E-01
 0.28350000E+02 -0.92156E-03
 0.28400000E+02  0.10071E-02
 0.28450001E+02  0.68680E-01
 0.28500000E+02  0.96723E-01
 0.28550001E+02  0.75548E-01
 0.28600000E+02 -0.16724E-01
 0.28650000E+02 -0.47700E-01
 0.28700001E+02 -0.53286E-01
 0.28750000E+02 -0.52469E-01
 0.28800001E+02 -0.64283E-01
 0.28850000E+02 -0.45299E-01
 0.28900000E+02  0.34372E-01
 0.28950001E+02  0.39870E-01
 0.29000000E+02  0.11916E-01
 0.29050001E+02  0.76364E-01
 0.29100000E+02  0.68556E-01
 0.29150000E+02  0.12455E-01
 0.29200001E+02  0.29895E-01
 0.29250000E+02  0.72259E-02
 0.29300001E+02 -0.65943E-01
 0.29350000E+02 -0.56565E-01
 0.29400000E+02 -0.28435E-01
 0.29450001E+02 -0.27894E-01
 0.29500000E+02  0.15616E-01
 0.29550001E+02  0.43733E-02
 0.29600000E+02 -0.82710E-02
 0.29650000E+02 -0.59737E-01
 0.29700001E+02 -0.70894E-01
 0.29750000E+02 -0.30979E-02
 0.29800001E+02  0.90140E-02
 0.29850000E+02 -0.36228E-01
 0.29900000E+02 -0.75321E-01
 0.29950001E+02 -0.32376E-01
 0.30000000E+02  0.20474E-01
 0.30050001E+02  0.29687E-01
 0.30100000E+02 -0.42412E-02
 0.30150000E+02 -0.30736E-01
 0.30200001E+02 -0.42343E-01
 0.30250000E+02 -0.42832E-01
 0.30300001E+02 -0.32088E-02
 0.30350000E+02  0.40593E-01
 0.30400000E+02  0.77293E-01
 0.30450001E+02  0.71717E-01
 0.30500000E+02  0.38088E-01
 0.30550001E+02  0.20699E-01
 0.30600000E+02  0.76295E-02
 0.30650000E+02 -0.27329E-02
 0.30700001E+02 -0.23417E-01
 0.30750000E+02 -0.13229E+00
 0.30800001E+02 -0.21733E+00
 0.30850000E+02 -0.14296E+00
 0.30900000E+02 -0.12257E-01
 0.30950001E+02  0.72386E-01
 0.31000000E+02 -0.70635E-02
 0.31050001E+02 -0.55228E-01
 0.31100000E+02 -0.26360E-02
 0.31150000E+02  0.22062E-01
 0.31200001E+02  0.55623E-01
 0.31250000E+02  0.10001E+00
 0.31300001E+02  0.12462E+00
 0.31350000E+02  0.50032E-01
 0.31400000E+02  0.12746E-02
 0.31450001E+02  0.11812E-01
 0.31500000E+02 -0.34198E-01
 0.31550001E+02 -0.71630E-01
 0.31600000E+02 -0.28849E-01
 0.31650000E+02  0.26985E-01
 0.31700001E+02  0.33788E-01
 0.31750000E+02 -0.24128E-01
 0.31800001E+02 -0.90832E-01
 0.31850000E+02 -0.12045E+00
 0.31900000E+02 -0.10274E+00
 0.31950001E+02 -0.46299E-01
 0.32000000E+02  0.35851E-01
 0.32049999E+02  0.48206E-01
 0.32100002E+02 -0.14592E-01
 0.32150002E+02 -0.52116E-01
 0.32200001E+02 -0.54249E-01
 0.32250000E+02  0.51225E-01
 0.32299999E+02  0.14973E+00
 0.32350002E+02  0.17013E+00
 0.32400002E+02  0.11038E+00
 0.32450001E+02 -0.97404E-01
 0.32500000E+02 -0.19392E+00
 0.32549999E+02 -0.17178E+00
 0.32600002E+02 -0.72133E-01
 0.32650002E+02  0.39489E-01
 0.32700001E+02  0.11308E+00
 0.32750000E+02  0.32445E+00
 0.32799999E+02  0.35849E+00
 0.32850002E+02  0.22802E+00
 0.32900002E+02  0.85361E-01
 0.32950001E+02 -0.82452E-01
 0.33000000E+02 -0.12372E+00
 0.33049999E+02 -0.60584E-01
 0.33100002E+02 -0.20322E-01
 0.33150002E+02 -0.94634E-01
 0.33200001E+02 -0.11404E+00
 0.33250000E+02 -0.56095E-01
 0.33299999E+02 -0.10897E+00
 0.33350002E+02 -0.11066E+00
 0.33400002E+02  0.25432E-01
 0.33450001E+02  0.16770E+00
 0.33500000E+02  0.29717E+00
 0.33549999E+02  0.28520E+00
 0.33600002E+02  0.15836E+00
 0.33650002E+02 -0.12816E-01
 0.33700001E+02 -0.19737E+00
 0.33750000E+02 -0.20882E+00
 0.33799999E+02 -0.18165E+00
 0.33850002E+02 -0.25319E+00
 0.33900002E+02 -0.20903E+00
 0.33950001E+02 -0.46009E-01
 0.34000000E+02 -0.21699E-01
 0.34049999E+02 -0.12093E+00
 0.34100002E+02 -0.22161E+00
 0.34150002E+02 -0.39037E+00
 0.34200001E+02 -0.52083E+00
 0.34250000E+02 -0.41093E+00
 0.34299999E+02 -0.17442E+00
 0.34350002E+02  0.91922E-01
 0.34400002E+02  0.32585E+00
 0.34450001E+02  0.34967E+00
 0.34500000E+02  0.15444E+00
 0.34549999E+02  0.18988E-01
 0.34600002E+02  0.30822E-01
 0.34650002E+02  0.10077E+00
 0.34700001E+02  0.28074E+00
 0.34750000E+02  0.38465E+00
 0.34799999E+02  0.19515E+00
 0.34850002E+02  0.14769E+00
 0.34900002E+02  0.36371E+00
 0.34950001E+02  0.53471E+00
 0.35000000E+02  0.52220E+00
 0.35049999E+02  0.28968E+00
 0.35100002E+02  0.26874E+00
 0.35150002E+02  0.19948E+00
 0.35200001E+02 -0.18780E+00
 0.35250000E+02 -0.62823E+00
 0.35299999E+02 -0.10000E+01
 0.35350002E+02 -0.91466E+00
 0.35400002E+02 -0.52193E+00
 0.35450001E+02 -0.31564E+00
 0.35500000E+02 -0.32648E+00
 0.35549999E+02 -0.22806E+00
 0.35600002E+02  0.79073E-01
 0.35650002E+02  0.18659E+00
 0.35700001E+02  0.14820E+00
 0.35750000E+02  0.21822E+00
 0.35799999E+02  0.28353E+00
 0.35850002E+02  0.22503E+00
 0.35900002E+02  0.26756E+00
 0.35950001E+02  0.28399E+00
 0.36000000E+02  0.15095E+00
 0.36049999E+02  0.16144E+00
 0.36100002E+02  0.15350E+00
 0.36150002E+02  0.15708E+00
 0.36200001E+02  0.18440E+00
 0.36250000E+02  0.14532E+00
 0.36299999E+02  0.11184E+00
 0.36350002E+02  0.10730E+00
 0.36400002E+02  0.30873E-01
 0.36450001E+02 -0.74294E-01
 0.36500000E+02 -0.18652E-01
 0.36549999E+02  0.67009E-01
 0.36600002E+02  0.48805E-01
 0.36650002E+02 -0.55150E-01
 0.36700001E+02 -0.23866E+00
 0.36750000E+02 -0.29103E+00
 0.36799999E+02 -0.21520E+00
 0.36850002E+02 -0.17747E+00
 0.36900002E+02 -0.25259E+00
 0.36950001E+02 -0.27792E+00
 0.37000000E+02 -0.14454E+00
 0.37049999E+02 -0.92646E-01
 0.37100002E+02 -0.54346E-01
 0.37150002E+02 -0.12974E-01
 0.37200001E+02  0.14313E+00
 0.37250000E+02  0.36798E+00
 0.37299999E+02  0.43147E+00
 0.37350002E+02  0.32097E+00
 0.37400002E+02  0.17635E+00
 0.37450001E+02  0.13973E+00
 0.37500000E+02  0.17473E+00
 0.37549999E+02  0.33538E+00
 0.37600002E+02  0.58005E+00
 0.37650002E+02  0.66670E+00
 0.37700001E+02  0.44564E+00
 0.37750000E+02  0.22773E+00
 0.37799999E+02  0.13146E+00
 0.37850002E+02 -0.21932E+00
 0.37900002E+02 -0.63935E+00
 0.37950001E+02 -0.88246E+00
 0.38000000E+02 -0.94739E+00
 0.38049999E+02 -0.81224E+00
 0.38100002E+02 -0.67807E+00
 0.38150002E+02 -0.38405E+00
 0.38200001E+02  0.52930E-02
 0.38250000E+02  0.21749E+00
 0.38299999E+02  0.28978E+00
 0.38350002E+02  0.36959E+00
 0.38400002E+02  0.42778E+00
 0.38450001E+02  0.32634E+00
 0.38500000E+02  0.27633E+00
 0.38549999E+02  0.34791E+00
 0.38600002E+02  0.37119E+00
 0.38650002E+02  0.31995E+00
 0.38700001E+02  0.35087E+00
 0.38750000E+02  0.34235E+00
 0.38799999E+02  0.23316E+00
 0.38850002E+02  0.85229E-01
 0.38900002E+02 -0.11207E+00
 0.38950001E+02 -0.23429E+00
 0.39000000E+02 -0.34980E+00
 0.39049999E+02 -0.47388E+00
 0.39100002E+02 -0.59713E+00
 0.39150002E+02 -0.61671E+00
 0.39200001E+02 -0.58423E+00
 0.39250000E+02 -0.47586E+00
 0.39299999E+02 -0.27110E+00
 0.39350002E+02 -0.91508E-01
 0.39400002E+02  0.20981E-01
 0.39450001E+02  0.12235E+00
 0.39500000E+02  0.18194E+00
 0.39549999E+02  0.15499E+00
 0.39600002E+02  0.22950E+00
 0.39650002E+02  0.29592E+00
 0.39700001E+02  0.23546E+00
 0.39750000E+02  0.35925E-01
 0.39799999E+02 -0.11147E+00
 0.39850002E+02 -0.15305E+00
 0.39900002E+02 -0.11993E+00
 0.39950001E+02 -0.10888E+00
 0.40000000E+02 -0.14540E+00
 0.40049999E+02 -0.36864E-01
 0.40100002E+02 -0.13891E-01
 0.40150002E+02 -0.11930E+00
 0.40200001E+02 -0.21803E+00
 0.40250000E+02 -0.19258E+00
 0.40299999E+02 -0.15785E+00
 0.40350002E+02 -0.23753E+00
 0.40400002E+02 -0.24054E+00
 0.40450001E+02 -0.12231E+00
 0.40500000E+02  0.58563E-01
 0.40549999E+02  0.18311E+00
 0.40600002E+02  0.19899E+00
 0.40650002E+02  0.20554E+00
 0.40700001E+02  0.17670E+00
 0.40750000E+02  0.65118E-01
 0.40799999E+02  0.74392E-02
 0.40850002E+02 -0.30158E-01
 0.40900002E+02 -0.67573E-01
 0.40950001E+02 -0.14995E+00
 0.41000000E+02 -0.19483E+00
 0.41049999E+02 -0.17072E+00
 0.41100002E+02 -0.13662E+00
 0.41150002E+02 -0.12288E+00
 0.41200001E+02 -0.17761E+00
 0.41250000E+02 -0.21712E+00
 0.41299999E+02 -0.21359E+00
 0.41350002E+02 -0.12236E+00
 0.41400002E+02 -0.10269E-01
 0.41450001E+02  0.65400E-01
 0.41500000E+02  0.15960E+00
 0.41549999E+02  0.24659E+00
 0.41600002E+02  0.28761E+00
 0.41650002E+02  0.23780E+00
 0.41700001E+02  0.16006E+00
 0.41750000E+02  0.17501E+00
 0.41799999E+02  0.18966E+00
 0.41850002E+02  0.19754E+00
 0.41900002E+02  0.15342E+00
 0.41950001E+02  0.40138E-01
 0.42000000E+02 -0.36507E-01
 0.42049999E+02 -0.46426E-01
 0.42100002E+02  0.30220E-01
 0.42150002E+02  0.17424E+00
 0.42200001E+02  0.27435E+00
 0.42250000E+02  0.19919E+00
 0.42299999E+02  0.68509E-01
 0.42350002E+02 -0.13734E-01
 0.42400002E+02 -0.18022E-01
 0.42450001E+02  0.51710E-01
 0.42500000E+02  0.14855E+00
 0.42549999E+02  0.22199E+00
 0.42600002E+02  0.21133E+00
 0.42650002E+02  0.19451E+00
 0.42700001E+02  0.17357E+00
 0.42750000E+02  0.15940E+00
 0.42799999E+02  0.17720E+00
 0.42850002E+02  0.19046E+00
 0.42900002E+02  0.20147E+00
 0.42950001E+02  0.18194E+00
 0.43000000E+02  0.14252E+00
 0.43049999E+02  0.65837E-01
 0.43100002E+02 -0.32227E-01
 0.43150002E+02 -0.98305E-01
 0.43200001E+02 -0.14265E+00
 0.43250000E+02 -0.17207E+00
 0.43299999E+02 -0.17762E+00
 0.43350002E+02 -0.16450E+00
 0.43400002E+02 -0.72182E-01
 0.43450001E+02  0.23669E-01
 0.43500000E+02  0.36870E-01
 0.43549999E+02  0.75902E-01
 0.43600002E+02  0.18588E+00
 0.43650002E+02  0.27981E+00
 0.43700001E+02  0.28590E+00
 0.43750000E+02  0.21462E+00
 0.43799999E+02  0.13767E+00
 0.43850002E+02  0.96828E-01
 0.43900002E+02  0.71823E-01
 0.43950001E+02  0.65281E-01
 0.44000000E+02  0.73978E-01
 0.44049999E+02  0.11695E+00
 0.44100002E+02  0.12353E+00
 0.44150002E+02  0.70094E-01
 0.44200001E+02  0.10208E-03
 0.44250000E+02 -0.53309E-01
 0.44299999E+02 -0.77541E-01
 0.44350002E+02 -0.82937E-01
 0.44400002E+02 -0.72708E-01
 0.44450001E+02 -0.60609E-01
 0.44500000E+02 -0.56584E-01
 0.44549999E+02 -0.26987E-01
 0.44600002E+02  0.76976E-02
 0.44650002E+02  0.19641E-01
 0.44700001E+02  0.82270E-02
 0.44750000E+02 -0.56960E-01
 0.44799999E+02 -0.10062E+00
 0.44850002E+02 -0.66298E-01
 0.44900002E+02  0.44041E-01
 0.44950001E+02  0.13957E+00
 0.45000000E+02  0.14151E+00
 0.45049999E+02  0.61146E-01
 0.45100002E+02 -0.13104E-01
 0.45150002E+02 -0.35452E-01
 0.45200001E+02 -0.32203E-01
 0.45250000E+02 -0.15227E-01
 0.45299999E+02 -0.31066E-01
 0.45350002E+02 -0.21042E-01
 0.45400002E+02  0.27580E-01
 0.45450001E+02  0.78072E-01
 0.45500000E+02  0.87071E-01
 0.45549999E+02  0.48104E-01
 0.45600002E+02 -0.41418E-01
 0.45650002E+02 -0.20184E+00
 0.45700001E+02 -0.31120E+00
 0.45750000E+02 -0.30762E+00
 0.45799999E+02 -0.29792E+00
 0.45850002E+02 -0.28935E+00
 0.45900002E+02 -0.20679E+00
 0.45950001E+02 -0.10431E+00
 0.46000000E+02 -0.13976E-01
 0.46049999E+02  0.27928E-01
 0.46100002E+02  0.47350E-01
 0.46150002E+02  0.71606E-01
 0.46200001E+02  0.78043E-01
 0.46250000E+02  0.70835E-01
 0.46299999E+02  0.42095E-01
 0.46350002E+02  0.20302E-01
 0.46400002E+02  0.37172E-01
 0.46450001E+02  0.33752E-01
 0.46500000E+02 -0.72059E-02
 0.46549999E+02 -0.36095E-01
 0.46600002E+02 -0.43582E-01
 0.46650002E+02 -0.34075E-01
 0.46700001E+02 -0.17102E-01
 0.46750000E+02 -0.72292E-02
 0.46799999E+02 -0.28332E-02
 0.46850002E+02 -0.13655E-01
 0.46900002E+02 -0.49859E-01
 0.46950001E+02 -0.93629E-01
 0.47000000E+02 -0.14236E+00
 0.47049999E+02 -0.17283E+00
 0.47100002E+02 -0.17515E+00
 0.47150002E+02 -0.16444E+00
 0.47200001E+02 -0.14961E+00
 0.47250000E+02 -0.13264E+00
 0.47299999E+02 -0.79954E-01
 0.47350002E+02 -0.23738E-02
 0.47400002E+02  0.27451E-01
 0.47450001E+02  0.20905E-01
 0.47500000E+02  0.81320E-02
 0.47549999E+02 -0.12527E-01
 0.47600002E+02 -0.39969E-01
 0.47650002E+02 -0.39969E-01
 0.47700001E+02 -0.35758E-01
 0.47750000E+02 -0.38479E-01
 0.47799999E+02 -0.91282E-02
 0.47850002E+02  0.46410E-01
 0.47900002E+02  0.79895E-01
 0.47950001E+02  0.49553E-01
 0.48000000E+02 -0.18151E-01
 0.48049999E+02 -0.83115E-01
 0.48100002E+02 -0.11951E+00
 0.48150002E+02 -0.12496E+00
 0.48200001E+02 -0.98789E-01
 0.48250000E+02 -0.87836E-01
 0.48299999E+02 -0.78729E-01
 0.48350002E+02 -0.31782E-01
 0.48400002E+02  0.16733E-01
 0.48450001E+02  0.19881E-01
 0.48500000E+02 -0.52213E-02
 0.48549999E+02 -0.76162E-02
 0.48600002E+02  0.28994E-01
 0.48650002E+02  0.85956E-01
 0.48700001E+02  0.12769E+00
 0.48750000E+02  0.10681E+00
 0.48799999E+02  0.28746E-01
 0.48850002E+02 -0.48731E-01
 0.48900002E+02 -0.78636E-01
 0.48950001E+02 -0.68220E-01
 0.49000000E+02 -0.10709E-01
 0.49049999E+02  0.60427E-01
 0.49100002E+02  0.90113E-01
 0.49150002E+02  0.93002E-01
 0.49200001E+02  0.50471E-01
 0.49250000E+02 -0.37587E-02
 0.49299999E+02 -0.35619E-01
 0.49350002E+02 -0.32032E-01
 0.49400002E+02 -0.41322E-01
 0.49450001E+02 -0.81949E-01
 0.49500000E+02 -0.10685E+00
 0.49549999E+02 -0.14523E+00
 0.49600002E+02 -0.18467E+00
 0.49650002E+02 -0.17869E+00
 0.49700001E+02 -0.15227E+00
 0.49750000E+02 -0.11892E+00
 0.49799999E+02 -0.82812E-01
 0.49850002E+02 -0.26510E-01
 0.49900002E+02  0.32460E-01
 0.49950001E+02  0.72027E-01
 0.50000000E+02  0.99528E-01
 0.50049999E+02  0.10620E+00
 0.50100002E+02  0.93109E-01
 0.50150002E+02  0.80094E-01
 0.50200001E+02  0.99154E-01
 0.50250000E+02  0.11677E+00
 0.50299999E+02  0.10784E+00
 0.50350002E+02  0.53734E-01
 0.50400002E+02 -0.14750E-01
 0.50450001E+02 -0.61050E-01
 0.50500000E+02 -0.73833E-01
 0.50549999E+02 -0.43209E-01
 0.50600002E+02 -0.42159E-03
 0.50650002E+02  0.19280E-01
 0.50700001E+02  0.94793E-02
 0.50750000E+02 -0.18369E-01
 0.50799999E+02 -0.67105E-01
 0.50850002E+02 -0.10566E+00
 0.50900002E+02 -0.12051E+00
 0.50950001E+02 -0.11442E+00
 0.51000000E+02 -0.11130E+00
 0.51049999E+02 -0.10820E+00
 0.51100002E+02 -0.77442E-01
 0.51150002E+02 -0.32019E-01
 0.51200001E+02  0.78193E-02
 0.51250000E+02  0.87357E-02
 0.51299999E+02  0.16990E-01
 0.51350002E+02  0.67218E-01
 0.51400002E+02  0.14640E+00
 0.51450001E+02  0.24140E+00
 0.51500000E+02  0.30711E+00
 0.51549999E+02  0.33310E+00
 0.51600002E+02  0.32510E+00
 0.51650002E+02  0.27083E+00
 0.51700001E+02  0.18951E+00
 0.51750000E+02  0.11625E+00
 0.51799999E+02  0.32322E-01
 0.51850002E+02 -0.69888E-01
 0.51900002E+02 -0.13699E+00
 0.51950001E+02 -0.15555E+00
 0.52000000E+02 -0.15671E+00
 0.52049999E+02 -0.16849E+00
 0.52100002E+02 -0.20834E+00
 0.52150002E+02 -0.23861E+00
 0.52200001E+02 -0.23525E+00
 0.52250000E+02 -0.18225E+00
 0.52299999E+02 -0.12296E+00
 0.52350002E+02 -0.95254E-01
 0.52400002E+02 -0.69862E-01
 0.52450001E+02 -0.37222E-01
 0.52500000E+02  0.24334E-01
 0.52549999E+02  0.75187E-01
 0.52600002E+02  0.80605E-01
 0.52650002E+02  0.57670E-01
 0.52700001E+02  0.42525E-01
 0.52750000E+02  0.43060E-01
 0.52799999E+02  0.44719E-01
 0.52850002E+02  0.54404E-01
 0.52900002E+02  0.69366E-01
 0.52950001E+02  0.76629E-01
 0.53000000E+02  0.44905E-01
 0.53049999E+02 -0.47662E-02
 0.53100002E+02 -0.33416E-01
 0.53150002E+02 -0.51657E-01
 0.53200001E+02 -0.68171E-01
 0.53250000E+02 -0.93936E-01
 0.53299999E+02 -0.12820E+00
 0.53350002E+02 -0.15375E+00
 0.53400002E+02 -0.15017E+00
 0.53450001E+02 -0.11547E+00
 0.53500000E+02 -0.72733E-01
 0.53549999E+02 -0.48426E-01
 0.53600002E+02 -0.25838E-01
 0.53650002E+02  0.65454E-02
 0.53700001E+02  0.20250E-01
 0.53750000E+02  0.53264E-01
 0.53799999E+02  0.11663E+00
 0.53850002E+02  0.17672E+00
 0.53900002E+02  0.21169E+00
 0.53950001E+02  0.20494E+00
 0.54000000E+02  0.15896E+00
 0.54049999E+02  0.98679E-01
 0.54100002E+02  0.60189E-01
 0.54150002E+02  0.41671E-01
 0.54200001E+02  0.25002E-01
 0.54250000E+02 -0.96815E-02
 0.54299999E+02 -0.28310E-01
 0.54350002E+02 -0.23258E-01
 0.54400002E+02 -0.12802E-01
 0.54450001E+02  0.61298E-02
 0.54500000E+02  0.20238E-02
 0.54549999E+02 -0.14286E-01
 0.54600002E+02 -0.49600E-01
 0.54650002E+02 -0.78626E-01
 0.54700001E+02 -0.61075E-01
 0.54750000E+02 -0.21038E-01
 0.54799999E+02  0.30164E-01
 0.54850002E+02  0.93776E-01
 0.54900002E+02  0.15211E+00
 0.54950001E+02  0.18374E+00
 0.55000000E+02  0.20046E+00
 0.55049999E+02  0.19584E+00
 0.55100002E+02  0.15928E+00
 0.55150002E+02  0.98514E-01
 0.55200001E+02  0.38459E-01
 0.55250000E+02 -0.29256E-02
 0.55299999E+02 -0.26075E-01
 0.55350002E+02 -0.35325E-01
 0.55400002E+02 -0.38882E-01
 0.55450001E+02 -0.31071E-01
 0.55500000E+02 -0.21441E-01
 0.55549999E+02 -0.85023E-02
 0.55600002E+02  0.20078E-01
 0.55650002E+02  0.31391E-01
 0.55700001E+02  0.24681E-01
 0.55750000E+02  0.38568E-01
 0.55799999E+02  0.70872E-01
 0.55850002E+02  0.10500E+00
 0.55900002E+02  0.98025E-01
 0.55950001E+02  0.51221E-01
 0.56000000E+02  0.12343E-01
 0.56049999E+02 -0.85377E-02
 0.56100002E+02 -0.26635E-01
 0.56150002E+02 -0.35852E-01
 0.56200001E+02 -0.38000E-01
 0.56250000E+02 -0.34428E-01
 0.56299999E+02 -0.17532E-01
 0.56350002E+02 -0.12167E-01
 0.56400002E+02 -0.25651E-01
 0.56450001E+02 -0.69990E-01
 0.56500000E+02 -0.10901E+00
 0.56549999E+02 -0.12000E+00
 0.56600002E+02 -0.11123E+00
 0.56650002E+02 -0.96956E-01
 0.56700001E+02 -0.86154E-01
 0.56750000E+02 -0.59444E-01
 0.56799999E+02 -0.31650E-01
 0.56850002E+02 -0.15776E-01
 0.56900002E+02 -0.24701E-01
 0.56950001E+02 -0.41582E-01
 0.57000000E+02 -0.48220E-01
 0.57049999E+02 -0.40018E-01
 0.57100002E+02 -0.19628E-01
 0.57150002E+02 -0.12863E-01
 0.57200001E+02 -0.29002E-01
 0.57250000E+02 -0.54575E-01
 0.57299999E+02 -0.74045E-01
 0.57350002E+02 -0.84950E-01
 0.57400002E+02 -0.87464E-01
 0.57450001E+02 -0.80448E-01
 0.57500000E+02 -0.69486E-01
 0.57549999E+02 -0.51576E-01
 0.57600002E+02 -0.29160E-02
 0.57650002E+02  0.62988E-01
 0.57700001E+02  0.11948E+00
 0.57750000E+02  0.15743E+00
 0.57799999E+02  0.16922E+00
 0.57850002E+02  0.13701E+00
 0.57900002E+02  0.65051E-01
 0.57950001E+02  0.78984E-02
 0.58000000E+02 -0.19014E-01
 0.58049999E+02 -0.26564E-01
 0.58100002E+02 -0.28886E-01
 0.58150002E+02 -0.37715E-01
 0.58200001E+02 -0.45475E-01
 0.58250000E+02 -0.63310E-01
 0.58299999E+02 -0.84713E-01
 0.58350002E+02 -0.90791E-01
 0.58400002E+02 -0.82824E-01
 0.58450001E+02 -0.69722E-01
 0.58500000E+02 -0.49313E-01
 0.58549999E+02 -0.24113E-01
 0.58600002E+02 -0.24745E-02
 0.58650002E+02  0.14831E-01
 0.58700001E+02  0.27767E-01
 0.58750000E+02  0.34612E-01
 0.58799999E+02  0.39150E-01
 0.58850002E+02  0.40374E-01
 0.58900002E+02  0.20612E-01
 0.58950001E+02 -0.60692E-02
 0.59000000E+02 -0.30469E-01
 0.59049999E+02 -0.50980E-01
 0.59100002E+02 -0.61688E-01
 0.59150002E+02 -0.56955E-01
 0.59200001E+02 -0.48692E-01
 0.59250000E+02 -0.47406E-01
 0.59299999E+02 -0.47353E-01
 0.59350002E+02 -0.28394E-01
 0.59400002E+02  0.24767E-01
 0.59450001E+02  0.94596E-01
 0.59500000E+02  0.15553E+00
 0.59549999E+02  0.17288E+00
 0.59600002E+02  0.14561E+00
 0.59650002E+02  0.10031E+00
 0.59700001E+02  0.72166E-01
 0.59750000E+02  0.61036E-01
 0.59799999E+02  0.60804E-01
 0.59850002E+02  0.67188E-01
 0.59900002E+02  0.65229E-01
 0.59950001E+02  0.55064E-01
 0.60000000E+02  0.46676E-01
 0.60049999E+02  0.51595E-01
 0.60100002E+02  0.52368E-01
 0.60150002E+02  0.44201E-01
 0.60200001E+02  0.16568E-01
 0.60250000E+02 -0.25429E-01
 0.60299999E+02 -0.53503E-01
 0.60350002E+02 -0.51231E-01
 0.60400002E+02 -0.25677E-01
 0.60450001E+02  0.29036E-02
 0.60500000E+02  0.31348E-01
 0.60549999E+02  0.57630E-01
 0.60600002E+02  0.73347E-01
 0.60650002E+02  0.72673E-01
 0.60700001E+02  0.67441E-01
 0.60750000E+02  0.64612E-01
 0.60799999E+02  0.69318E-01
 0.60850002E+02  0.72554E-01
 0.60900002E+02  0.66596E-01
 0.60950001E+02  0.49634E-01
 0.61000000E+02  0.18711E-01
 0.61049999E+02 -0.41859E-02
 0.61100002E+02 -0.17959E-01
 0.61150002E+02 -0.32864E-01
 0.61200001E+02 -0.50102E-01
 0.61250000E+02 -0.70555E-01
 0.61299999E+02 -0.86088E-01
 0.61350002E+02 -0.91799E-01
 0.61400002E+02 -0.93813E-01
 0.61450001E+02 -0.91752E-01
 0.61500000E+02 -0.75719E-01
 0.61549999E+02 -0.48463E-01
 0.61600002E+02 -0.26272E-01
 0.61650002E+02 -0.23218E-01
 0.61700001E+02 -0.27386E-01
 0.61750000E+02 -0.14949E-01
 0.61799999E+02  0.15048E-01
 0.61850002E+02  0.39991E-01
 0.61900002E+02  0.50097E-01
 0.61950001E+02  0.46538E-01
 0.62000000E+02  0.37383E-01
 0.62049999E+02  0.32848E-01
 0.62100002E+02  0.32861E-01
 0.62150002E+02  0.25403E-01
 0.62200001E+02  0.39288E-02
 0.62250000E+02 -0.15168E-01
 0.62299999E+02 -0.33513E-01
 0.62350002E+02 -0.58396E-01
 0.62400002E+02 -0.79463E-01
 0.62450001E+02 -0.93306E-01
 0.62500000E+02 -0.10410E+00
 0.62549999E+02 -0.10589E+00
 0.62600002E+02 -0.98556E-01
 0.62650002E+02 -0.93763E-01
 0.62700001E+02 -0.90712E-01
 0.62750000E+02 -0.82498E-01
 0.62799999E+02 -0.68889E-01
 0.62850002E+02 -0.43980E-01
 0.62900002E+02 -0.14021E-01
 0.62950001E+02  0.15142E-01
 0.63000000E+02  0.46379E-01
 0.63049999E+02  0.66005E-01
 0.63100002E+02  0.75091E-01
 0.63150002E+02  0.80450E-01
 0.63200001E+02  0.85809E-01
 0.63250000E+02  0.84111E-01
 0.63299999E+02  0.64526E-01
 0.63350002E+02  0.36400E-01
 0.63400002E+02  0.12590E-01
 0.63450001E+02 -0.49333E-02
 0.63500000E+02 -0.19904E-01
 0.63549999E+02 -0.30793E-01
 0.63600002E+02 -0.34544E-01
 0.63650002E+02 -0.34332E-01
 0.63700001E+02 -0.39297E-01
 0.63750000E+02 -0.37531E-01
 0.63799999E+02 -0.24935E-01
 0.63850002E+02 -0.10599E-01
 0.63900002E+02  0.29402E-02
 0.63950001E+02  0.52615E-02
 0.64000000E+02  0.33692E-02
 0.64050003E+02 -0.78975E-03
 0.64099998E+02 -0.15149E-01
 0.64150002E+02 -0.23583E-01
 0.64200005E+02 -0.11351E-01
 0.64250000E+02  0.20386E-01
 0.64300003E+02  0.56186E-01
 0.64349998E+02  0.81982E-01
 0.64400002E+02  0.90609E-01
 0.64450005E+02  0.79862E-01
 0.64500000E+02  0.59341E-01
 0.64550003E+02  0.41803E-01
 0.64599998E+02  0.29577E-01
 0.64650002E+02  0.16258E-01
 0.64700005E+02  0.64160E-02
 0.64750000E+02 -0.64429E-02
 0.64800003E+02 -0.26059E-01
 0.64849998E+02 -0.41989E-01
 0.64900002E+02 -0.49332E-01
 0.64950005E+02 -0.43944E-01
 0.65000000E+02 -0.30270E-01
 0.65050003E+02 -0.10631E-01
 0.65099998E+02  0.17355E-01
 0.65150002E+02  0.41484E-01
 0.65200005E+02  0.50867E-01
 0.65250000E+02  0.58296E-01
 0.65300003E+02  0.74669E-01
 0.65349998E+02  0.93316E-01
 0.65400002E+02  0.10259E+00
 0.65450005E+02  0.96157E-01
 0.65500000E+02  0.80986E-01
 0.65550003E+02  0.72377E-01
 0.65599998E+02  0.67472E-01
 0.65650002E+02  0.59642E-01
 0.65700005E+02  0.47213E-01
 0.65750000E+02  0.32137E-01
 0.65800003E+02  0.14746E-01
 0.65849998E+02 -0.73207E-02
 0.65900002E+02 -0.27675E-01
 0.65950005E+02 -0.45742E-01
 0.66000000E+02 -0.54109E-01
 0.66050003E+02 -0.60281E-01
 0.66099998E+02 -0.59688E-01
 0.66150002E+02 -0.46543E-01
 0.66200005E+02 -0.34633E-01
 0.66250000E+02 -0.27422E-01
 0.66300003E+02 -0.34747E-01
 0.66349998E+02 -0.49369E-01
 0.66400002E+02 -0.57155E-01
 0.66450005E+02 -0.51598E-01
 0.66500000E+02 -0.33270E-01
 0.66550003E+02 -0.15830E-01
 0.66599998E+02 -0.30816E-02
 0.66650002E+02  0.88462E-02
 0.66700005E+02  0.17619E-01
 0.66750000E+02  0.24272E-01
 0.66800003E+02  0.34662E-01
 0.66849998E+02  0.44515E-01
 0.66900002E+02  0.56438E-01
 0.66950005E+02  0.71857E-01
 0.67000000E+02  0.78515E-01
 0.67050003E+02  0.66427E-01
 0.67099998E+02  0.41960E-01
 0.67150002E+02  0.17799E-01
 0.67200005E+02 -0.97322E-02
 0.67250000E+02 -0.36385E-01
 0.67300003E+02 -0.57341E-01
 0.67349998E+02 -0.77405E-01
 0.67400002E+02 -0.92718E-01
 0.67450005E+02 -0.92739E-01
 0.67500000E+02 -0.79847E-01
 0.67550003E+02 -0.66203E-01
 0.67599998E+02 -0.64723E-01
 0.67650002E+02 -0.80304E-01
 0.67700005E+02 -0.97002E-01
 0.67750000E+02 -0.10788E+00
 0.67800003E+02 -0.11488E+00
 0.67849998E+02 -0.98953E-01
 0.67900002E+02 -0.60183E-01
 0.67950005E+02 -0.12242E-01
 0.68000000E+02  0.36869E-01
 0.68050003E+02  0.74881E-01
 0.68099998E+02  0.10141E+00
 0.68150002E+02  0.11667E+00
 0.68200005E+02  0.11697E+00
 0.68250000E+02  0.10471E+00
 0.68300003E+02  0.87276E-01
 0.68349998E+02  0.63489E-01
 0.68400002E+02  0.32002E-01
 0.68450005E+02  0.15271E-02
 0.68500000E+02 -0.24393E-01
 0.68550003E+02 -0.41541E-01
 0.68599998E+02 -0.42157E-01
 0.68650002E+02 -0.21252E-01
 0.68700005E+02  0.43598E-02
 0.68750000E+02  0.21014E-01
 0.68800003E+02  0.34700E-01
 0.68849998E+02  0.41970E-01
 0.68900002E+02  0.46172E-01
 0.68950005E+02  0.44425E-01
 0.69000000E+02  0.40089E-01
 0.69050003E+02  0.37156E-01
 0.69099998E+02  0.27499E-01
 0.69150002E+02  0.12322E-01
 0.69200005E+02  0.12027E-02
 0.69250000E+02 -0.18022E-02
 0.69300003E+02 -0.80022E-03
 0.69349998E+02  0.19025E-02
 0.69400002E+02  0.85572E-02
 0.69450005E+02  0.16484E-01
 0.69500000E+02  0.18671E-01
 0.69550003E+02  0.16948E-01
 0.69599998E+02  0.13865E-01
 0.69650002E+02  0.15100E-01
 0.69700005E+02  0.19380E-01
 0.69750000E+02  0.16540E-01
 0.69800003E+02  0.12384E-01
 0.69849998E+02  0.12199E-01
 0.69900002E+02  0.75869E-02
 0.69950005E+02 -0.60976E-02
 0.70000000E+02 -0.22558E-01
 0.70050003E+02 -0.37001E-01
 0.70099998E+02 -0.49807E-01
 0.70150002E+02 -0.53250E-01
 0.70200005E+02 -0.53767E-01
 0.70250000E+02 -0.54785E-01
 0.70300003E+02 -0.55994E-01
 0.70349998E+02 -0.56813E-01
 0.70400002E+02 -0.57327E-01
 0.70450005E+02 -0.53276E-01
 0.70500000E+02 -0.41495E-01
 0.70550003E+02 -0.28216E-01
 0.70599998E+02 -0.19055E-01
 0.70650002E+02 -0.19427E-01
 0.70700005E+02 -0.19317E-01
 0.70750000E+02 -0.19233E-01
 0.70800003E+02 -0.14274E-01
 0.70849998E+02 -0.25465E-02
 0.70900002E+02  0.12799E-01
 0.70950005E+02  0.28523E-01
 0.71000000E+02  0.39315E-01
 0.71050003E+02  0.40581E-01
 0.71099998E+02  0.25589E-01
 0.71150002E+02  0.33880E-02
 0.71200005E+02 -0.23342E-01
 0.71250000E+02 -0.52931E-01
 0.71300003E+02 -0.80982E-01
 0.71349998E+02 -0.10616E+00
 0.71400002E+02 -0.12823E+00
 0.71450005E+02 -0.14367E+00
 0.71500000E+02 -0.14577E+00
 0.71550003E+02 -0.13812E+00
 0.71599998E+02 -0.11732E+00
 0.71650002E+02 -0.81807E-01
 0.71700005E+02 -0.46124E-01
 0.71750000E+02 -0.15236E-01
 0.71800003E+02  0.11672E-01
 0.71849998E+02  0.29874E-01
 0.71900002E+02  0.40481E-01
 0.71950005E+02  0.44777E-01
 0.72000000E+02  0.40564E-01
 0.72050003E+02  0.33403E-01
 0.72099998E+02  0.25511E-01
 0.72150002E+02  0.20238E-01
 0.72200005E+02  0.22325E-01
 0.72250000E+02  0.33219E-01
 0.72300003E+02  0.52028E-01
 0.72349998E+02  0.64536E-01
 0.72400002E+02  0.67351E-01
 0.72450005E+02  0.64016E-01
 0.72500000E+02  0.55357E-01
 0.72550003E+02  0.46213E-01
 0.72599998E+02  0.32337E-01
 0.72650002E+02  0.12908E-01
 0.72700005E+02 -0.76677E-02
 0.72750000E+02 -0.20014E-01
 0.72800003E+02 -0.17247E-01
 0.72849998E+02 -0.60218E-02
 0.72900002E+02  0.47254E-02
 0.72950005E+02  0.11367E-01
 0.73000000E+02  0.14414E-01
 0.73050003E+02  0.21089E-01
 0.73099998E+02  0.33652E-01
 0.73150002E+02  0.48877E-01
 0.73200005E+02  0.58301E-01
 0.73250000E+02  0.56092E-01
 0.73300003E+02  0.50178E-01
 0.73349998E+02  0.42858E-01
 0.73400002E+02  0.34924E-01
 0.73450005E+02  0.23660E-01
 0.73500000E+02  0.13664E-01
 0.73550003E+02  0.12667E-02
 0.73599998E+02 -0.12460E-01
 0.73650002E+02 -0.23126E-01
 0.73700005E+02 -0.35113E-01
 0.73750000E+02 -0.43176E-01
 0.73800003E+02 -0.48083E-01
 0.73849998E+02 -0.49527E-01
 0.73900002E+02 -0.52757E-01
 0.73950005E+02 -0.55652E-01
 0.74000000E+02 -0.53444E-01
 0.74050003E+02 -0.49400E-01
 0.74099998E+02 -0.43160E-01
 0.74150002E+02 -0.31817E-01
 0.74200005E+02 -0.17495E-01
 0.74250000E+02 -0.81987E-02
 0.74300003E+02 -0.42670E-02
 0.74349998E+02 -0.34033E-02
 0.74400002E+02 -0.72642E-02
 0.74450005E+02 -0.15908E-01
 0.74500000E+02 -0.23963E-01
 0.74550003E+02 -0.25597E-01
 0.74599998E+02 -0.18442E-01
 0.74650002E+02 -0.62029E-02
 0.74700005E+02  0.55133E-02
 0.74750000E+02  0.17650E-01
 0.74800003E+02  0.29124E-01
 0.74849998E+02  0.38666E-01
 0.74900002E+02  0.46445E-01
 0.74950005E+02  0.50266E-01
 0.75000000E+02  0.55340E-01
 0.75050003E+02  0.55705E-01
 0.75099998E+02  0.46939E-01
 0.75150002E+02  0.34322E-01
 0.75200005E+02  0.22795E-01
 0.75250000E+02  0.13631E-01
 0.75300003E+02  0.32546E-02
 0.75349998E+02  0.33899E-03
 0.75400002E+02  0.11752E-02
 0.75450005E+02  0.13243E-02
 0.75500000E+02  0.28983E-02
 0.75550003E+02  0.55771E-02
 0.75599998E+02  0.11416E-01
 0.75650002E+02  0.16805E-01
 0.75700005E+02  0.22929E-01
 0.75750000E+02  0.29658E-01
 0.75800003E+02  0.37878E-01
 0.75849998E+02  0.47494E-01
 0.75900002E+02  0.57156E-01
 0.75950005E+02  0.59541E-01
 0.76000000E+02  0.48733E-01
 0.76050003E+02  0.29185E-01
 0.76099998E+02  0.32043E-02
 0.76150002E+02 -0.22470E-01
 0.76200005E+02 -0.45629E-01
 0.76250000E+02 -0.64387E-01
 0.76300003E+02 -0.76451E-01
 0.76349998E+02 -0.82351E-01
 0.76400002E+02 -0.86856E-01
 0.76450005E+02 -0.85930E-01
 0.76500000E+02 -0.76207E-01
 0.76550003E+02 -0.63512E-01
 0.76599998E+02 -0.49923E-01
 0.76650002E+02 -0.40602E-01
 0.76700005E+02 -0.36499E-01
 0.76750000E+02 -0.37406E-01
 0.76800003E+02 -0.37775E-01
 0.76849998E+02 -0.37350E-01
 0.76900002E+02 -0.35833E-01
 0.76950005E+02 -0.35371E-01
 0.77000000E+02 -0.33382E-01
 0.77050003E+02 -0.23957E-01
 0.77099998E+02 -0.84968E-02
 0.77150002E+02  0.82530E-02
 0.77200005E+02  0.23545E-01
 0.77250000E+02  0.36443E-01
 0.77300003E+02  0.45586E-01
 0.77349998E+02  0.50747E-01
 0.77400002E+02  0.48734E-01
 0.77450005E+02  0.43461E-01
 0.77500000E+02  0.34777E-01
 0.77550003E+02  0.27020E-01
 0.77599998E+02  0.16014E-01
 0.77650002E+02  0.42460E-03
 0.77700005E+02 -0.15425E-01
 0.77750000E+02 -0.31392E-01
 0.77800003E+02 -0.42618E-01
 0.77849998E+02 -0.46635E-01
 0.77900002E+02 -0.40202E-01
 0.77950005E+02 -0.28063E-01
 0.78000000E+02 -0.16224E-01
 0.78050003E+02 -0.41278E-02
 0.78099998E+02  0.89817E-02
 0.78150002E+02  0.20825E-01
 0.78200005E+02  0.34832E-01
 0.78250000E+02  0.47940E-01
 0.78300003E+02  0.56665E-01
 0.78349998E+02  0.61589E-01
 0.78400002E+02  0.61464E-01
 0.78450005E+02  0.59973E-01
 0.78500000E+02  0.57569E-01
 0.78550003E+02  0.50797E-01
 0.78599998E+02  0.42049E-01
 0.78650002E+02  0.35234E-01
 0.78700005E+02  0.30542E-01
 0.78750000E+02  0.26451E-01
 0.78800003E+02  0.20434E-01
 0.78849998E+02  0.13415E-01
 0.78900002E+02  0.42079E-02
 0.78950005E+02 -0.25475E-02
 0.79000000E+02 -0.94443E-02
 0.79050003E+02 -0.19013E-01
 0.79099998E+02 -0.26003E-01
 0.79150002E+02 -0.28995E-01
 0.79200005E+02 -0.27292E-01
 0.79250000E+02 -0.22431E-01
 0.79300003E+02 -0.13370E-01
 0.79349998E+02  0.24797E-03
 0.79400002E+02  0.12298E-01
 0.79450005E+02  0.21145E-01
 0.79500000E+02  0.31857E-01
 0.79550003E+02  0.46545E-01
 0.79599998E+02  0.61394E-01
 0.79650002E+02  0.67725E-01
 0.79700005E+02  0.63676E-01
 0.79750000E+02  0.49291E-01
 0.79800003E+02  0.28158E-01
 0.79849998E+02  0.21162E-02
 0.79900002E+02 -0.26598E-01
 0.79950005E+02 -0.49888E-01
 0.80000000E+02 -0.66341E-01
 0.80050003E+02 -0.72178E-01
 0.80099998E+02 -0.67198E-01
 0.80150002E+02 -0.56549E-01
 0.80200005E+02 -0.43877E-01
 0.80250000E+02 -0.31415E-01
 0.80300003E+02 -0.19062E-01
 0.80349998E+02 -0.55332E-02
 0.80400002E+02  0.80359E-02
 0.80450005E+02  0.19623E-01
 0.80500000E+02  0.27833E-01
 0.80550003E+02  0.33153E-01
 0.80599998E+02  0.36590E-01
 0.80650002E+02  0.34453E-01
 0.80700005E+02  0.27668E-01
 0.80750000E+02  0.18045E-01
 0.80800003E+02  0.77306E-02
 0.80849998E+02 -0.16414E-02
 0.80900002E+02 -0.10324E-01
 0.80950005E+02 -0.18040E-01
 0.81000000E+02 -0.22798E-01
 0.81050003E+02 -0.20428E-01
 0.81099998E+02 -0.12070E-01
 0.81150002E+02 -0.96165E-04
 0.81200005E+02  0.11447E-01
 0.81250000E+02  0.21308E-01
 0.81300003E+02  0.28871E-01
 0.81349998E+02  0.33215E-01
 0.81400002E+02  0.35399E-01
 0.81450005E+02  0.36692E-01
 0.81500000E+02  0.39384E-01
 0.81550003E+02  0.41250E-01
 0.81599998E+02  0.40489E-01
 0.81650002E+02  0.35704E-01
 0.81700005E+02  0.25071E-01
 0.81750000E+02  0.63536E-02
 0.81800003E+02 -0.16220E-01
 0.81849998E+02 -0.35107E-01
 0.81900002E+02 -0.50571E-01
 0.81950005E+02 -0.61538E-01
 0.82000000E+02 -0.68082E-01
 0.82050003E+02 -0.72218E-01
 0.82099998E+02 -0.71032E-01
 0.82150002E+02 -0.63688E-01
 0.82200005E+02 -0.51758E-01
 0.82250000E+02 -0.38437E-01
 0.82300003E+02 -0.25311E-01
 0.82349998E+02 -0.15718E-01
 0.82400002E+02 -0.12192E-01
 0.82450005E+02 -0.11339E-01
 0.82500000E+02 -0.12184E-01
 0.82550003E+02 -0.11225E-01
 0.82599998E+02 -0.73991E-02
 0.82650002E+02 -0.15054E-02
 0.82700005E+02  0.68320E-02
 0.82750000E+02  0.16659E-01
 0.82800003E+02  0.29536E-01
 0.82849998E+02  0.39394E-01
 0.82900002E+02  0.45739E-01
 0.82950005E+02  0.50968E-01
 0.83000000E+02  0.53748E-01
 0.83050003E+02  0.54355E-01
 0.83099998E+02  0.49894E-01
 0.83150002E+02  0.42838E-01
 0.83200005E+02  0.33469E-01
 0.83250000E+02  0.23192E-01
 0.83300003E+02  0.14864E-01
 0.83349998E+02  0.73173E-02
 0.83400002E+02 -0.33065E-03
 0.83450005E+02 -0.99733E-02
 0.83500000E+02 -0.19662E-01
 0.83550003E+02 -0.23932E-01
 0.83599998E+02 -0.22078E-01
 0.83650002E+02 -0.17984E-01
 0.83700005E+02 -0.14837E-01
 0.83750000E+02 -0.13671E-01
 0.83800003E+02 -0.13605E-01
 0.83849998E+02 -0.12060E-01
 0.83900002E+02 -0.92340E-02
 0.83950005E+02 -0.56857E-02
 0.84000000E+02 -0.34405E-03
 0.84050003E+02  0.57921E-02
 0.84099998E+02  0.10774E-01
 0.84150002E+02  0.11343E-01
 0.84200005E+02  0.70925E-02
 0.84250000E+02  0.18680E-03
 0.84300003E+02 -0.58974E-02
 0.84349998E+02 -0.99856E-02
 0.84400002E+02 -0.13347E-01
 0.84450005E+02 -0.13327E-01
 0.84500000E+02 -0.11731E-01
 0.84550003E+02 -0.12708E-01
 0.84599998E+02 -0.16756E-01
 0.84650002E+02 -0.22693E-01
 0.84700005E+02 -0.28470E-01
 0.84750000E+02 -0.30797E-01
 0.84800003E+02 -0.28006E-01
 0.84849998E+02 -0.23404E-01
 0.84900002E+02 -0.18823E-01
 0.84950005E+02 -0.13891E-01
 0.85000000E+02 -0.10880E-01
 0.85050003E+02 -0.74539E-02
 0.85099998E+02 -0.24565E-02
 0.85150002E+02  0.85021E-03
 0.85200005E+02  0.17204E-02
 0.85250000E+02 -0.25708E-02
 0.85300003E+02 -0.13229E-01
 0.85349998E+02 -0.23725E-01
 0.85400002E+02 -0.27996E-01
 0.85450005E+02 -0.27781E-01
 0.85500000E+02 -0.23736E-01
 0.85550003E+02 -0.15303E-01
 0.85599998E+02 -0.51667E-02
 0.85650002E+02  0.25550E-02
 0.85700005E+02  0.10449E-01
 0.85750000E+02  0.20958E-01
 0.85800003E+02  0.30973E-01
 0.85849998E+02  0.39282E-01
 0.85900002E+02  0.47113E-01
 0.85950005E+02  0.53035E-01
 0.86000000E+02  0.55924E-01
 0.86050003E+02  0.56107E-01
 0.86099998E+02  0.52792E-01
 0.86150002E+02  0.47215E-01
 0.86200005E+02  0.39877E-01
 0.86250000E+02  0.29173E-01
 0.86300003E+02  0.15257E-01
 0.86349998E+02  0.84378E-04
 0.86400002E+02 -0.16544E-01
 0.86450005E+02 -0.32624E-01
 0.86500000E+02 -0.44911E-01
 0.86550003E+02 -0.50595E-01
 0.86599998E+02 -0.50795E-01
 0.86650002E+02 -0.47678E-01
 0.86700005E+02 -0.43577E-01
 0.86750000E+02 -0.39363E-01
 0.86800003E+02 -0.34939E-01
 0.86849998E+02 -0.30172E-01
 0.86900002E+02 -0.23096E-01
 0.86950005E+02 -0.14750E-01
 0.87000000E+02 -0.75321E-02
 0.87050003E+02 -0.21261E-02
 0.87099998E+02  0.31274E-02
 0.87150002E+02  0.82832E-02
 0.87200005E+02  0.15493E-01
 0.87250000E+02  0.23949E-01
 0.87300003E+02  0.32788E-01
 0.87349998E+02  0.39892E-01
 0.87400002E+02  0.42531E-01
 0.87450005E+02  0.38947E-01
 0.87500000E+02  0.28154E-01
 0.87550003E+02  0.14547E-01
 0.87599998E+02  0.17596E-02
 0.87650002E+02 -0.76770E-02
 0.87700005E+02 -0.12937E-01
 0.87750000E+02 -0.15583E-01
 0.87800003E+02 -0.16466E-01
 0.87849998E+02 -0.13890E-01
 0.87900002E+02 -0.10002E-01
 0.87950005E+02 -0.52392E-02
 0.88000000E+02 -0.21321E-02
 0.88050003E+02 -0.14270E-02
 0.88099998E+02 -0.80111E-03
 0.88150002E+02 -0.35646E-02
 0.88200005E+02 -0.94205E-02
 0.88250000E+02 -0.14676E-01
 0.88300003E+02 -0.18262E-01
 0.88349998E+02 -0.20040E-01
 0.88400002E+02 -0.17929E-01
 0.88450005E+02 -0.11201E-01
 0.88500000E+02 -0.16733E-03
 0.88550003E+02  0.12098E-01
 0.88599998E+02  0.24314E-01
 0.88650002E+02  0.34102E-01
 0.88700005E+02  0.39615E-01
 0.88750000E+02  0.41492E-01
 0.88800003E+02  0.39506E-01
 0.88849998E+02  0.34250E-01
 0.88900002E+02  0.27433E-01
 0.88950005E+02  0.19586E-01
 0.89000000E+02  0.11008E-01
 0.89050003E+02  0.46685E-02
 0.89099998E+02 -0.27308E-03
 0.89150002E+02 -0.51180E-02
 0.89200005E+02 -0.11915E-01
 0.89250000E+02 -0.18624E-01
 0.89300003E+02 -0.23786E-01
 0.89349998E+02 -0.26655E-01
 0.89400002E+02 -0.25156E-01
 0.89450005E+02 -0.20586E-01
 0.89500000E+02 -0.15409E-01
 0.89550003E+02 -0.10597E-01
 0.89599998E+02 -0.60673E-02
 0.89650002E+02 -0.32215E-02
 0.89700005E+02 -0.17418E-03
 0.89750000E+02  0.39920E-02
 0.89800003E+02  0.98465E-02
 0.89849998E+02  0.18159E-01
 0.89900002E+02  0.24741E-01
 0.89950005E+02  0.26840E-01
 0.90000000E+02  0.26955E-01
 0.90050003E+02  0.27370E-01
 0.90099998E+02  0.26833E-01
 0.90150002E+02  0.23685E-01
 0.90200005E+02  0.17864E-01
 0.90250000E+02  0.85128E-02
 0.90300003E+02 -0.19151E-02
 0.90349998E+02 -0.97625E-02
 0.90400002E+02 -0.15709E-01
 0.90450005E+02 -0.19342E-01
 0.90500000E+02 -0.18859E-01
 0.90550003E+02 -0.15171E-01
 0.90599998E+02 -0.82447E-02
 0.90650002E+02  0.13418E-02
 0.90700005E+02  0.13393E-01
 0.90750000E+02  0.24541E-01
 0.90800003E+02  0.30547E-01
 0.90849998E+02  0.31058E-01
 0.90900002E+02  0.26901E-01
 0.90950005E+02  0.22124E-01
 0.91000000E+02  0.15595E-01
 0.91050003E+02  0.78136E-02
 0.91099998E+02  0.25340E-02
 0.91150002E+02  0.86457E-04
 0.91200005E+02 -0.28235E-02
 0.91250000E+02 -0.78691E-02
 0.91300003E+02 -0.12206E-01
 0.91349998E+02 -0.14945E-01
 0.91400002E+02 -0.16412E-01
 0.91450005E+02 -0.18231E-01
 0.91500000E+02 -0.19996E-01
 0.91550003E+02 -0.21291E-01
 0.91599998E+02 -0.22709E-01
 0.91650002E+02 -0.22579E-01
 0.91700005E+02 -0.19538E-01
 0.91750000E+02 -0.14566E-01
 0.91800003E+02 -0.76508E-02
 0.91849998E+02  0.12608E-02
 0.91900002E+02  0.10939E-01
 0.91950005E+02  0.17714E-01
 0.92000000E+02  0.18686E-01
 0.92050003E+02  0.15803E-01
 0.92099998E+02  0.11916E-01
 0.92150002E+02  0.84132E-02
 0.92200005E+02  0.50159E-02
 0.92250000E+02  0.90570E-03
 0.92300003E+02 -0.30196E-02
 0.92349998E+02 -0.79598E-02
 0.92400002E+02 -0.18397E-01
 0.92450005E+02 -0.33008E-01
 0.92500000E+02 -0.47199E-01
 0.92550003E+02 -0.57872E-01
 0.92599998E+02 -0.64349E-01
 0.92650002E+02 -0.66444E-01
 0.92700005E+02 -0.64680E-01
 0.92750000E+02 -0.59816E-01
 0.92800003E+02 -0.51400E-01
 0.92849998E+02 -0.41159E-01
 0.92900002E+02 -0.31701E-01
 0.92950005E+02 -0.22419E-01
 0.93000000E+02 -0.13135E-01
 0.93050003E+02 -0.37000E-02
 0.93099998E+02  0.66746E-02
 0.93150002E+02  0.17205E-01
 0.93200005E+02  0.29574E-01
 0.93250000E+02  0.43535E-01
 0.93300003E+02  0.57806E-01
 0.93349998E+02  0.70038E-01
 0.93400002E+02  0.79300E-01
 0.93450005E+02  0.84474E-01
 0.93500000E+02  0.83991E-01
 0.93550003E+02  0.79321E-01
 0.93599998E+02  0.70155E-01
 0.93650002E+02  0.57448E-01
 0.93700005E+02  0.42020E-01
 0.93750000E+02  0.24057E-01
 0.93800003E+02  0.45751E-02
 0.93849998E+02 -0.12655E-01
 0.93900002E+02 -0.25791E-01
 0.93950005E+02 -0.37299E-01
 0.94000000E+02 -0.46262E-01
 0.94050003E+02 -0.52257E-01
 0.94099998E+02 -0.58695E-01
 0.94150002E+02 -0.64497E-01
 0.94200005E+02 -0.66920E-01
 0.94250000E+02 -0.65698E-01
 0.94300003E+02 -0.60909E-01
 0.94349998E+02 -0.53766E-01
 0.94400002E+02 -0.43473E-01
 0.94450005E+02 -0.31282E-01
 0.94500000E+02 -0.17532E-01
 0.94550003E+02 -0.34733E-02
 0.94599998E+02  0.82281E-02
 0.94650002E+02  0.16928E-01
 0.94700005E+02  0.21359E-01
 0.94750000E+02  0.22305E-01
 0.94800003E+02  0.19220E-01
 0.94849998E+02  0.13817E-01
 0.94900002E+02  0.70383E-02
 0.94950005E+02 -0.23579E-03
 0.95000000E+02 -0.72315E-02
 0.95050003E+02 -0.14203E-01
 0.95099998E+02 -0.18631E-01
 0.95150002E+02 -0.20655E-01
 0.95200005E+02 -0.21897E-01
 0.95250000E+02 -0.23704E-01
 0.95300003E+02 -0.23893E-01
 0.95349998E+02 -0.21370E-01
 0.95400002E+02 -0.17366E-01
 0.95450005E+02 -0.13774E-01
 0.95500000E+02 -0.11021E-01
 0.95550003E+02 -0.96042E-02
 0.95599998E+02 -0.10008E-01
 0.95650002E+02 -0.10514E-01
 0.95700005E+02 -0.10233E-01
 0.95750000E+02 -0.92041E-02
 0.95800003E+02 -0.70953E-02
 0.95849998E+02 -0.43391E-02
 0.95900002E+02 -0.36416E-02
 0.95950005E+02 -0.40639E-02
 0.96000000E+02 -0.40476E-02
 0.96050003E+02 -0.27332E-02
 0.96099998E+02 -0.14045E-02
 0.96150002E+02 -0.39587E-04
 0.96200005E+02  0.18846E-02
 0.96250000E+02  0.40676E-02
 0.96300003E+02  0.69013E-02
 0.96349998E+02  0.96581E-02
 0.96400002E+02  0.13347E-01
 0.96450005E+02  0.17599E-01
 0.96500000E+02  0.23337E-01
 0.96550003E+02  0.31642E-01
 0.96599998E+02  0.39740E-01
 0.96650002E+02  0.46545E-01
 0.96700005E+02  0.53308E-01
 0.96750000E+02  0.59826E-01
 0.96800003E+02  0.63851E-01
 0.96849998E+02  0.63511E-01
 0.96900002E+02  0.60099E-01
 0.96950005E+02  0.53278E-01
 0.97000000E+02  0.43616E-01
 0.97050003E+02  0.33382E-01
 0.97099998E+02  0.22032E-01
 0.97150002E+02  0.11358E-01
 0.97200005E+02  0.24724E-02
 0.97250000E+02 -0.35889E-02
 0.97300003E+02 -0.61128E-02
 0.97349998E+02 -0.57669E-02
 0.97400002E+02 -0.20818E-02
 0.97450005E+02  0.44115E-02
 0.97500000E+02  0.10249E-01
 0.97550003E+02  0.13043E-01
 0.97599998E+02  0.14102E-01
 0.97650002E+02  0.14234E-01
 0.97700005E+02  0.14133E-01
 0.97750000E+02  0.11730E-01
 0.97800003E+02  0.58341E-02
 0.97849998E+02 -0.23815E-02
 0.97900002E+02 -0.12009E-01
 0.97950005E+02 -0.22987E-01
 0.98000000E+02 -0.35339E-01
 0.98050003E+02 -0.47251E-01
 0.98099998E+02 -0.57562E-01
 0.98150002E+02 -0.64954E-01
 0.98200005E+02 -0.68468E-01
 0.98250000E+02 -0.69185E-01
 0.98300003E+02 -0.66567E-01
 0.98349998E+02 -0.60291E-01
 0.98400002E+02 -0.51240E-01
 0.98450005E+02 -0.40837E-01
 0.98500000E+02 -0.29337E-01
 0.98550003E+02 -0.15587E-01
 0.98599998E+02 -0.18357E-03
 0.98650002E+02  0.15639E-01
 0.98700005E+02  0.28466E-01
 0.98750000E+02  0.35848E-01
 0.98800003E+02  0.39609E-01
 0.98849998E+02  0.40254E-01
 0.98900002E+02  0.36347E-01
 0.98950005E+02  0.30056E-01
 0.99000000E+02  0.23065E-01
 0.99050003E+02  0.16541E-01
 0.99099998E+02  0.99750E-02
 0.99150002E+02  0.13773E-02
 0.99200005E+02 -0.82294E-02
 0.99250000E+02 -0.14872E-01
 0.99300003E+02 -0.17035E-01
 0.99349998E+02 -0.16458E-01
 0.99400002E+02 -0.12733E-01
 0.99450005E+02 -0.67040E-02
 0.99500000E+02  0.77279E-03
 0.99550003E+02  0.89294E-02
 0.99599998E+02  0.15580E-01
 0.99650002E+02  0.20440E-01
 0.99700005E+02  0.25253E-01
 0.99750000E+02  0.30315E-01
 0.99800003E+02  0.34853E-01
 0.99849998E+02  0.38426E-01
 0.99900002E+02  0.39624E-01
 0.99950005E+02  0.38267E-01
 0.10000000E+03  0.37173E-01
 0.10005000E+03  0.37062E-01
 0.10010000E+03  0.35602E-01
 0.10015000E+03  0.31359E-01
 0.10020000E+03  0.24763E-01
 0.10025000E+03  0.17179E-01
 0.10030000E+03  0.95167E-02
 0.10035000E+03  0.15661E-02
 0.10040000E+03 -0.71265E-02
 0.10045000E+03 -0.16855E-01
 0.10050000E+03 -0.25397E-01
 0.10055000E+03 -0.30639E-01
 0.10060000E+03 -0.33809E-01
 0.10065000E+03 -0.34530E-01
 0.10070000E+03 -0.32708E-01
 0.10075000E+03 -0.29951E-01
 0.10080000E+03 -0.28154E-01
 0.10085000E+03 -0.26587E-01
 0.10090000E+03 -0.24308E-01
 0.10095000E+03 -0.22278E-01
 0.10100000E+03 -0.21267E-01
 0.10105000E+03 -0.21320E-01
 0.10110000E+03 -0.21960E-01
 0.10115000E+03 -0.22677E-01
 0.10120000E+03 -0.22586E-01
 0.10125000E+03 -0.22952E-01
 0.10130000E+03 -0.23399E-01
 0.10135000E+03 -0.22138E-01
 0.10140000E+03 -0.19635E-01
 0.10145000E+03 -0.16446E-01
 0.10150000E+03 -0.12564E-01
 0.10155000E+03 -0.91661E-02
 0.10160000E+03 -0.80563E-02
 0.10165000E+03 -0.82440E-02
 0.10170000E+03 -0.87785E-02
 0.10175000E+03 -0.10008E-01
 0.10180000E+03 -0.10606E-01
 0.10185000E+03 -0.10789E-01
 0.10190000E+03 -0.10113E-01
 0.10195000E+03 -0.77879E-02
 0.10200000E+03 -0.30269E-02
 0.10205000E+03  0.44239E-02
 0.10210000E+03  0.11769E-01
 0.10215000E+03  0.17312E-01
 0.10220000E+03  0.19155E-01
 0.10225000E+03  0.17405E-01
 0.10230000E+03  0.14455E-01
 0.10235000E+03  0.12050E-01
 0.10240000E+03  0.10484E-01
 0.10245000E+03  0.10099E-01
 0.10250000E+03  0.11469E-01
 0.10255000E+03  0.14249E-01
 0.10260000E+03  0.18300E-01
 0.10265000E+03  0.22590E-01
 0.10270000E+03  0.26424E-01
 0.10275000E+03  0.28921E-01
 0.10280000E+03  0.31098E-01
 0.10285000E+03  0.34139E-01
 0.10290000E+03  0.37148E-01
 0.10295000E+03  0.38339E-01
 0.10300000E+03  0.37163E-01
 0.10305000E+03  0.33930E-01
 0.10310000E+03  0.27745E-01
 0.10315000E+03  0.19626E-01
 0.10320000E+03  0.97467E-02
 0.10325000E+03 -0.11060E-02
 0.10330000E+03 -0.10288E-01
 0.10335000E+03 -0.16509E-01
 0.10340000E+03 -0.19698E-01
 0.10345000E+03 -0.19964E-01
 0.10350000E+03 -0.17429E-01
 0.10355000E+03 -0.14562E-01
 0.10360000E+03 -0.12740E-01
 0.10365000E+03 -0.11635E-01
 0.10370000E+03 -0.10696E-01
 0.10375000E+03 -0.92308E-02
 0.10380000E+03 -0.65226E-02
 0.10385000E+03 -0.30703E-02
 0.10390000E+03  0.20277E-03
 0.10395000E+03  0.31440E-02
 0.10400000E+03  0.49986E-02
 0.10405000E+03  0.51360E-02
 0.10410000E+03  0.37822E-02
 0.10415000E+03  0.14537E-02
 0.10420000E+03 -0.23243E-02
 0.10425000E+03 -0.72476E-02
 0.10430000E+03 -0.11079E-01
 0.10435000E+03 -0.11920E-01
 0.10440000E+03 -0.11250E-01
 0.10445000E+03 -0.10046E-01
 0.10450000E+03 -0.75319E-02
 0.10455000E+03 -0.54528E-02
 0.10460000E+03 -0.40408E-02
 0.10465000E+03 -0.25738E-02
 0.10470000E+03 -0.25770E-02
 0.10475000E+03 -0.51430E-02
 0.10480000E+03 -0.10179E-01
 0.10485000E+03 -0.14929E-01
 0.10490000E+03 -0.16561E-01
 0.10495000E+03 -0.15452E-01
 0.10500000E+03 -0.12879E-01
 0.10505000E+03 -0.92052E-02
 0.10510000E+03 -0.41746E-02
 0.10515000E+03  0.15490E-02
 0.10520000E+03  0.61331E-02
 0.10525000E+03  0.97913E-02
 0.10530000E+03  0.10785E-01
 0.10535000E+03  0.88530E-02
 0.10540000E+03  0.55069E-02
 0.10545000E+03  0.21659E-02
 0.10550000E+03 -0.19029E-03
 0.10555000E+03 -0.22969E-02
 0.10560000E+03 -0.37780E-02
 0.10565000E+03 -0.62688E-02
 0.10570000E+03 -0.84710E-02
 0.10575000E+03 -0.87717E-02
 0.10580000E+03 -0.77987E-02
 0.10585000E+03 -0.65203E-02
 0.10590000E+03 -0.56802E-02
 0.10595000E+03 -0.57137E-02
 0.10600000E+03 -0.73388E-02
 0.10605000E+03 -0.10340E-01
 0.10610000E+03 -0.13938E-01
 0.10615000E+03 -0.17482E-01
 0.10620000E+03 -0.20668E-01
 0.10625000E+03 -0.22328E-01
 0.10630000E+03 -0.21995E-01
 0.10635000E+03 -0.19258E-01
 0.10640000E+03 -0.14758E-01
 0.10645000E+03 -0.10478E-01
 0.10650000E+03 -0.64782E-02
 0.10655000E+03 -0.25522E-02
 0.10660000E+03  0.13638E-02
 0.10665000E+03  0.50301E-02
 0.10670000E+03  0.95008E-02
 0.10675000E+03  0.14709E-01
 0.10680000E+03  0.19303E-01
 0.10685000E+03  0.22519E-01
 0.10690000E+03  0.23643E-01
 0.10695000E+03  0.22809E-01
 0.10700000E+03  0.19476E-01
 0.10705000E+03  0.14358E-01
 0.10710000E+03  0.85054E-02
 0.10715000E+03  0.40379E-02
 0.10720000E+03  0.16142E-02
 0.10725000E+03  0.54001E-03
 0.10730000E+03 -0.21328E-03
 0.10735000E+03 -0.96439E-03
 0.10740000E+03 -0.21104E-02
 0.10745000E+03 -0.35882E-02
 0.10750000E+03 -0.45970E-02
 0.10755000E+03 -0.65496E-02
 0.10760000E+03 -0.83870E-02
 0.10765000E+03 -0.99562E-02
 0.10770000E+03 -0.10417E-01
 0.10775000E+03 -0.99391E-02
 0.10780000E+03 -0.10342E-01
 0.10785000E+03 -0.11694E-01
 0.10790000E+03 -0.14397E-01
 0.10795000E+03 -0.16852E-01
 0.10800000E+03 -0.17556E-01
 0.10805000E+03 -0.15430E-01
 0.10810000E+03 -0.10510E-01
 0.10815000E+03 -0.47228E-02
 0.10820000E+03  0.23948E-03
 0.10825000E+03  0.34287E-02
 0.10830000E+03  0.42099E-02
 0.10835000E+03  0.34038E-02
 0.10840000E+03  0.21917E-02
 0.10845000E+03  0.11411E-02
 0.10850000E+03  0.19099E-02
 0.10855000E+03  0.45467E-02
 0.10860000E+03  0.70370E-02
 0.10865000E+03  0.87187E-02
 0.10870000E+03  0.10576E-01
 0.10875000E+03  0.12444E-01
 0.10880000E+03  0.14085E-01
 0.10885000E+03  0.15859E-01
 0.10890000E+03  0.17131E-01
 0.10895000E+03  0.17385E-01
 0.10900000E+03  0.17028E-01
 0.10905000E+03  0.17059E-01
 0.10910000E+03  0.17286E-01
 0.10915000E+03  0.17758E-01
 0.10920000E+03  0.18769E-01
 0.10925000E+03  0.18873E-01
 0.10930000E+03  0.18107E-01
 0.10935000E+03  0.17237E-01
 0.10940000E+03  0.17160E-01
 0.10945000E+03  0.17850E-01
 0.10950000E+03  0.17635E-01
 0.10955000E+03  0.16065E-01
 0.10960000E+03  0.13906E-01
 0.10965000E+03  0.12072E-01
 0.10970000E+03  0.10657E-01
 0.10975000E+03  0.10182E-01
 0.10980000E+03  0.10851E-01
 0.10985000E+03  0.11906E-01
 0.10990000E+03  0.12083E-01
 0.10995000E+03  0.10400E-01
 0.11000000E+03  0.73259E-02
 0.11005000E+03  0.32689E-02
 0.11010000E+03 -0.94957E-04
 0.11015000E+03 -0.25868E-02
 0.11020000E+03 -0.60888E-02
 0.11025000E+03 -0.11015E-01
 0.11030000E+03 -0.16720E-01
 0.11035000E+03 -0.21856E-01
 0.11040000E+03 -0.24935E-01
 0.11045000E+03 -0.25254E-01
 0.11050000E+03 -0.23462E-01
 0.11055000E+03 -0.19615E-01
 0.11060000E+03 -0.13802E-01
 0.11065000E+03 -0.68508E-02
 0.11070000E+03  0.18071E-03
 0.11075000E+03  0.59316E-02
 0.11080000E+03  0.94041E-02
 0.11085000E+03  0.10707E-01
 0.11090000E+03  0.10431E-01
 0.11095000E+03  0.97038E-02
 0.11100000E+03  0.79125E-02
 0.11105000E+03  0.40811E-02
 0.11110000E+03 -0.10432E-02
 0.11115000E+03 -0.57764E-02
 0.11120000E+03 -0.94723E-02
 0.11125000E+03 -0.13127E-01
 0.11130000E+03 -0.16287E-01
 0.11135000E+03 -0.17815E-01
 0.11140000E+03 -0.17463E-01
 0.11145000E+03 -0.16202E-01
 0.11150000E+03 -0.14223E-01
 0.11155000E+03 -0.12300E-01
 0.11160000E+03 -0.10082E-01
 0.11165000E+03 -0.70955E-02
 0.11170000E+03 -0.44789E-02
 0.11175000E+03 -0.26751E-02
 0.11180000E+03 -0.18376E-02
 0.11185000E+03 -0.13090E-02
 0.11190000E+03 -0.67706E-03
 0.11195000E+03  0.57789E-03
 0.11200000E+03  0.31246E-02
 0.11205000E+03  0.58067E-02
 0.11210000E+03  0.72179E-02
 0.11215000E+03  0.68600E-02
 0.11220000E+03  0.47664E-02
 0.11225000E+03  0.18328E-02
 0.11230000E+03 -0.93079E-03
 0.11235000E+03 -0.36326E-02
 0.11240000E+03 -0.62091E-02
 0.11245000E+03 -0.77098E-02
 0.11250000E+03 -0.76450E-02
 0.11255000E+03 -0.58162E-02
 0.11260000E+03 -0.28719E-02
 0.11265000E+03  0.70043E-03
 0.11270000E+03  0.37923E-02
 0.11275000E+03  0.61439E-02
 0.11280000E+03  0.80224E-02
 0.11285000E+03  0.91839E-02
 0.11290000E+03  0.98079E-02
 0.11295000E+03  0.91146E-02
 0.11300000E+03  0.68938E-02
 0.11305000E+03  0.38338E-02
 0.11310000E+03  0.14936E-03
 0.11315000E+03 -0.46718E-02
 0.11320000E+03 -0.10905E-01
 0.11325000E+03 -0.17049E-01
 0.11330000E+03 -0.22156E-01
 0.11335000E+03 -0.26353E-01
 0.11340000E+03 -0.27980E-01
 0.11345000E+03 -0.27554E-01
 0.11350000E+03 -0.25531E-01
 0.11355000E+03 -0.21961E-01
 0.11360000E+03 -0.17939E-01
 0.11365000E+03 -0.13786E-01
 0.11370000E+03 -0.94771E-02
 0.11375000E+03 -0.37310E-02
 0.11380000E+03  0.33126E-02
 0.11385000E+03  0.10541E-01
 0.11390000E+03  0.16976E-01
 0.11395000E+03  0.21590E-01
 0.11400000E+03  0.23646E-01
 0.11405000E+03  0.23411E-01
 0.11410000E+03  0.21348E-01
 0.11415000E+03  0.17422E-01
 0.11420000E+03  0.11825E-01
 0.11425000E+03  0.52971E-02
 0.11430000E+03 -0.58638E-03
 0.11435000E+03 -0.47845E-02
 0.11440000E+03 -0.72885E-02
 0.11445000E+03 -0.81792E-02
 0.11450000E+03 -0.78978E-02
 0.11455000E+03 -0.77187E-02
 0.11460000E+03 -0.89961E-02
 0.11465000E+03 -0.11767E-01
 0.11470000E+03 -0.14894E-01
 0.11475000E+03 -0.17885E-01
 0.11480000E+03 -0.20744E-01
 0.11485000E+03 -0.24099E-01
 0.11490000E+03 -0.28074E-01
 0.11495000E+03 -0.32015E-01
 0.11500000E+03 -0.35565E-01
 0.11505000E+03 -0.38194E-01
 0.11510000E+03 -0.38752E-01
 0.11515000E+03 -0.36340E-01
 0.11520000E+03 -0.31988E-01
 0.11525000E+03 -0.26576E-01
 0.11530000E+03 -0.18950E-01
 0.11535000E+03 -0.91464E-02
 0.11540000E+03  0.66579E-03
 0.11545000E+03  0.91645E-02
 0.11550000E+03  0.16522E-01
 0.11555000E+03  0.23136E-01
 0.11560000E+03  0.28835E-01
 0.11565000E+03  0.33525E-01
 0.11570000E+03  0.36795E-01
 0.11575000E+03  0.38601E-01
 0.11580000E+03  0.39433E-01
 0.11585000E+03  0.39671E-01
 0.11590000E+03  0.39757E-01
 0.11595000E+03  0.39439E-01
 0.11600000E+03  0.38432E-01
 0.11605000E+03  0.36571E-01
 0.11610000E+03  0.34325E-01
 0.11615000E+03  0.31961E-01
 0.11620000E+03  0.28803E-01
 0.11625000E+03  0.24508E-01
 0.11630000E+03  0.18912E-01
 0.11635000E+03  0.12737E-01
 0.11640000E+03  0.64604E-02
 0.11645000E+03  0.12435E-02
 0.11650000E+03 -0.21814E-02
 0.11655000E+03 -0.43468E-02
 0.11660000E+03 -0.53796E-02
 0.11665000E+03 -0.52643E-02
 0.11670000E+03 -0.43702E-02
 0.11675000E+03 -0.33487E-02
 0.11680000E+03 -0.21072E-02
 0.11685000E+03 -0.84310E-03
 0.11690000E+03  0.23195E-03
 0.11695000E+03  0.10161E-02
 0.11700000E+03  0.22965E-02
 0.11705000E+03  0.34359E-02
 0.11710000E+03  0.42602E-02
 0.11715000E+03  0.50913E-02
 0.11720000E+03  0.57145E-02
 0.11725000E+03  0.58602E-02
 0.11730000E+03  0.52990E-02
 0.11735000E+03  0.43682E-02
 0.11740000E+03  0.28633E-02
 0.11745000E+03  0.10595E-02
 0.11750000E+03 -0.11500E-02
 0.11755000E+03 -0.24128E-02
 0.11760000E+03 -0.28559E-02
 0.11765000E+03 -0.29621E-02
 0.11770000E+03 -0.30085E-02
 0.11775000E+03 -0.35409E-02
 0.11780000E+03 -0.44072E-02
 0.11785000E+03 -0.59134E-02
 0.11790000E+03 -0.71870E-02
 0.11795000E+03 -0.78033E-02
 0.11800000E+03 -0.77712E-02
 0.11805000E+03 -0.72925E-02
 0.11810000E+03 -0.55055E-02
 0.11815000E+03 -0.30808E-02
 0.11820000E+03 -0.12875E-02
 0.11825000E+03  0.33342E-03
 0.11830000E+03  0.22465E-02
 0.11835000E+03  0.48014E-02
 0.11840000E+03  0.75120E-02
 0.11845000E+03  0.10177E-01
 0.11850000E+03  0.12533E-01
 0.11855000E+03  0.14033E-01
 0.11860000E+03  0.14067E-01
 0.11865000E+03  0.12291E-01
 0.11870000E+03  0.88818E-02
 0.11875000E+03  0.45545E-02
 0.11880000E+03  0.24202E-03
 0.11885000E+03 -0.39892E-02
 0.11890000E+03 -0.78586E-02
 0.11895000E+03 -0.10501E-01
 0.11900000E+03 -0.11796E-01
 0.11905000E+03 -0.11756E-01
 0.11910000E+03 -0.98007E-02
 0.11915000E+03 -0.71930E-02
 0.11920000E+03 -0.44337E-02
 0.11925000E+03 -0.20278E-02
 0.11930000E+03 -0.69764E-03
 0.11935000E+03  0.29503E-04
 0.11940000E+03  0.29097E-03
 0.11945000E+03  0.63186E-03
 0.11950000E+03  0.14959E-02
 0.11955000E+03  0.27331E-02
 0.11960000E+03  0.41145E-02
 0.11965000E+03  0.49552E-02
 0.11970000E+03  0.53931E-02
 0.11975000E+03  0.58104E-02
 0.11980000E+03  0.56552E-02
 0.11985000E+03  0.62045E-02
 0.11990000E+03  0.59175E-02
 0.11995000E+03  0.70655E-02
 0.12000000E+03  0.35762E-02
