 0.00000000E+00  0.14199E-03
 0.50000001E-01  0.18128E-03
 0.10000000E+00  0.18354E-03
 0.15000001E+00  0.18701E-03
 0.20000000E+00  0.19697E-03
 0.25000000E+00  0.19783E-03
 0.30000001E+00  0.20360E-03
 0.34999999E+00  0.19532E-03
 0.40000001E+00  0.20165E-03
 0.45000002E+00  0.18130E-03
 0.50000000E+00  0.16234E-03
 0.55000001E+00  0.16762E-03
 0.60000002E+00  0.16710E-03
 0.65000004E+00  0.16963E-03
 0.69999999E+00  0.16244E-03
 0.75000000E+00  0.16403E-03
 0.80000001E+00  0.16678E-03
 0.85000002E+00  0.16810E-03
 0.90000004E+00  0.17721E-03
 0.94999999E+00  0.18524E-03
 0.10000000E+01  0.19428E-03
 0.10500001E+01  0.22153E-03
 0.11000000E+01  0.22404E-03
 0.11500000E+01  0.21254E-03
 0.12000000E+01  0.22714E-03
 0.12500000E+01  0.21856E-03
 0.13000001E+01  0.19685E-03
 0.13500000E+01  0.20161E-03
 0.14000000E+01  0.17812E-03
 0.14500000E+01  0.17572E-03
 0.15000000E+01  0.15506E-03
 0.15500001E+01  0.14749E-03
 0.16000000E+01  0.15518E-03
 0.16500000E+01  0.14148E-03
 0.17000000E+01  0.14644E-03
 0.17500000E+01  0.14327E-03
 0.18000001E+01  0.16036E-03
 0.18500000E+01  0.17054E-03
 0.19000000E+01  0.18414E-03
 0.19500000E+01  0.19949E-03
 0.20000000E+01  0.22371E-03
 0.20500000E+01  0.24464E-03
 0.21000001E+01  0.25049E-03
 0.21500001E+01  0.26007E-03
 0.22000000E+01  0.27181E-03
 0.22500000E+01  0.28445E-03
 0.23000000E+01  0.25895E-03
 0.23500001E+01  0.26272E-03
 0.24000001E+01  0.26335E-03
 0.24500000E+01  0.23636E-03
 0.25000000E+01  0.22421E-03
 0.25500000E+01  0.19767E-03
 0.26000001E+01  0.19373E-03
 0.26500001E+01  0.16345E-03
 0.27000000E+01  0.15021E-03
 0.27500000E+01  0.14684E-03
 0.28000000E+01  0.12532E-03
 0.28500001E+01  0.11893E-03
 0.29000001E+01  0.12508E-03
 0.29500000E+01  0.13163E-03
 0.30000000E+01  0.14953E-03
 0.30500000E+01  0.16131E-03
 0.31000001E+01  0.15421E-03
 0.31500001E+01  0.17099E-03
 0.32000000E+01  0.17468E-03
 0.32500000E+01  0.16738E-03
 0.33000000E+01  0.14756E-03
 0.33500001E+01  0.13941E-03
 0.34000001E+01  0.11996E-03
 0.34500000E+01  0.10968E-03
 0.35000000E+01  0.98172E-04
 0.35500000E+01  0.73929E-04
 0.36000001E+01  0.70676E-04
 0.36500001E+01  0.56420E-04
 0.37000000E+01  0.42631E-04
 0.37500000E+01  0.40860E-04
 0.38000000E+01  0.49260E-04
 0.38500001E+01  0.53726E-04
 0.39000001E+01  0.72636E-04
 0.39500000E+01  0.82603E-04
 0.40000000E+01  0.79079E-04
 0.40500002E+01  0.93873E-04
 0.40999999E+01  0.99041E-04
 0.41500001E+01  0.10236E-03
 0.42000003E+01  0.10382E-03
 0.42500000E+01  0.10738E-03
 0.43000002E+01  0.10507E-03
 0.43499999E+01  0.10834E-03
 0.44000001E+01  0.10967E-03
 0.44500003E+01  0.95102E-04
 0.45000000E+01  0.85385E-04
 0.45500002E+01  0.72402E-04
 0.45999999E+01  0.66972E-04
 0.46500001E+01  0.68737E-04
 0.47000003E+01  0.68543E-04
 0.47500000E+01  0.71452E-04
 0.48000002E+01  0.79461E-04
 0.48499999E+01  0.74738E-04
 0.49000001E+01  0.66090E-04
 0.49500003E+01  0.72222E-04
 0.50000000E+01  0.69686E-04
 0.50500002E+01  0.85463E-04
 0.50999999E+01  0.10983E-03
 0.51500001E+01  0.11165E-03
 0.52000003E+01  0.11691E-03
 0.52500000E+01  0.11718E-03
 0.53000002E+01  0.11395E-03
 0.53499999E+01  0.11727E-03
 0.54000001E+01  0.12336E-03
 0.54500003E+01  0.11985E-03
 0.55000000E+01  0.12141E-03
 0.55500002E+01  0.10586E-03
 0.55999999E+01  0.10559E-03
 0.56500001E+01  0.87716E-04
 0.57000003E+01  0.84964E-04
 0.57500000E+01  0.73324E-04
 0.58000002E+01  0.67995E-04
 0.58499999E+01  0.76180E-04
 0.59000001E+01  0.88184E-04
 0.59500003E+01  0.10439E-03
 0.60000000E+01  0.10258E-03
 0.60500002E+01  0.11432E-03
 0.60999999E+01  0.11564E-03
 0.61500001E+01  0.13003E-03
 0.62000003E+01  0.12035E-03
 0.62500000E+01  0.12412E-03
 0.63000002E+01  0.10795E-03
 0.63499999E+01  0.10731E-03
 0.64000001E+01  0.99064E-04
 0.64500003E+01  0.95508E-04
 0.65000000E+01  0.12398E-03
 0.65500002E+01  0.12888E-03
 0.65999999E+01  0.14396E-03
 0.66500001E+01  0.16065E-03
 0.67000003E+01  0.18937E-03
 0.67500000E+01  0.20870E-03
 0.68000002E+01  0.22781E-03
 0.68499999E+01  0.25113E-03
 0.69000001E+01  0.26459E-03
 0.69500003E+01  0.28913E-03
 0.70000000E+01  0.30181E-03
 0.70500002E+01  0.31940E-03
 0.70999999E+01  0.33807E-03
 0.71500001E+01  0.33440E-03
 0.72000003E+01  0.33940E-03
 0.72500000E+01  0.34359E-03
 0.73000002E+01  0.32558E-03
 0.73499999E+01  0.32154E-03
 0.74000001E+01  0.33547E-03
 0.74500003E+01  0.32998E-03
 0.75000000E+01  0.34857E-03
 0.75500002E+01  0.37314E-03
 0.75999999E+01  0.37871E-03
 0.76500001E+01  0.37925E-03
 0.77000003E+01  0.38332E-03
 0.77500000E+01  0.38545E-03
 0.78000002E+01  0.40296E-03
 0.78499999E+01  0.40028E-03
 0.79000001E+01  0.39147E-03
 0.79500003E+01  0.38115E-03
 0.80000000E+01  0.34699E-03
 0.80500002E+01  0.31719E-03
 0.81000004E+01  0.28430E-03
 0.81500006E+01  0.26549E-03
 0.81999998E+01  0.21978E-03
 0.82500000E+01  0.18579E-03
 0.83000002E+01  0.13467E-03
 0.83500004E+01  0.87630E-04
 0.84000006E+01  0.41247E-04
 0.84499998E+01  0.84728E-05
 0.85000000E+01 -0.34410E-04
 0.85500002E+01 -0.95518E-04
 0.86000004E+01 -0.13148E-03
 0.86500006E+01 -0.17068E-03
 0.86999998E+01 -0.20515E-03
 0.87500000E+01 -0.23306E-03
 0.88000002E+01 -0.24598E-03
 0.88500004E+01 -0.26470E-03
 0.89000006E+01 -0.29419E-03
 0.89499998E+01 -0.31658E-03
 0.90000000E+01 -0.32148E-03
 0.90500002E+01 -0.32349E-03
 0.91000004E+01 -0.31117E-03
 0.91500006E+01 -0.30784E-03
 0.91999998E+01 -0.28439E-03
 0.92500000E+01 -0.26373E-03
 0.93000002E+01 -0.24011E-03
 0.93500004E+01 -0.19057E-03
 0.94000006E+01 -0.16090E-03
 0.94499998E+01 -0.13148E-03
 0.95000000E+01 -0.93071E-04
 0.95500002E+01 -0.65204E-04
 0.96000004E+01 -0.23410E-04
 0.96500006E+01  0.23728E-05
 0.96999998E+01  0.39210E-04
 0.97500000E+01  0.70370E-04
 0.98000002E+01  0.10252E-03
 0.98500004E+01  0.13683E-03
 0.99000006E+01  0.16130E-03
 0.99499998E+01  0.19960E-03
 0.10000000E+02  0.21763E-03
 0.10050000E+02  0.25161E-03
 0.10100000E+02  0.29550E-03
 0.10150001E+02  0.38445E-03
 0.10200000E+02  0.39880E-03
 0.10250000E+02  0.73174E-03
 0.10300000E+02  0.35851E-03
 0.10350000E+02 -0.73206E-04
 0.10400001E+02  0.19753E-02
 0.10450000E+02 -0.17837E-02
 0.10500000E+02 -0.31580E-03
 0.10550000E+02 -0.10521E-02
 0.10600000E+02  0.89262E-03
 0.10650001E+02 -0.24181E-02
 0.10700000E+02 -0.92801E-04
 0.10750000E+02  0.53990E-03
 0.10800000E+02  0.89974E-03
 0.10850000E+02  0.29952E-02
 0.10900001E+02 -0.11835E-02
 0.10950000E+02  0.59503E-02
 0.11000000E+02 -0.25039E-02
 0.11050000E+02  0.73360E-02
 0.11100000E+02 -0.73480E-02
 0.11150001E+02  0.86309E-02
 0.11200000E+02 -0.29877E-02
 0.11250000E+02  0.35913E-01
 0.11300000E+02  0.33000E-01
 0.11350000E+02  0.16681E+00
 0.11400001E+02  0.81556E-01
 0.11450000E+02  0.13856E+00
 0.11500000E+02  0.46338E+00
 0.11550000E+02  0.59509E-01
 0.11600000E+02 -0.44092E-01
 0.11650001E+02  0.91897E-01
 0.11700000E+02  0.79126E-01
 0.11750000E+02 -0.33204E+00
 0.11800000E+02 -0.36956E+00
 0.11850000E+02 -0.24826E+00
 0.11900001E+02 -0.17883E+00
 0.11950000E+02 -0.92781E-01
 0.12000000E+02 -0.18799E+00
 0.12050000E+02  0.17359E+00
 0.12100000E+02  0.25910E+00
 0.12150001E+02  0.31896E+00
 0.12200000E+02  0.92634E-01
 0.12250000E+02  0.24746E+00
 0.12300000E+02  0.16539E+00
 0.12350000E+02  0.11624E+00
 0.12400001E+02  0.26196E+00
 0.12450000E+02  0.74484E-01
 0.12500000E+02 -0.21004E+00
 0.12550000E+02 -0.17784E+00
 0.12600000E+02  0.44954E-01
 0.12650001E+02 -0.74507E+00
 0.12700000E+02 -0.53762E+00
 0.12750000E+02 -0.35575E+00
 0.12800000E+02 -0.15705E+00
 0.12850000E+02 -0.15622E+00
 0.12900001E+02  0.14019E-01
 0.12950000E+02  0.31525E+00
 0.13000000E+02  0.38488E+00
 0.13050000E+02  0.20179E+00
 0.13100000E+02 -0.79957E-01
 0.13150001E+02  0.24601E+00
 0.13200000E+02 -0.22812E+00
 0.13250000E+02 -0.23451E+00
 0.13300000E+02 -0.14958E+00
 0.13350000E+02  0.12997E-01
 0.13400001E+02  0.59341E-01
 0.13450000E+02  0.14265E+00
 0.13500000E+02  0.23641E+00
 0.13550000E+02  0.22081E+00
 0.13600000E+02  0.18212E+00
 0.13650001E+02 -0.38882E-01
 0.13700000E+02 -0.24267E+00
 0.13750000E+02 -0.33446E-01
 0.13800000E+02 -0.99674E-02
 0.13850000E+02 -0.13916E+00
 0.13900001E+02 -0.67620E-01
 0.13950000E+02  0.60341E-03
 0.14000000E+02  0.41406E-01
 0.14050000E+02  0.55038E-01
 0.14100000E+02  0.80757E-01
 0.14150001E+02  0.16109E+00
 0.14200000E+02  0.19532E+00
 0.14250000E+02  0.15518E-01
 0.14300000E+02  0.43198E-01
 0.14350000E+02 -0.50065E-01
 0.14400001E+02 -0.28396E-01
 0.14450000E+02 -0.10327E+00
 0.14500000E+02  0.74378E-01
 0.14550000E+02  0.23844E-01
 0.14600000E+02 -0.19057E-01
 0.14650001E+02 -0.39368E-01
 0.14700000E+02 -0.11004E+00
 0.14750000E+02  0.26010E-01
 0.14800000E+02 -0.13149E+00
 0.14850000E+02  0.36111E-02
 0.14900001E+02 -0.13784E+00
 0.14950000E+02 -0.20885E-01
 0.15000000E+02  0.59304E-01
 0.15050000E+02  0.80405E-01
 0.15100000E+02 -0.43280E-02
 0.15150001E+02 -0.27069E+00
 0.15200000E+02  0.10815E+00
 0.15250000E+02 -0.52441E-01
 0.15300000E+02  0.94782E-01
 0.15350000E+02  0.44464E-01
 0.15400001E+02 -0.92339E-01
 0.15450000E+02  0.25578E-01
 0.15500000E+02 -0.63501E-01
 0.15550000E+02 -0.33563E-01
 0.15600000E+02 -0.11781E+00
 0.15650001E+02  0.37531E-02
 0.15700000E+02 -0.76593E-01
 0.15750000E+02  0.34003E-01
 0.15800000E+02 -0.30555E-01
 0.15850000E+02 -0.18259E-01
 0.15900001E+02  0.11625E+00
 0.15950000E+02  0.66394E-01
 0.16000000E+02  0.40677E-01
 0.16050001E+02  0.29348E-01
 0.16100000E+02 -0.85657E-02
 0.16150000E+02 -0.91959E-02
 0.16200001E+02 -0.11163E+00
 0.16250000E+02 -0.69250E-01
 0.16300001E+02 -0.31231E-01
 0.16350000E+02 -0.10454E+00
 0.16400000E+02 -0.61011E-01
 0.16450001E+02 -0.10090E+00
 0.16500000E+02 -0.19004E-01
 0.16550001E+02 -0.94727E-01
 0.16600000E+02 -0.34447E-01
 0.16650000E+02  0.13536E+00
 0.16700001E+02  0.27628E+00
 0.16750000E+02  0.13003E+00
 0.16800001E+02  0.94886E-01
 0.16850000E+02  0.54035E-01
 0.16900000E+02  0.10816E-01
 0.16950001E+02 -0.26658E-01
 0.17000000E+02  0.69435E-01
 0.17050001E+02 -0.43340E-01
 0.17100000E+02 -0.61596E-01
 0.17150000E+02  0.64414E-01
 0.17200001E+02 -0.23267E+00
 0.17250000E+02 -0.87977E-01
 0.17300001E+02 -0.20431E+00
 0.17350000E+02 -0.29945E+00
 0.17400000E+02 -0.11842E+00
 0.17450001E+02 -0.66623E-01
 0.17500000E+02 -0.15030E+00
 0.17550001E+02 -0.39954E-01
 0.17600000E+02  0.10349E-01
 0.17650000E+02 -0.73224E-01
 0.17700001E+02  0.79809E-01
 0.17750000E+02 -0.13654E+00
 0.17800001E+02 -0.76835E-01
 0.17850000E+02 -0.25628E-01
 0.17900000E+02 -0.29735E-02
 0.17950001E+02  0.44415E-01
 0.18000000E+02  0.84491E-01
 0.18050001E+02  0.31519E-01
 0.18100000E+02  0.84453E-01
 0.18150000E+02 -0.66313E-01
 0.18200001E+02 -0.37010E+00
 0.18250000E+02 -0.25755E+00
 0.18300001E+02 -0.17826E+00
 0.18350000E+02 -0.12090E+00
 0.18400000E+02 -0.28063E-02
 0.18450001E+02  0.13881E-01
 0.18500000E+02 -0.27177E-02
 0.18550001E+02  0.14236E+00
 0.18600000E+02 -0.15736E+00
 0.18650000E+02  0.72158E-01
 0.18700001E+02  0.98215E-01
 0.18750000E+02 -0.13968E+00
 0.18800001E+02  0.17571E-01
 0.18850000E+02  0.16225E+00
 0.18900000E+02  0.21071E+00
 0.18950001E+02  0.45297E+00
 0.19000000E+02  0.47234E+00
 0.19050001E+02  0.18700E+00
 0.19100000E+02  0.37540E+00
 0.19150000E+02  0.42379E+00
 0.19200001E+02  0.20563E+00
 0.19250000E+02  0.21080E-01
 0.19300001E+02 -0.40738E+00
 0.19350000E+02 -0.67862E+00
 0.19400000E+02 -0.27757E+00
 0.19450001E+02 -0.15292E+00
 0.19500000E+02 -0.27429E-01
 0.19550001E+02  0.54097E-01
 0.19600000E+02  0.25758E+00
 0.19650000E+02  0.29659E+00
 0.19700001E+02  0.42148E+00
 0.19750000E+02  0.42867E+00
 0.19800001E+02  0.54666E+00
 0.19850000E+02  0.10000E+01
 0.19900000E+02  0.47207E+00
 0.19950001E+02  0.62464E+00
 0.20000000E+02  0.54301E+00
 0.20050001E+02 -0.37221E+00
 0.20100000E+02 -0.64582E+00
 0.20150000E+02 -0.61996E+00
 0.20200001E+02 -0.75542E+00
 0.20250000E+02 -0.57085E+00
 0.20300001E+02 -0.74343E-01
 0.20350000E+02  0.12892E+00
 0.20400000E+02  0.18018E+00
 0.20450001E+02  0.34638E+00
 0.20500000E+02  0.23660E+00
 0.20550001E+02  0.42020E+00
 0.20600000E+02  0.23724E+00
 0.20650000E+02 -0.39665E-01
 0.20700001E+02 -0.28418E-01
 0.20750000E+02 -0.40617E+00
 0.20800001E+02 -0.22503E+00
 0.20850000E+02 -0.54301E+00
 0.20900000E+02 -0.79051E+00
 0.20950001E+02 -0.52981E+00
 0.21000000E+02 -0.94082E-01
 0.21050001E+02  0.27844E+00
 0.21100000E+02  0.15448E+00
 0.21150000E+02  0.22232E-01
 0.21200001E+02  0.11358E+00
 0.21250000E+02 -0.43218E-01
 0.21300001E+02 -0.86761E-01
 0.21350000E+02  0.34245E-01
 0.21400000E+02 -0.17665E+00
 0.21450001E+02 -0.21888E+00
 0.21500000E+02 -0.14857E+00
 0.21550001E+02  0.17173E+00
 0.21600000E+02  0.74323E-01
 0.21650000E+02  0.24813E+00
 0.21700001E+02  0.93560E-01
 0.21750000E+02  0.24482E+00
 0.21800001E+02  0.42894E+00
 0.21850000E+02  0.11496E+00
 0.21900000E+02  0.16316E+00
 0.21950001E+02 -0.10382E+00
 0.22000000E+02  0.49840E-01
 0.22050001E+02 -0.13500E+00
 0.22100000E+02 -0.64324E-01
 0.22150000E+02  0.15903E+00
 0.22200001E+02  0.14236E+00
 0.22250000E+02  0.15252E+00
 0.22300001E+02  0.17522E+00
 0.22350000E+02  0.29437E-01
 0.22400000E+02 -0.48159E-01
 0.22450001E+02 -0.38937E-01
 0.22500000E+02 -0.19083E+00
 0.22550001E+02 -0.19511E+00
 0.22600000E+02 -0.14668E+00
 0.22650000E+02  0.82533E-01
 0.22700001E+02  0.95993E-02
 0.22750000E+02  0.61157E-01
 0.22800001E+02  0.52275E-01
 0.22850000E+02 -0.21039E+00
 0.22900000E+02 -0.11924E+00
 0.22950001E+02 -0.45829E-01
 0.23000000E+02 -0.18515E-01
 0.23050001E+02 -0.70350E-01
 0.23100000E+02 -0.19199E-01
 0.23150000E+02  0.46549E-01
 0.23200001E+02 -0.72614E-02
 0.23250000E+02  0.10060E+00
 0.23300001E+02 -0.22065E-02
 0.23350000E+02  0.73642E-01
 0.23400000E+02  0.28045E+00
 0.23450001E+02  0.95470E-01
 0.23500000E+02 -0.78827E-01
 0.23550001E+02 -0.16253E-01
 0.23600000E+02  0.12748E+00
 0.23650000E+02  0.16598E+00
 0.23700001E+02 -0.97357E-01
 0.23750000E+02 -0.37970E+00
 0.23800001E+02 -0.20974E+00
 0.23850000E+02 -0.97367E-01
 0.23900000E+02 -0.23727E+00
 0.23950001E+02 -0.16383E+00
 0.24000000E+02 -0.14141E+00
 0.24050001E+02 -0.68379E-01
 0.24100000E+02  0.10811E+00
 0.24150000E+02  0.22687E+00
 0.24200001E+02  0.14107E+00
 0.24250000E+02  0.17139E+00
 0.24300001E+02  0.20977E+00
 0.24350000E+02  0.70264E-01
 0.24400000E+02  0.55536E-01
 0.24450001E+02 -0.16923E+00
 0.24500000E+02 -0.97891E-01
 0.24550001E+02  0.75941E-01
 0.24600000E+02  0.83144E-01
 0.24650000E+02 -0.47727E-01
 0.24700001E+02 -0.18103E+00
 0.24750000E+02 -0.80454E-01
 0.24800001E+02 -0.28609E+00
 0.24850000E+02 -0.27579E+00
 0.24900000E+02 -0.23452E+00
 0.24950001E+02 -0.30141E+00
 0.25000000E+02 -0.11025E+00
 0.25050001E+02 -0.11884E+00
 0.25100000E+02 -0.23624E-01
 0.25150000E+02  0.77493E-01
 0.25200001E+02  0.36655E+00
 0.25250000E+02  0.32637E+00
 0.25300001E+02 -0.15591E-01
 0.25350000E+02  0.58005E-01
 0.25400000E+02  0.86187E-01
 0.25450001E+02 -0.55104E-01
 0.25500000E+02 -0.23743E+00
 0.25550001E+02 -0.67296E-01
 0.25600000E+02  0.81068E-01
 0.25650000E+02  0.22328E+00
 0.25700001E+02  0.12350E+00
 0.25750000E+02  0.15376E+00
 0.25800001E+02  0.13642E+00
 0.25850000E+02  0.31643E-01
 0.25900000E+02  0.20771E+00
 0.25950001E+02  0.87870E-01
 0.26000000E+02 -0.11874E+00
 0.26050001E+02 -0.30972E+00
 0.26100000E+02 -0.29215E+00
 0.26150000E+02 -0.10902E+00
 0.26200001E+02 -0.25266E+00
 0.26250000E+02 -0.25891E+00
 0.26300001E+02 -0.10751E+00
 0.26350000E+02 -0.17248E+00
 0.26400000E+02 -0.29466E-01
 0.26450001E+02  0.16709E+00
 0.26500000E+02  0.27979E+00
 0.26550001E+02  0.12766E+00
 0.26600000E+02  0.40652E-01
 0.26650000E+02 -0.54872E-03
 0.26700001E+02 -0.18216E+00
 0.26750000E+02 -0.20890E+00
 0.26800001E+02  0.17183E-01
 0.26850000E+02  0.51677E-01
 0.26900000E+02  0.36174E-01
 0.26950001E+02  0.19237E+00
 0.27000000E+02  0.86370E-01
 0.27050001E+02  0.36730E-01
 0.27100000E+02  0.42078E-01
 0.27150000E+02 -0.90595E-01
 0.27200001E+02 -0.19819E+00
 0.27250000E+02 -0.14579E+00
 0.27300001E+02 -0.53928E-01
 0.27350000E+02  0.60393E-01
 0.27400000E+02  0.10811E+00
 0.27450001E+02  0.11263E+00
 0.27500000E+02  0.19135E+00
 0.27550001E+02  0.22152E+00
 0.27600000E+02  0.27890E+00
 0.27650000E+02  0.28718E+00
 0.27700001E+02  0.17878E+00
 0.27750000E+02  0.15404E+00
 0.27800001E+02  0.41673E-01
 0.27850000E+02 -0.15110E+00
 0.27900000E+02 -0.41445E+00
 0.27950001E+02 -0.40134E+00
 0.28000000E+02 -0.27234E+00
 0.28050001E+02 -0.29694E+00
 0.28100000E+02 -0.20141E+00
 0.28150000E+02 -0.14936E+00
 0.28200001E+02  0.38540E-01
 0.28250000E+02  0.77894E-01
 0.28300001E+02  0.20683E+00
 0.28350000E+02  0.24284E+00
 0.28400000E+02  0.32699E+00
 0.28450001E+02  0.48387E+00
 0.28500000E+02  0.30139E+00
 0.28550001E+02  0.25005E+00
 0.28600000E+02 -0.28651E-02
 0.28650000E+02 -0.23195E+00
 0.28700001E+02 -0.18603E+00
 0.28750000E+02 -0.51238E-01
 0.28800001E+02  0.38259E-01
 0.28850000E+02 -0.90296E-02
 0.28900000E+02 -0.10899E+00
 0.28950001E+02 -0.17958E+00
 0.29000000E+02 -0.17785E+00
 0.29050001E+02 -0.47562E-01
 0.29100000E+02 -0.56364E-01
 0.29150000E+02 -0.26725E-01
 0.29200001E+02  0.20237E+00
 0.29250000E+02  0.19926E+00
 0.29300001E+02  0.26821E+00
 0.29350000E+02  0.28697E+00
 0.29400000E+02  0.13075E+00
 0.29450001E+02 -0.30037E-01
 0.29500000E+02 -0.35925E+00
 0.29550001E+02 -0.35551E+00
 0.29600000E+02 -0.20554E+00
 0.29650000E+02 -0.20540E+00
 0.29700001E+02 -0.26931E-01
 0.29750000E+02  0.42980E-02
 0.29800001E+02  0.10099E+00
 0.29850000E+02  0.85217E-01
 0.29900000E+02  0.57629E-01
 0.29950001E+02  0.23192E+00
 0.30000000E+02  0.30640E+00
 0.30050001E+02  0.27936E+00
 0.30100000E+02  0.16344E+00
 0.30150000E+02 -0.14682E+00
 0.30200001E+02 -0.40333E+00
 0.30250000E+02 -0.28429E+00
 0.30300001E+02 -0.35847E+00
 0.30350000E+02 -0.26580E+00
 0.30400000E+02 -0.17634E+00
 0.30450001E+02 -0.82498E-01
 0.30500000E+02  0.83604E-01
 0.30550001E+02  0.14862E+00
 0.30600000E+02  0.25722E+00
 0.30650000E+02  0.15887E+00
 0.30700001E+02  0.24085E+00
 0.30750000E+02  0.12607E+00
 0.30800001E+02 -0.11038E+00
 0.30850000E+02 -0.33360E-01
 0.30900000E+02  0.37741E-01
 0.30950001E+02  0.79972E-01
 0.31000000E+02  0.14698E+00
 0.31050001E+02  0.11208E+00
 0.31100000E+02  0.15425E+00
 0.31150000E+02  0.16547E+00
 0.31200001E+02  0.78099E-01
 0.31250000E+02  0.36426E-01
 0.31300001E+02  0.88438E-02
 0.31350000E+02  0.93339E-01
 0.31400000E+02  0.10485E+00
 0.31450001E+02  0.82334E-01
 0.31500000E+02 -0.36209E-01
 0.31550001E+02 -0.56307E-01
 0.31600000E+02 -0.53364E-01
 0.31650000E+02 -0.12349E+00
 0.31700001E+02 -0.21051E+00
 0.31750000E+02 -0.15297E+00
 0.31800001E+02 -0.10304E+00
 0.31850000E+02 -0.20261E+00
 0.31900000E+02 -0.87564E-01
 0.31950001E+02 -0.73837E-02
 0.32000000E+02  0.83397E-01
 0.32049999E+02 -0.82612E-01
 0.32100002E+02 -0.16022E+00
 0.32150002E+02  0.22834E-02
 0.32200001E+02  0.53189E-01
 0.32250000E+02  0.11907E-01
 0.32299999E+02  0.10183E+00
 0.32350002E+02  0.16285E+00
 0.32400002E+02  0.45203E-01
 0.32450001E+02  0.12938E+00
 0.32500000E+02  0.13607E+00
 0.32549999E+02  0.71306E-01
 0.32600002E+02  0.22945E-01
 0.32650002E+02 -0.15429E+00
 0.32700001E+02 -0.27722E+00
 0.32750000E+02 -0.19659E+00
 0.32799999E+02 -0.25162E+00
 0.32850002E+02 -0.28305E+00
 0.32900002E+02 -0.19062E+00
 0.32950001E+02 -0.31993E-01
 0.33000000E+02  0.16023E+00
 0.33049999E+02  0.24239E+00
 0.33100002E+02  0.25517E+00
 0.33150002E+02  0.18064E+00
 0.33200001E+02  0.10008E+00
 0.33250000E+02  0.26906E-01
 0.33299999E+02 -0.76177E-01
 0.33350002E+02 -0.17234E+00
 0.33400002E+02 -0.12393E+00
 0.33450001E+02 -0.15936E-01
 0.33500000E+02  0.48619E-01
 0.33549999E+02  0.80273E-01
 0.33600002E+02  0.82040E-01
 0.33650002E+02  0.79713E-01
 0.33700001E+02  0.50557E-01
 0.33750000E+02  0.11541E-01
 0.33799999E+02 -0.27807E-01
 0.33850002E+02 -0.56050E-01
 0.33900002E+02  0.76184E-01
 0.33950001E+02  0.15015E+00
 0.34000000E+02  0.17733E+00
 0.34049999E+02  0.20228E+00
 0.34100002E+02  0.22968E+00
 0.34150002E+02  0.16148E+00
 0.34200001E+02 -0.20731E-01
 0.34250000E+02 -0.12168E+00
 0.34299999E+02 -0.20293E+00
 0.34350002E+02 -0.24809E+00
 0.34400002E+02 -0.29375E+00
 0.34450001E+02 -0.29421E+00
 0.34500000E+02 -0.25794E+00
 0.34549999E+02 -0.63875E-01
 0.34600002E+02  0.79422E-01
 0.34650002E+02  0.11260E+00
 0.34700001E+02  0.16101E+00
 0.34750000E+02  0.98983E-01
 0.34799999E+02  0.87160E-01
 0.34850002E+02  0.11921E+00
 0.34900002E+02  0.70538E-01
 0.34950001E+02 -0.26795E-02
 0.35000000E+02 -0.11827E+00
 0.35049999E+02 -0.46710E-01
 0.35100002E+02  0.62127E-02
 0.35150002E+02  0.25138E-02
 0.35200001E+02  0.35505E-01
 0.35250000E+02 -0.48673E-01
 0.35299999E+02 -0.41482E-01
 0.35350002E+02  0.27370E-01
 0.35400002E+02  0.10218E+00
 0.35450001E+02  0.21319E-01
 0.35500000E+02 -0.32468E-01
 0.35549999E+02 -0.68250E-01
 0.35600002E+02 -0.11260E+00
 0.35650002E+02 -0.45980E-01
 0.35700001E+02  0.20613E-01
 0.35750000E+02  0.82762E-02
 0.35799999E+02  0.63315E-01
 0.35850002E+02 -0.38597E-01
 0.35900002E+02 -0.11962E+00
 0.35950001E+02 -0.22598E-01
 0.36000000E+02 -0.36250E-01
 0.36049999E+02  0.98565E-01
 0.36100002E+02  0.10841E+00
 0.36150002E+02  0.11605E+00
 0.36200001E+02  0.66324E-01
 0.36250000E+02  0.34103E-01
 0.36299999E+02  0.79356E-01
 0.36350002E+02  0.80554E-01
 0.36400002E+02  0.10045E-01
 0.36450001E+02 -0.58527E-01
 0.36500000E+02 -0.13161E+00
 0.36549999E+02 -0.24155E+00
 0.36600002E+02 -0.16732E+00
 0.36650002E+02 -0.12709E+00
 0.36700001E+02 -0.28123E-01
 0.36750000E+02 -0.48618E-01
 0.36799999E+02 -0.18769E-01
 0.36850002E+02 -0.31833E-01
 0.36900002E+02 -0.78104E-01
 0.36950001E+02 -0.44742E-04
 0.37000000E+02 -0.40411E-01
 0.37049999E+02 -0.12542E-01
 0.37100002E+02 -0.54285E-01
 0.37150002E+02 -0.12735E+00
 0.37200001E+02 -0.14080E+00
 0.37250000E+02 -0.38071E-01
 0.37299999E+02  0.67398E-01
 0.37350002E+02  0.60495E-02
 0.37400002E+02  0.26170E-01
 0.37450001E+02  0.68227E-01
 0.37500000E+02  0.92951E-01
 0.37549999E+02  0.10562E+00
 0.37600002E+02  0.75827E-01
 0.37650002E+02  0.12881E+00
 0.37700001E+02  0.14863E+00
 0.37750000E+02  0.21236E+00
 0.37799999E+02  0.20643E+00
 0.37850002E+02  0.17998E+00
 0.37900002E+02  0.11219E+00
 0.37950001E+02 -0.10810E-02
 0.38000000E+02  0.94921E-02
 0.38049999E+02 -0.34318E-01
 0.38100002E+02 -0.18961E-01
 0.38150002E+02 -0.11395E+00
 0.38200001E+02 -0.12991E+00
 0.38250000E+02 -0.51113E-01
 0.38299999E+02 -0.23025E-01
 0.38350002E+02  0.11598E-01
 0.38400002E+02  0.81173E-01
 0.38450001E+02  0.12753E+00
 0.38500000E+02  0.74671E-01
 0.38549999E+02  0.11494E-01
 0.38600002E+02 -0.25568E-01
 0.38650002E+02 -0.20467E-01
 0.38700001E+02 -0.79613E-01
 0.38750000E+02 -0.12986E+00
 0.38799999E+02 -0.14452E+00
 0.38850002E+02 -0.97638E-01
 0.38900002E+02 -0.72279E-01
 0.38950001E+02  0.55972E-02
 0.39000000E+02  0.23837E-01
 0.39049999E+02  0.37307E-01
 0.39100002E+02  0.15981E-01
 0.39150002E+02 -0.25316E-01
 0.39200001E+02  0.15001E-02
 0.39250000E+02 -0.16760E-01
 0.39299999E+02  0.42464E-01
 0.39350002E+02  0.42834E-01
 0.39400002E+02  0.21148E-01
 0.39450001E+02  0.16888E-01
 0.39500000E+02  0.17447E-01
 0.39549999E+02 -0.20970E-01
 0.39600002E+02 -0.33209E-01
 0.39650002E+02 -0.50121E-01
 0.39700001E+02 -0.60784E-01
 0.39750000E+02 -0.57742E-02
 0.39799999E+02 -0.55785E-01
 0.39850002E+02 -0.49684E-01
 0.39900002E+02 -0.27052E-01
 0.39950001E+02 -0.64755E-01
 0.40000000E+02 -0.96598E-01
 0.40049999E+02 -0.10372E+00
 0.40100002E+02 -0.11265E-01
 0.40150002E+02  0.51776E-01
 0.40200001E+02  0.58402E-01
 0.40250000E+02  0.86908E-01
 0.40299999E+02  0.11718E+00
 0.40350002E+02  0.90355E-01
 0.40400002E+02  0.33953E-01
 0.40450001E+02  0.22888E-02
 0.40500000E+02  0.69904E-02
 0.40549999E+02  0.16873E-01
 0.40600002E+02 -0.58787E-01
 0.40650002E+02 -0.78491E-01
 0.40700001E+02 -0.36711E-01
 0.40750000E+02 -0.39365E-01
 0.40799999E+02 -0.59899E-01
 0.40850002E+02 -0.59826E-01
 0.40900002E+02  0.14812E-02
 0.40950001E+02  0.22395E-01
 0.41000000E+02  0.50812E-01
 0.41049999E+02  0.37593E-01
 0.41100002E+02  0.33071E-01
 0.41150002E+02  0.19658E-01
 0.41200001E+02 -0.40628E-01
 0.41250000E+02 -0.36158E-01
 0.41299999E+02  0.62025E-03
 0.41350002E+02  0.41654E-01
 0.41400002E+02  0.72845E-01
 0.41450001E+02  0.65037E-01
 0.41500000E+02  0.41367E-01
 0.41549999E+02  0.24627E-01
 0.41600002E+02 -0.25398E-02
 0.41650002E+02 -0.21888E-01
 0.41700001E+02 -0.15287E-01
 0.41750000E+02  0.22334E-01
 0.41799999E+02  0.37831E-01
 0.41850002E+02  0.73241E-01
 0.41900002E+02  0.95956E-01
 0.41950001E+02  0.11936E+00
 0.42000000E+02  0.87725E-01
 0.42049999E+02  0.54536E-01
 0.42100002E+02  0.25516E-01
 0.42150002E+02  0.26326E-01
 0.42200001E+02 -0.20578E-01
 0.42250000E+02 -0.11236E+00
 0.42299999E+02 -0.96874E-01
 0.42350002E+02 -0.76277E-01
 0.42400002E+02 -0.64215E-01
 0.42450001E+02 -0.26992E-01
 0.42500000E+02  0.38993E-01
 0.42549999E+02  0.51819E-01
 0.42600002E+02  0.68808E-01
 0.42650002E+02  0.59383E-01
 0.42700001E+02  0.28922E-01
 0.42750000E+02  0.32433E-02
 0.42799999E+02  0.33769E-01
 0.42850002E+02  0.47871E-01
 0.42900002E+02 -0.35296E-02
 0.42950001E+02 -0.31949E-01
 0.43000000E+02 -0.43801E-01
 0.43049999E+02 -0.53470E-01
 0.43100002E+02 -0.46137E-01
 0.43150002E+02 -0.27280E-01
 0.43200001E+02 -0.50287E-01
 0.43250000E+02 -0.65917E-01
 0.43299999E+02 -0.50681E-01
 0.43350002E+02 -0.69302E-01
 0.43400002E+02 -0.69825E-01
 0.43450001E+02 -0.53642E-01
 0.43500000E+02 -0.63338E-01
 0.43549999E+02 -0.55586E-01
 0.43600002E+02 -0.33468E-01
 0.43650002E+02  0.66489E-01
 0.43700001E+02  0.10978E+00
 0.43750000E+02  0.11905E+00
 0.43799999E+02  0.10596E+00
 0.43850002E+02  0.79418E-01
 0.43900002E+02  0.62115E-01
 0.43950001E+02 -0.68933E-03
 0.44000000E+02 -0.35949E-01
 0.44049999E+02 -0.87929E-01
 0.44100002E+02 -0.10536E+00
 0.44150002E+02 -0.11242E+00
 0.44200001E+02 -0.39521E-01
 0.44250000E+02 -0.91796E-02
 0.44299999E+02 -0.40410E-01
 0.44350002E+02 -0.25725E-01
 0.44400002E+02 -0.56252E-01
 0.44450001E+02 -0.30443E-01
 0.44500000E+02 -0.51538E-04
 0.44549999E+02 -0.18015E-01
 0.44600002E+02 -0.12209E-01
 0.44650002E+02  0.31372E-02
 0.44700001E+02  0.34833E-01
 0.44750000E+02  0.25512E-01
 0.44799999E+02 -0.62308E-01
 0.44850002E+02 -0.66069E-01
 0.44900002E+02 -0.31748E-01
 0.44950001E+02  0.13953E-01
 0.45000000E+02  0.64713E-01
 0.45049999E+02  0.74613E-01
 0.45100002E+02  0.68975E-01
 0.45150002E+02  0.81409E-01
 0.45200001E+02  0.72383E-01
 0.45250000E+02  0.71661E-01
 0.45299999E+02  0.98208E-01
 0.45350002E+02  0.67500E-01
 0.45400002E+02  0.50146E-01
 0.45450001E+02  0.19665E-01
 0.45500000E+02 -0.64414E-02
 0.45549999E+02 -0.37908E-01
 0.45600002E+02 -0.93456E-01
 0.45650002E+02 -0.65457E-01
 0.45700001E+02 -0.43310E-01
 0.45750000E+02 -0.56423E-01
 0.45799999E+02 -0.77972E-01
 0.45850002E+02 -0.11446E+00
 0.45900002E+02 -0.86165E-01
 0.45950001E+02 -0.48223E-01
 0.46000000E+02  0.42060E-02
 0.46049999E+02  0.16292E-01
 0.46100002E+02  0.15632E-01
 0.46150002E+02  0.21404E-01
 0.46200001E+02  0.63460E-02
 0.46250000E+02  0.22058E-01
 0.46299999E+02  0.43285E-01
 0.46350002E+02  0.38455E-01
 0.46400002E+02  0.91659E-02
 0.46450001E+02  0.89392E-02
 0.46500000E+02  0.73149E-02
 0.46549999E+02 -0.45774E-02
 0.46600002E+02  0.19445E-01
 0.46650002E+02  0.58977E-01
 0.46700001E+02  0.41724E-01
 0.46750000E+02  0.24013E-01
 0.46799999E+02  0.14150E-01
 0.46850002E+02 -0.24319E-01
 0.46900002E+02 -0.23021E-01
 0.46950001E+02  0.10409E-01
 0.47000000E+02  0.66114E-01
 0.47049999E+02  0.10414E+00
 0.47100002E+02  0.11453E+00
 0.47150002E+02  0.79907E-01
 0.47200001E+02  0.30636E-01
 0.47250000E+02  0.51503E-01
 0.47299999E+02  0.53507E-01
 0.47350002E+02  0.45463E-01
 0.47400002E+02  0.32595E-01
 0.47450001E+02 -0.77310E-02
 0.47500000E+02 -0.45574E-01
 0.47549999E+02 -0.46279E-01
 0.47600002E+02 -0.69144E-01
 0.47650002E+02 -0.10707E+00
 0.47700001E+02 -0.11393E+00
 0.47750000E+02 -0.12244E+00
 0.47799999E+02 -0.84402E-01
 0.47850002E+02 -0.48757E-01
 0.47900002E+02 -0.30800E-01
 0.47950001E+02  0.29473E-01
 0.48000000E+02  0.46901E-01
 0.48049999E+02  0.31540E-01
 0.48100002E+02  0.45755E-01
 0.48150002E+02  0.57575E-01
 0.48200001E+02  0.42662E-01
 0.48250000E+02  0.11789E-02
 0.48299999E+02 -0.65660E-02
 0.48350002E+02 -0.11109E-01
 0.48400002E+02 -0.43785E-02
 0.48450001E+02  0.61615E-02
 0.48500000E+02 -0.51600E-02
 0.48549999E+02 -0.38893E-01
 0.48600002E+02 -0.63232E-01
 0.48650002E+02 -0.85830E-01
 0.48700001E+02 -0.84498E-01
 0.48750000E+02 -0.73682E-01
 0.48799999E+02 -0.69214E-01
 0.48850002E+02 -0.62085E-01
 0.48900002E+02 -0.54831E-01
 0.48950001E+02 -0.21881E-01
 0.49000000E+02 -0.29381E-02
 0.49049999E+02  0.13251E-02
 0.49100002E+02 -0.29984E-02
 0.49150002E+02  0.12933E-01
 0.49200001E+02  0.18845E-01
 0.49250000E+02 -0.40341E-02
 0.49299999E+02 -0.37506E-01
 0.49350002E+02 -0.41908E-01
 0.49400002E+02 -0.17896E-01
 0.49450001E+02 -0.96763E-02
 0.49500000E+02  0.87588E-02
 0.49549999E+02  0.23502E-01
 0.49600002E+02  0.23540E-01
 0.49650002E+02  0.80707E-01
 0.49700001E+02  0.13905E+00
 0.49750000E+02  0.16964E+00
 0.49799999E+02  0.17790E+00
 0.49850002E+02  0.16607E+00
 0.49900002E+02  0.11728E+00
 0.49950001E+02  0.76479E-01
 0.50000000E+02  0.39144E-01
 0.50049999E+02 -0.10742E-01
 0.50100002E+02 -0.12840E-02
 0.50150002E+02 -0.54800E-02
 0.50200001E+02 -0.22725E-01
 0.50250000E+02 -0.38460E-01
 0.50299999E+02 -0.69372E-01
 0.50350002E+02 -0.11183E+00
 0.50400002E+02 -0.96732E-01
 0.50450001E+02 -0.84357E-01
 0.50500000E+02 -0.85217E-01
 0.50549999E+02 -0.61938E-01
 0.50600002E+02 -0.49910E-01
 0.50650002E+02 -0.22804E-01
 0.50700001E+02  0.76136E-02
 0.50750000E+02  0.29465E-01
 0.50799999E+02  0.40667E-01
 0.50850002E+02  0.31810E-01
 0.50900002E+02  0.12980E-01
 0.50950001E+02  0.12666E-01
 0.51000000E+02 -0.10555E-01
 0.51049999E+02 -0.13762E-01
 0.51100002E+02  0.21438E-02
 0.51150002E+02  0.13025E-01
 0.51200001E+02  0.21709E-01
 0.51250000E+02  0.17672E-01
 0.51299999E+02  0.14994E-01
 0.51350002E+02 -0.14967E-01
 0.51400002E+02 -0.15204E-01
 0.51450001E+02 -0.16211E-01
 0.51500000E+02 -0.49749E-01
 0.51549999E+02 -0.39907E-01
 0.51600002E+02 -0.29401E-01
 0.51650002E+02 -0.34391E-01
 0.51700001E+02 -0.12805E-01
 0.51750000E+02  0.25654E-01
 0.51799999E+02  0.46778E-01
 0.51850002E+02  0.58895E-01
 0.51900002E+02  0.71841E-01
 0.51950001E+02  0.45871E-01
 0.52000000E+02  0.11066E-01
 0.52049999E+02 -0.39535E-02
 0.52100002E+02 -0.16225E-01
 0.52150002E+02 -0.25474E-01
 0.52200001E+02 -0.28959E-01
 0.52250000E+02 -0.18764E-01
 0.52299999E+02 -0.97107E-03
 0.52350002E+02  0.85084E-02
 0.52400002E+02  0.14277E-02
 0.52450001E+02  0.17026E-03
 0.52500000E+02 -0.96193E-02
 0.52549999E+02 -0.25917E-01
 0.52600002E+02 -0.35885E-01
 0.52650002E+02 -0.42620E-01
 0.52700001E+02 -0.50724E-01
 0.52750000E+02 -0.50471E-01
 0.52799999E+02 -0.41492E-01
 0.52850002E+02 -0.16225E-01
 0.52900002E+02  0.31983E-01
 0.52950001E+02  0.46538E-01
 0.53000000E+02  0.61308E-01
 0.53049999E+02  0.39020E-01
 0.53100002E+02  0.15638E-01
 0.53150002E+02 -0.34458E-03
 0.53200001E+02 -0.15101E-01
 0.53250000E+02 -0.21453E-01
 0.53299999E+02 -0.72821E-02
 0.53350002E+02  0.21323E-01
 0.53400002E+02  0.36550E-01
 0.53450001E+02  0.93623E-01
 0.53500000E+02  0.10318E+00
 0.53549999E+02  0.93560E-01
 0.53600002E+02  0.76005E-01
 0.53650002E+02  0.25757E-01
 0.53700001E+02 -0.28720E-01
 0.53750000E+02 -0.40911E-01
 0.53799999E+02 -0.33955E-01
 0.53850002E+02 -0.27421E-01
 0.53900002E+02 -0.61130E-02
 0.53950001E+02  0.14049E-01
 0.54000000E+02  0.36516E-01
 0.54049999E+02  0.68544E-01
 0.54100002E+02  0.79051E-01
 0.54150002E+02  0.58146E-01
 0.54200001E+02  0.47489E-01
 0.54250000E+02  0.20326E-01
 0.54299999E+02 -0.11606E-01
 0.54350002E+02 -0.17032E-01
 0.54400002E+02 -0.32811E-01
 0.54450001E+02 -0.66795E-01
 0.54500000E+02 -0.64441E-01
 0.54549999E+02 -0.66937E-01
 0.54600002E+02 -0.65529E-01
 0.54650002E+02 -0.52934E-01
 0.54700001E+02 -0.36577E-01
 0.54750000E+02 -0.16280E-01
 0.54799999E+02  0.37166E-02
 0.54850002E+02 -0.33118E-02
 0.54900002E+02 -0.23159E-01
 0.54950001E+02 -0.29829E-01
 0.55000000E+02 -0.57148E-01
 0.55049999E+02 -0.64461E-01
 0.55100002E+02 -0.53208E-01
 0.55150002E+02 -0.23695E-01
 0.55200001E+02 -0.50412E-02
 0.55250000E+02  0.95664E-02
 0.55299999E+02  0.40073E-01
 0.55350002E+02  0.54842E-01
 0.55400002E+02  0.60532E-01
 0.55450001E+02  0.61277E-01
 0.55500000E+02  0.56481E-01
 0.55549999E+02  0.45858E-01
 0.55600002E+02  0.27517E-01
 0.55650002E+02 -0.53611E-02
 0.55700001E+02 -0.31219E-01
 0.55750000E+02 -0.42455E-01
 0.55799999E+02 -0.62306E-01
 0.55850002E+02 -0.67531E-01
 0.55900002E+02 -0.82767E-01
 0.55950001E+02 -0.70775E-01
 0.56000000E+02 -0.55425E-01
 0.56049999E+02 -0.49030E-01
 0.56100002E+02 -0.41162E-01
 0.56150002E+02 -0.30890E-01
 0.56200001E+02  0.10487E-01
 0.56250000E+02  0.14041E-01
 0.56299999E+02  0.40764E-01
 0.56350002E+02  0.54367E-01
 0.56400002E+02  0.64012E-01
 0.56450001E+02  0.60838E-01
 0.56500000E+02  0.45856E-01
 0.56549999E+02  0.57717E-01
 0.56600002E+02  0.52930E-01
 0.56650002E+02  0.46838E-01
 0.56700001E+02  0.27992E-01
 0.56750000E+02  0.22583E-01
 0.56799999E+02  0.88462E-02
 0.56850002E+02 -0.49554E-02
 0.56900002E+02 -0.24081E-01
 0.56950001E+02 -0.32803E-01
 0.57000000E+02 -0.32635E-01
 0.57049999E+02 -0.40708E-01
 0.57100002E+02 -0.19123E-01
 0.57150002E+02  0.75257E-02
 0.57200001E+02  0.16836E-01
 0.57250000E+02  0.16014E-01
 0.57299999E+02  0.31766E-01
 0.57350002E+02  0.36707E-01
 0.57400002E+02  0.33726E-01
 0.57450001E+02  0.27306E-01
 0.57500000E+02  0.29380E-01
 0.57549999E+02  0.26880E-01
 0.57600002E+02 -0.11083E-01
 0.57650002E+02 -0.31744E-01
 0.57700001E+02 -0.27381E-01
 0.57750000E+02 -0.24608E-01
 0.57799999E+02 -0.31336E-01
 0.57850002E+02 -0.17446E-01
 0.57900002E+02 -0.42975E-02
 0.57950001E+02  0.84602E-02
 0.58000000E+02  0.16347E-01
 0.58049999E+02  0.37904E-02
 0.58100002E+02  0.86956E-02
 0.58150002E+02  0.11293E-01
 0.58200001E+02  0.13458E-01
 0.58250000E+02  0.60567E-02
 0.58299999E+02 -0.17255E-01
 0.58350002E+02 -0.13523E-01
 0.58400002E+02 -0.20064E-01
 0.58450001E+02 -0.28062E-01
 0.58500000E+02 -0.28735E-01
 0.58549999E+02 -0.26292E-01
 0.58600002E+02 -0.24571E-01
 0.58650002E+02 -0.22169E-01
 0.58700001E+02 -0.17515E-01
 0.58750000E+02 -0.10106E-01
 0.58799999E+02 -0.23384E-02
 0.58850002E+02 -0.69581E-02
 0.58900002E+02 -0.84572E-02
 0.58950001E+02 -0.34915E-02
 0.59000000E+02 -0.26123E-02
 0.59049999E+02 -0.22346E-01
 0.59100002E+02 -0.33747E-01
 0.59150002E+02 -0.42016E-01
 0.59200001E+02 -0.51976E-01
 0.59250000E+02 -0.36765E-01
 0.59299999E+02 -0.22502E-01
 0.59350002E+02 -0.23191E-01
 0.59400002E+02 -0.71188E-02
 0.59450001E+02  0.42651E-02
 0.59500000E+02  0.29675E-01
 0.59549999E+02  0.42669E-01
 0.59600002E+02  0.30633E-01
 0.59650002E+02  0.30181E-01
 0.59700001E+02  0.27074E-01
 0.59750000E+02  0.10642E-01
 0.59799999E+02 -0.12348E-01
 0.59850002E+02 -0.73135E-02
 0.59900002E+02  0.51797E-02
 0.59950001E+02  0.12915E-01
 0.60000000E+02  0.13581E-01
 0.60049999E+02  0.20264E-01
 0.60100002E+02  0.38935E-01
 0.60150002E+02  0.40034E-01
 0.60200001E+02  0.46634E-01
 0.60250000E+02  0.42593E-01
 0.60299999E+02  0.36283E-01
 0.60350002E+02  0.37777E-01
 0.60400002E+02  0.32894E-01
 0.60450001E+02  0.27847E-01
 0.60500000E+02  0.22108E-01
 0.60549999E+02  0.18182E-01
 0.60600002E+02  0.12290E-01
 0.60650002E+02  0.26189E-01
 0.60700001E+02  0.35963E-01
 0.60750000E+02  0.35418E-01
 0.60799999E+02  0.32085E-01
 0.60850002E+02  0.31767E-01
 0.60900002E+02  0.21052E-01
 0.60950001E+02  0.85698E-03
 0.61000000E+02  0.45858E-03
 0.61049999E+02 -0.44918E-02
 0.61100002E+02 -0.26713E-01
 0.61150002E+02 -0.53349E-01
 0.61200001E+02 -0.51789E-01
 0.61250000E+02 -0.56068E-01
 0.61299999E+02 -0.57041E-01
 0.61350002E+02 -0.43033E-01
 0.61400002E+02 -0.50896E-01
 0.61450001E+02 -0.41451E-01
 0.61500000E+02 -0.13616E-01
 0.61549999E+02  0.58514E-03
 0.61600002E+02  0.31727E-02
 0.61650002E+02 -0.57662E-03
 0.61700001E+02 -0.89738E-02
 0.61750000E+02 -0.93930E-02
 0.61799999E+02 -0.96724E-02
 0.61850002E+02 -0.17402E-01
 0.61900002E+02 -0.14081E-01
 0.61950001E+02 -0.26481E-01
 0.62000000E+02 -0.36368E-01
 0.62049999E+02 -0.31607E-01
 0.62100002E+02 -0.31249E-01
 0.62150002E+02 -0.12050E-01
 0.62200001E+02 -0.25735E-02
 0.62250000E+02  0.24217E-01
 0.62299999E+02  0.58968E-01
 0.62350002E+02  0.58101E-01
 0.62400002E+02  0.38282E-01
 0.62450001E+02  0.18646E-01
 0.62500000E+02  0.70031E-02
 0.62549999E+02 -0.38493E-02
 0.62600002E+02 -0.69207E-02
 0.62650002E+02 -0.12762E-01
 0.62700001E+02 -0.29362E-01
 0.62750000E+02 -0.47407E-01
 0.62799999E+02 -0.49544E-01
 0.62850002E+02 -0.32880E-01
 0.62900002E+02 -0.21173E-01
 0.62950001E+02 -0.10859E-01
 0.63000000E+02  0.64041E-02
 0.63049999E+02  0.10587E-01
 0.63100002E+02  0.80114E-02
 0.63150002E+02  0.68928E-02
 0.63200001E+02  0.38015E-02
 0.63250000E+02 -0.29795E-02
 0.63299999E+02  0.13826E-01
 0.63350002E+02  0.36554E-01
 0.63400002E+02  0.64797E-01
 0.63450001E+02  0.73097E-01
 0.63500000E+02  0.67478E-01
 0.63549999E+02  0.59017E-01
 0.63600002E+02  0.33857E-01
 0.63650002E+02  0.24990E-01
 0.63700001E+02  0.80802E-02
 0.63750000E+02 -0.35002E-02
 0.63799999E+02 -0.19158E-01
 0.63850002E+02 -0.29363E-01
 0.63900002E+02 -0.42862E-01
 0.63950001E+02 -0.47204E-01
 0.64000000E+02 -0.54727E-01
 0.64050003E+02 -0.58534E-01
 0.64099998E+02 -0.52089E-01
 0.64150002E+02 -0.36339E-01
 0.64200005E+02 -0.56294E-02
 0.64250000E+02  0.72585E-02
 0.64300003E+02  0.28492E-01
 0.64349998E+02  0.22498E-01
 0.64400002E+02  0.28131E-01
 0.64450005E+02  0.31959E-01
 0.64500000E+02  0.81763E-02
 0.64550003E+02 -0.25958E-02
 0.64599998E+02 -0.14398E-02
 0.64650002E+02 -0.72597E-02
 0.64700005E+02 -0.18177E-01
 0.64750000E+02 -0.31312E-01
 0.64800003E+02 -0.40667E-01
 0.64849998E+02 -0.44430E-01
 0.64900002E+02 -0.56401E-01
 0.64950005E+02 -0.58844E-01
 0.65000000E+02 -0.52171E-01
 0.65050003E+02 -0.34263E-01
 0.65099998E+02 -0.13892E-01
 0.65150002E+02  0.17523E-01
 0.65200005E+02  0.39815E-01
 0.65250000E+02  0.52750E-01
 0.65300003E+02  0.67251E-01
 0.65349998E+02  0.77665E-01
 0.65400002E+02  0.91938E-01
 0.65450005E+02  0.95214E-01
 0.65500000E+02  0.84944E-01
 0.65550003E+02  0.61608E-01
 0.65599998E+02  0.39783E-01
 0.65650002E+02  0.11697E-01
 0.65700005E+02 -0.19719E-01
 0.65750000E+02 -0.32502E-01
 0.65800003E+02 -0.30441E-01
 0.65849998E+02 -0.32193E-01
 0.65900002E+02 -0.29951E-02
 0.65950005E+02  0.33466E-01
 0.66000000E+02  0.43425E-01
 0.66050003E+02  0.37225E-01
 0.66099998E+02  0.20706E-01
 0.66150002E+02  0.15532E-01
 0.66200005E+02 -0.71421E-02
 0.66250000E+02 -0.11637E-01
 0.66300003E+02 -0.96174E-02
 0.66349998E+02 -0.14118E-01
 0.66400002E+02 -0.22172E-01
 0.66450005E+02 -0.28881E-01
 0.66500000E+02 -0.38544E-01
 0.66550003E+02 -0.44812E-01
 0.66599998E+02 -0.44648E-01
 0.66650002E+02 -0.62584E-01
 0.66700005E+02 -0.46556E-01
 0.66750000E+02 -0.22746E-01
 0.66800003E+02 -0.82989E-02
 0.66849998E+02 -0.32225E-02
 0.66900002E+02 -0.41703E-02
 0.66950005E+02 -0.15552E-01
 0.67000000E+02 -0.27177E-01
 0.67050003E+02 -0.25670E-01
 0.67099998E+02 -0.33466E-01
 0.67150002E+02 -0.20783E-01
 0.67200005E+02 -0.92140E-02
 0.67250000E+02 -0.18608E-02
 0.67300003E+02  0.11256E-01
 0.67349998E+02  0.22702E-01
 0.67400002E+02  0.27725E-01
 0.67450005E+02  0.35699E-01
 0.67500000E+02  0.49921E-01
 0.67550003E+02  0.44901E-01
 0.67599998E+02  0.36510E-01
 0.67650002E+02  0.34103E-01
 0.67700005E+02  0.20000E-01
 0.67750000E+02  0.23227E-02
 0.67800003E+02 -0.59972E-03
 0.67849998E+02 -0.58095E-02
 0.67900002E+02 -0.63489E-02
 0.67950005E+02 -0.32649E-02
 0.68000000E+02 -0.96113E-02
 0.68050003E+02 -0.16770E-01
 0.68099998E+02 -0.19214E-01
 0.68150002E+02 -0.20502E-01
 0.68200005E+02 -0.20339E-01
 0.68250000E+02 -0.14857E-01
 0.68300003E+02 -0.15172E-02
 0.68349998E+02  0.84860E-02
 0.68400002E+02  0.53962E-02
 0.68450005E+02 -0.85051E-03
 0.68500000E+02 -0.10120E-01
 0.68550003E+02 -0.16990E-01
 0.68599998E+02 -0.23051E-01
 0.68650002E+02 -0.29186E-01
 0.68700005E+02 -0.30098E-01
 0.68750000E+02 -0.28262E-01
 0.68800003E+02 -0.25445E-01
 0.68849998E+02 -0.68233E-02
 0.68900002E+02  0.19114E-01
 0.68950005E+02  0.32657E-01
 0.69000000E+02  0.37821E-01
 0.69050003E+02  0.27383E-01
 0.69099998E+02  0.59118E-02
 0.69150002E+02 -0.92595E-02
 0.69200005E+02 -0.10985E-01
 0.69250000E+02 -0.87314E-02
 0.69300003E+02 -0.15488E-01
 0.69349998E+02 -0.18726E-01
 0.69400002E+02 -0.16055E-01
 0.69450005E+02 -0.48365E-02
 0.69500000E+02  0.10090E-01
 0.69550003E+02  0.12198E-01
 0.69599998E+02  0.19306E-01
 0.69650002E+02  0.19527E-01
 0.69700005E+02  0.96955E-02
 0.69750000E+02 -0.13035E-01
 0.69800003E+02 -0.24745E-01
 0.69849998E+02 -0.23181E-01
 0.69900002E+02 -0.16452E-01
 0.69950005E+02  0.32235E-02
 0.70000000E+02  0.21774E-01
 0.70050003E+02  0.33679E-01
 0.70099998E+02  0.37059E-01
 0.70150002E+02  0.37072E-01
 0.70200005E+02  0.17667E-01
 0.70250000E+02  0.14346E-01
 0.70300003E+02  0.19176E-01
 0.70349998E+02  0.20401E-01
 0.70400002E+02  0.24994E-01
 0.70450005E+02  0.38901E-01
 0.70500000E+02  0.48067E-01
 0.70550003E+02  0.35610E-01
 0.70599998E+02  0.19932E-01
 0.70650002E+02  0.36187E-02
 0.70700005E+02 -0.20986E-02
 0.70750000E+02 -0.24043E-02
 0.70800003E+02 -0.67367E-02
 0.70849998E+02 -0.19646E-01
 0.70900002E+02 -0.22004E-01
 0.70950005E+02 -0.24857E-01
 0.71000000E+02 -0.21746E-01
 0.71050003E+02 -0.29330E-02
 0.71099998E+02  0.68460E-02
 0.71150002E+02 -0.50626E-02
 0.71200005E+02 -0.22430E-01
 0.71250000E+02 -0.35886E-01
 0.71300003E+02 -0.44486E-01
 0.71349998E+02 -0.45838E-01
 0.71400002E+02 -0.41782E-01
 0.71450005E+02 -0.13232E-01
 0.71500000E+02  0.14933E-01
 0.71550003E+02  0.27736E-01
 0.71599998E+02  0.31123E-01
 0.71650002E+02  0.33766E-01
 0.71700005E+02  0.38411E-01
 0.71750000E+02  0.45992E-01
 0.71800003E+02  0.42777E-01
 0.71849998E+02  0.34813E-01
 0.71900002E+02  0.31939E-01
 0.71950005E+02  0.25546E-01
 0.72000000E+02  0.20098E-01
 0.72050003E+02  0.86824E-02
 0.72099998E+02 -0.55615E-02
 0.72150002E+02 -0.24762E-01
 0.72200005E+02 -0.33050E-01
 0.72250000E+02 -0.38203E-01
 0.72300003E+02 -0.38886E-01
 0.72349998E+02 -0.37752E-01
 0.72400002E+02 -0.32889E-01
 0.72450005E+02 -0.28079E-01
 0.72500000E+02 -0.34617E-01
 0.72550003E+02 -0.31337E-01
 0.72599998E+02 -0.26190E-01
 0.72650002E+02 -0.16683E-01
 0.72700005E+02 -0.26685E-02
 0.72750000E+02  0.13948E-02
 0.72800003E+02 -0.22908E-02
 0.72849998E+02  0.24835E-04
 0.72900002E+02  0.28034E-02
 0.72950005E+02  0.92051E-02
 0.73000000E+02  0.14881E-01
 0.73050003E+02  0.78705E-02
 0.73099998E+02 -0.67649E-02
 0.73150002E+02 -0.21250E-01
 0.73200005E+02 -0.27741E-01
 0.73250000E+02 -0.30497E-01
 0.73300003E+02 -0.28831E-01
 0.73349998E+02 -0.19810E-01
 0.73400002E+02 -0.16345E-01
 0.73450005E+02 -0.19656E-01
 0.73500000E+02 -0.13852E-01
 0.73550003E+02 -0.38032E-02
 0.73599998E+02  0.72136E-02
 0.73650002E+02  0.14474E-01
 0.73700005E+02  0.17876E-01
 0.73750000E+02  0.24435E-01
 0.73800003E+02  0.27270E-01
 0.73849998E+02  0.24021E-01
 0.73900002E+02  0.20282E-01
 0.73950005E+02  0.20464E-01
 0.74000000E+02  0.19739E-01
 0.74050003E+02  0.12074E-01
 0.74099998E+02 -0.81155E-03
 0.74150002E+02 -0.10792E-01
 0.74200005E+02 -0.74348E-02
 0.74250000E+02  0.60905E-02
 0.74300003E+02  0.13425E-01
 0.74349998E+02  0.16617E-01
 0.74400002E+02  0.12631E-01
 0.74450005E+02  0.13035E-01
 0.74500000E+02  0.19699E-01
 0.74550003E+02  0.20425E-01
 0.74599998E+02  0.27845E-01
 0.74650002E+02  0.30783E-01
 0.74700005E+02  0.25226E-01
 0.74750000E+02  0.20748E-01
 0.74800003E+02  0.94854E-02
 0.74849998E+02 -0.67061E-02
 0.74900002E+02 -0.64168E-02
 0.74950005E+02 -0.55827E-02
 0.75000000E+02 -0.80339E-02
 0.75050003E+02 -0.30538E-02
 0.75099998E+02 -0.10576E-01
 0.75150002E+02 -0.18735E-01
 0.75200005E+02 -0.21857E-01
 0.75250000E+02 -0.26817E-01
 0.75300003E+02 -0.27888E-01
 0.75349998E+02 -0.21972E-01
 0.75400002E+02 -0.10902E-01
 0.75450005E+02 -0.62426E-02
 0.75500000E+02  0.30871E-02
 0.75550003E+02  0.15658E-01
 0.75599998E+02  0.24363E-01
 0.75650002E+02  0.27964E-01
 0.75700005E+02  0.21502E-01
 0.75750000E+02  0.11790E-01
 0.75800003E+02  0.35894E-02
 0.75849998E+02  0.11334E-01
 0.75900002E+02  0.23772E-01
 0.75950005E+02  0.38527E-01
 0.76000000E+02  0.41423E-01
 0.76050003E+02  0.35347E-01
 0.76099998E+02  0.30432E-01
 0.76150002E+02  0.17315E-01
 0.76200005E+02  0.42540E-02
 0.76250000E+02 -0.11877E-01
 0.76300003E+02 -0.24028E-01
 0.76349998E+02 -0.35155E-01
 0.76400002E+02 -0.49078E-01
 0.76450005E+02 -0.68357E-01
 0.76500000E+02 -0.79825E-01
 0.76550003E+02 -0.77615E-01
 0.76599998E+02 -0.67036E-01
 0.76650002E+02 -0.41532E-01
 0.76700005E+02 -0.14696E-01
 0.76750000E+02  0.40652E-02
 0.76800003E+02  0.15690E-01
 0.76849998E+02  0.26428E-01
 0.76900002E+02  0.35441E-01
 0.76950005E+02  0.38639E-01
 0.77000000E+02  0.32604E-01
 0.77050003E+02  0.19608E-01
 0.77099998E+02  0.74048E-02
 0.77150002E+02 -0.25494E-02
 0.77200005E+02 -0.10037E-01
 0.77250000E+02 -0.16064E-01
 0.77300003E+02 -0.16272E-01
 0.77349998E+02 -0.15648E-01
 0.77400002E+02 -0.13685E-01
 0.77450005E+02 -0.10546E-01
 0.77500000E+02 -0.37708E-02
 0.77550003E+02  0.68084E-02
 0.77599998E+02  0.15702E-01
 0.77650002E+02  0.23893E-01
 0.77700005E+02  0.21343E-01
 0.77750000E+02  0.16242E-01
 0.77800003E+02  0.10880E-01
 0.77849998E+02 -0.15158E-02
 0.77900002E+02 -0.13899E-01
 0.77950005E+02 -0.22238E-01
 0.78000000E+02 -0.30096E-01
 0.78050003E+02 -0.31149E-01
 0.78099998E+02 -0.24360E-01
 0.78150002E+02 -0.59900E-02
 0.78200005E+02  0.14162E-01
 0.78250000E+02  0.17909E-01
 0.78300003E+02  0.13717E-01
 0.78349998E+02  0.11882E-02
 0.78400002E+02 -0.78001E-02
 0.78450005E+02 -0.16119E-01
 0.78500000E+02 -0.15432E-01
 0.78550003E+02 -0.45842E-02
 0.78599998E+02  0.50824E-02
 0.78650002E+02  0.29011E-02
 0.78700005E+02 -0.30181E-02
 0.78750000E+02 -0.15916E-02
 0.78800003E+02  0.31127E-03
 0.78849998E+02  0.68228E-02
 0.78900002E+02  0.16249E-01
 0.78950005E+02  0.27924E-01
 0.79000000E+02  0.37504E-01
 0.79050003E+02  0.34896E-01
 0.79099998E+02  0.19390E-01
 0.79150002E+02  0.11828E-01
 0.79200005E+02  0.12647E-01
 0.79250000E+02  0.12745E-01
 0.79300003E+02  0.92368E-02
 0.79349998E+02  0.58670E-02
 0.79400002E+02  0.54842E-02
 0.79450005E+02  0.62278E-02
 0.79500000E+02  0.48673E-02
 0.79550003E+02  0.13802E-02
 0.79599998E+02  0.31361E-02
 0.79650002E+02  0.70465E-02
 0.79700005E+02  0.10359E-01
 0.79750000E+02  0.93708E-02
 0.79800003E+02  0.11822E-02
 0.79849998E+02 -0.41379E-02
 0.79900002E+02 -0.63733E-02
 0.79950005E+02 -0.44527E-02
 0.80000000E+02 -0.45297E-03
 0.80050003E+02  0.16269E-02
 0.80099998E+02  0.10502E-02
 0.80150002E+02  0.37410E-03
 0.80200005E+02  0.57738E-02
 0.80250000E+02  0.39674E-02
 0.80300003E+02 -0.25973E-02
 0.80349998E+02 -0.50164E-02
 0.80400002E+02 -0.64781E-02
 0.80450005E+02 -0.80989E-02
 0.80500000E+02 -0.87055E-02
 0.80550003E+02 -0.12851E-01
 0.80599998E+02 -0.12165E-01
 0.80650002E+02 -0.63730E-02
 0.80700005E+02 -0.39237E-02
 0.80750000E+02 -0.46396E-02
 0.80800003E+02 -0.81222E-02
 0.80849998E+02 -0.12449E-01
 0.80900002E+02 -0.21368E-01
 0.80950005E+02 -0.24706E-01
 0.81000000E+02 -0.23777E-01
 0.81050003E+02 -0.21669E-01
 0.81099998E+02 -0.23911E-01
 0.81150002E+02 -0.23770E-01
 0.81200005E+02 -0.18889E-01
 0.81250000E+02 -0.15820E-01
 0.81300003E+02 -0.95522E-02
 0.81349998E+02 -0.79097E-02
 0.81400002E+02 -0.64352E-02
 0.81450005E+02 -0.42001E-02
 0.81500000E+02 -0.22253E-02
 0.81550003E+02  0.37410E-02
 0.81599998E+02  0.91436E-02
 0.81650002E+02  0.12436E-01
 0.81700005E+02  0.15427E-01
 0.81750000E+02  0.15227E-01
 0.81800003E+02  0.12877E-01
 0.81849998E+02  0.15825E-01
 0.81900002E+02  0.26903E-01
 0.81950005E+02  0.35862E-01
 0.82000000E+02  0.38699E-01
 0.82050003E+02  0.44437E-01
 0.82099998E+02  0.51379E-01
 0.82150002E+02  0.44477E-01
 0.82200005E+02  0.36109E-01
 0.82250000E+02  0.33852E-01
 0.82300003E+02  0.24437E-01
 0.82349998E+02  0.15227E-01
 0.82400002E+02  0.13641E-02
 0.82450005E+02 -0.13858E-01
 0.82500000E+02 -0.23557E-01
 0.82550003E+02 -0.32080E-01
 0.82599998E+02 -0.40494E-01
 0.82650002E+02 -0.36883E-01
 0.82700005E+02 -0.26501E-01
 0.82750000E+02 -0.19215E-01
 0.82800003E+02 -0.14847E-01
 0.82849998E+02 -0.18126E-01
 0.82900002E+02 -0.18058E-01
 0.82950005E+02 -0.15471E-01
 0.83000000E+02 -0.31917E-02
 0.83050003E+02  0.11507E-01
 0.83099998E+02  0.16144E-01
 0.83150002E+02  0.13370E-01
 0.83200005E+02  0.72198E-02
 0.83250000E+02  0.82947E-03
 0.83300003E+02 -0.33003E-02
 0.83349998E+02 -0.24553E-02
 0.83400002E+02 -0.36262E-03
 0.83450005E+02  0.30515E-02
 0.83500000E+02  0.38370E-02
 0.83550003E+02  0.26778E-02
 0.83599998E+02 -0.18396E-02
 0.83650002E+02 -0.69444E-02
 0.83700005E+02 -0.57039E-02
 0.83750000E+02 -0.10937E-01
 0.83800003E+02 -0.20408E-01
 0.83849998E+02 -0.31499E-01
 0.83900002E+02 -0.43349E-01
 0.83950005E+02 -0.43591E-01
 0.84000000E+02 -0.36488E-01
 0.84050003E+02 -0.24030E-01
 0.84099998E+02 -0.17388E-01
 0.84150002E+02 -0.18326E-02
 0.84200005E+02  0.14668E-01
 0.84250000E+02  0.21647E-01
 0.84300003E+02  0.28049E-01
 0.84349998E+02  0.27244E-01
 0.84400002E+02  0.27067E-01
 0.84450005E+02  0.25253E-01
 0.84500000E+02  0.22938E-01
 0.84550003E+02  0.15278E-01
 0.84599998E+02  0.50052E-02
 0.84650002E+02 -0.33002E-02
 0.84700005E+02 -0.55184E-02
 0.84750000E+02 -0.60214E-02
 0.84800003E+02 -0.41739E-02
 0.84849998E+02 -0.15261E-02
 0.84900002E+02  0.25954E-02
 0.84950005E+02  0.71519E-02
 0.85000000E+02  0.61373E-02
 0.85050003E+02  0.49260E-02
 0.85099998E+02  0.19024E-02
 0.85150002E+02  0.46861E-02
 0.85200005E+02  0.10597E-01
 0.85250000E+02  0.85922E-02
 0.85300003E+02  0.70864E-02
 0.85349998E+02  0.17081E-02
 0.85400002E+02 -0.37242E-02
 0.85450005E+02 -0.53923E-02
 0.85500000E+02 -0.41447E-02
 0.85550003E+02  0.41300E-02
 0.85599998E+02  0.66348E-02
 0.85650002E+02  0.18699E-01
 0.85700005E+02  0.26653E-01
 0.85750000E+02  0.24636E-01
 0.85800003E+02  0.14170E-01
 0.85849998E+02 -0.28821E-03
 0.85900002E+02 -0.12547E-01
 0.85950005E+02 -0.14605E-01
 0.86000000E+02 -0.11099E-01
 0.86050003E+02 -0.86803E-02
 0.86099998E+02 -0.60563E-02
 0.86150002E+02 -0.91782E-02
 0.86200005E+02 -0.74226E-02
 0.86250000E+02 -0.88069E-02
 0.86300003E+02 -0.19163E-02
 0.86349998E+02  0.34173E-02
 0.86400002E+02  0.22092E-02
 0.86450005E+02 -0.33276E-02
 0.86500000E+02 -0.99558E-02
 0.86550003E+02 -0.14345E-01
 0.86599998E+02 -0.15386E-01
 0.86650002E+02 -0.17092E-01
 0.86700005E+02 -0.17792E-01
 0.86750000E+02 -0.14439E-01
 0.86800003E+02 -0.12417E-01
 0.86849998E+02 -0.46231E-02
 0.86900002E+02  0.35581E-02
 0.86950005E+02  0.12992E-01
 0.87000000E+02  0.14203E-01
 0.87050003E+02  0.10220E-01
 0.87099998E+02  0.36930E-02
 0.87150002E+02 -0.37025E-02
 0.87200005E+02 -0.60800E-02
 0.87250000E+02 -0.76429E-02
 0.87300003E+02 -0.48743E-02
 0.87349998E+02 -0.24394E-02
 0.87400002E+02 -0.10003E-02
 0.87450005E+02  0.42553E-02
 0.87500000E+02  0.37420E-02
 0.87550003E+02  0.24294E-02
 0.87599998E+02  0.78978E-02
 0.87650002E+02  0.62075E-02
 0.87700005E+02  0.98513E-03
 0.87750000E+02 -0.28094E-02
 0.87800003E+02 -0.11406E-01
 0.87849998E+02 -0.20710E-01
 0.87900002E+02 -0.24322E-01
 0.87950005E+02 -0.22268E-01
 0.88000000E+02 -0.15916E-01
 0.88050003E+02 -0.71349E-02
 0.88099998E+02  0.48869E-02
 0.88150002E+02  0.12027E-01
 0.88200005E+02  0.18436E-01
 0.88250000E+02  0.22478E-01
 0.88300003E+02  0.17277E-01
 0.88349998E+02  0.14558E-01
 0.88400002E+02  0.12956E-01
 0.88450005E+02  0.12885E-01
 0.88500000E+02  0.10145E-01
 0.88550003E+02  0.44854E-02
 0.88599998E+02 -0.14687E-02
 0.88650002E+02  0.69908E-03
 0.88700005E+02  0.11455E-01
 0.88750000E+02  0.20838E-01
 0.88800003E+02  0.28177E-01
 0.88849998E+02  0.31531E-01
 0.88900002E+02  0.25168E-01
 0.88950005E+02  0.12223E-01
 0.89000000E+02  0.99350E-03
 0.89050003E+02 -0.52387E-02
 0.89099998E+02 -0.37035E-02
 0.89150002E+02 -0.54048E-02
 0.89200005E+02 -0.10307E-01
 0.89250000E+02 -0.14129E-01
 0.89300003E+02 -0.16206E-01
 0.89349998E+02 -0.13606E-01
 0.89400002E+02 -0.11551E-01
 0.89450005E+02 -0.10480E-01
 0.89500000E+02 -0.78020E-02
 0.89550003E+02 -0.60595E-02
 0.89599998E+02  0.43920E-03
 0.89650002E+02  0.12085E-01
 0.89700005E+02  0.19432E-01
 0.89750000E+02  0.21134E-01
 0.89800003E+02  0.17703E-01
 0.89849998E+02  0.91302E-02
 0.89900002E+02 -0.32161E-02
 0.89950005E+02 -0.14180E-01
 0.90000000E+02 -0.25541E-01
 0.90050003E+02 -0.29143E-01
 0.90099998E+02 -0.22005E-01
 0.90150002E+02 -0.14660E-01
 0.90200005E+02 -0.68205E-02
 0.90250000E+02 -0.30581E-03
 0.90300003E+02 -0.81119E-03
 0.90349998E+02 -0.48753E-02
 0.90400002E+02 -0.67297E-02
 0.90450005E+02 -0.54589E-02
 0.90500000E+02 -0.16082E-02
 0.90550003E+02  0.76506E-02
 0.90599998E+02  0.16107E-01
 0.90650002E+02  0.22274E-01
 0.90700005E+02  0.26306E-01
 0.90750000E+02  0.28115E-01
 0.90800003E+02  0.26671E-01
 0.90849998E+02  0.17201E-01
 0.90900002E+02  0.42319E-02
 0.90950005E+02 -0.86624E-02
 0.91000000E+02 -0.13853E-01
 0.91050003E+02 -0.15004E-01
 0.91099998E+02 -0.17271E-01
 0.91150002E+02 -0.15383E-01
 0.91200005E+02 -0.83272E-02
 0.91250000E+02 -0.53434E-02
 0.91300003E+02  0.29582E-03
 0.91349998E+02  0.10196E-01
 0.91400002E+02  0.19597E-01
 0.91450005E+02  0.26140E-01
 0.91500000E+02  0.30781E-01
 0.91550003E+02  0.29733E-01
 0.91599998E+02  0.18558E-01
 0.91650002E+02  0.87736E-02
 0.91700005E+02 -0.45440E-02
 0.91750000E+02 -0.17439E-01
 0.91800003E+02 -0.22875E-01
 0.91849998E+02 -0.25390E-01
 0.91900002E+02 -0.26057E-01
 0.91950005E+02 -0.26118E-01
 0.92000000E+02 -0.29214E-01
 0.92050003E+02 -0.30159E-01
 0.92099998E+02 -0.23137E-01
 0.92150002E+02 -0.10719E-01
 0.92200005E+02 -0.20869E-03
 0.92250000E+02  0.72778E-02
 0.92300003E+02  0.92066E-02
 0.92349998E+02  0.59520E-02
 0.92400002E+02  0.41191E-02
 0.92450005E+02  0.21635E-03
 0.92500000E+02 -0.42375E-02
 0.92550003E+02 -0.57543E-02
 0.92599998E+02 -0.82841E-02
 0.92650002E+02 -0.11578E-01
 0.92700005E+02 -0.11011E-01
 0.92750000E+02 -0.11000E-01
 0.92800003E+02 -0.11820E-01
 0.92849998E+02 -0.94618E-02
 0.92900002E+02 -0.43386E-02
 0.92950005E+02 -0.14256E-02
 0.93000000E+02 -0.16346E-02
 0.93050003E+02 -0.14460E-02
 0.93099998E+02 -0.33627E-02
 0.93150002E+02 -0.52998E-02
 0.93200005E+02  0.37184E-03
 0.93250000E+02  0.12801E-01
 0.93300003E+02  0.23377E-01
 0.93349998E+02  0.30106E-01
 0.93400002E+02  0.31452E-01
 0.93450005E+02  0.21638E-01
 0.93500000E+02  0.10136E-01
 0.93550003E+02  0.47847E-02
 0.93599998E+02  0.12423E-02
 0.93650002E+02 -0.21354E-02
 0.93700005E+02 -0.17475E-02
 0.93750000E+02  0.10210E-02
 0.93800003E+02  0.20363E-02
 0.93849998E+02  0.70900E-02
 0.93900002E+02  0.11597E-01
 0.93950005E+02  0.90263E-02
 0.94000000E+02  0.51880E-02
 0.94050003E+02 -0.15772E-02
 0.94099998E+02 -0.71880E-02
 0.94150002E+02 -0.75377E-02
 0.94200005E+02 -0.10717E-01
 0.94250000E+02 -0.12385E-01
 0.94300003E+02 -0.11959E-01
 0.94349998E+02 -0.12754E-01
 0.94400002E+02 -0.10051E-01
 0.94450005E+02 -0.64995E-02
 0.94500000E+02 -0.40613E-02
 0.94550003E+02  0.17731E-02
 0.94599998E+02  0.10694E-01
 0.94650002E+02  0.16494E-01
 0.94700005E+02  0.18682E-01
 0.94750000E+02  0.13363E-01
 0.94800003E+02  0.77168E-02
 0.94849998E+02  0.55584E-02
 0.94900002E+02  0.26321E-02
 0.94950005E+02  0.10772E-02
 0.95000000E+02  0.46109E-03
 0.95050003E+02  0.28549E-02
 0.95099998E+02  0.56283E-02
 0.95150002E+02  0.12262E-01
 0.95200005E+02  0.18094E-01
 0.95250000E+02  0.18128E-01
 0.95300003E+02  0.13853E-01
 0.95349998E+02  0.10107E-01
 0.95400002E+02  0.35462E-02
 0.95450005E+02 -0.73446E-03
 0.95500000E+02  0.27621E-02
 0.95550003E+02  0.22395E-02
 0.95599998E+02  0.20673E-02
 0.95650002E+02  0.27536E-02
 0.95700005E+02  0.28574E-02
 0.95750000E+02  0.18623E-02
 0.95800003E+02 -0.72399E-03
 0.95849998E+02 -0.40400E-02
 0.95900002E+02 -0.60911E-02
 0.95950005E+02 -0.52962E-02
 0.96000000E+02 -0.15018E-02
 0.96050003E+02  0.32625E-02
 0.96099998E+02  0.58485E-02
 0.96150002E+02  0.69330E-02
 0.96200005E+02  0.61457E-02
 0.96250000E+02  0.45840E-02
 0.96300003E+02  0.20179E-02
 0.96349998E+02 -0.27110E-02
 0.96400002E+02 -0.64806E-02
 0.96450005E+02 -0.96159E-02
 0.96500000E+02 -0.10896E-01
 0.96550003E+02 -0.10296E-01
 0.96599998E+02 -0.10596E-01
 0.96650002E+02 -0.96172E-02
 0.96700005E+02 -0.59783E-02
 0.96750000E+02 -0.27480E-02
 0.96800003E+02  0.29299E-02
 0.96849998E+02  0.95292E-02
 0.96900002E+02  0.12215E-01
 0.96950005E+02  0.11033E-01
 0.97000000E+02  0.31234E-02
 0.97050003E+02 -0.50330E-02
 0.97099998E+02 -0.10275E-01
 0.97150002E+02 -0.12681E-01
 0.97200005E+02 -0.14532E-01
 0.97250000E+02 -0.16711E-01
 0.97300003E+02 -0.19664E-01
 0.97349998E+02 -0.23077E-01
 0.97400002E+02 -0.24829E-01
 0.97450005E+02 -0.23157E-01
 0.97500000E+02 -0.19750E-01
 0.97550003E+02 -0.14788E-01
 0.97599998E+02 -0.76934E-02
 0.97650002E+02 -0.36557E-02
 0.97700005E+02 -0.15085E-02
 0.97750000E+02  0.14553E-02
 0.97800003E+02  0.53600E-02
 0.97849998E+02  0.78614E-02
 0.97900002E+02  0.92153E-02
 0.97950005E+02  0.64805E-02
 0.98000000E+02  0.32943E-02
 0.98050003E+02  0.36443E-02
 0.98099998E+02  0.22855E-02
 0.98150002E+02 -0.13181E-02
 0.98200005E+02 -0.15889E-02
 0.98250000E+02 -0.14406E-02
 0.98300003E+02 -0.18210E-03
 0.98349998E+02  0.55922E-02
 0.98400002E+02  0.86826E-02
 0.98450005E+02  0.96452E-02
 0.98500000E+02  0.94835E-02
 0.98550003E+02  0.64779E-02
 0.98599998E+02  0.46180E-03
 0.98650002E+02 -0.29446E-02
 0.98700005E+02 -0.55610E-02
 0.98750000E+02 -0.68139E-02
 0.98800003E+02 -0.36327E-02
 0.98849998E+02 -0.36651E-03
 0.98900002E+02  0.43904E-02
 0.98950005E+02  0.97357E-02
 0.99000000E+02  0.16308E-01
 0.99050003E+02  0.20998E-01
 0.99099998E+02  0.22333E-01
 0.99150002E+02  0.20591E-01
 0.99200005E+02  0.16378E-01
 0.99250000E+02  0.10885E-01
 0.99300003E+02  0.27488E-02
 0.99349998E+02 -0.49050E-02
 0.99400002E+02 -0.10387E-01
 0.99450005E+02 -0.11474E-01
 0.99500000E+02 -0.81307E-02
 0.99550003E+02 -0.29767E-02
 0.99599998E+02 -0.41746E-02
 0.99650002E+02 -0.75622E-02
 0.99700005E+02 -0.11475E-01
 0.99750000E+02 -0.19439E-01
 0.99800003E+02 -0.26676E-01
 0.99849998E+02 -0.35883E-01
 0.99900002E+02 -0.43186E-01
 0.99950005E+02 -0.44563E-01
 0.10000000E+03 -0.41187E-01
 0.10005000E+03 -0.33642E-01
 0.10010000E+03 -0.21003E-01
 0.10015000E+03 -0.79957E-02
 0.10020000E+03  0.94639E-03
 0.10025000E+03  0.74867E-02
 0.10030000E+03  0.13506E-01
 0.10035000E+03  0.14896E-01
 0.10040000E+03  0.14216E-01
 0.10045000E+03  0.15307E-01
 0.10050000E+03  0.15163E-01
 0.10055000E+03  0.13634E-01
 0.10060000E+03  0.10578E-01
 0.10065000E+03  0.70946E-02
 0.10070000E+03  0.63245E-02
 0.10075000E+03  0.77030E-02
 0.10080000E+03  0.89037E-02
 0.10085000E+03  0.12457E-01
 0.10090000E+03  0.15475E-01
 0.10095000E+03  0.15899E-01
 0.10100000E+03  0.13692E-01
 0.10105000E+03  0.11711E-01
 0.10110000E+03  0.71903E-02
 0.10115000E+03  0.29696E-02
 0.10120000E+03  0.22899E-02
 0.10125000E+03  0.12133E-02
 0.10130000E+03 -0.52747E-03
 0.10135000E+03 -0.21919E-02
 0.10140000E+03 -0.72008E-03
 0.10145000E+03  0.20904E-02
 0.10150000E+03  0.33040E-02
 0.10155000E+03  0.29872E-02
 0.10160000E+03  0.29394E-02
 0.10165000E+03  0.68391E-03
 0.10170000E+03  0.16748E-02
 0.10175000E+03  0.34257E-02
 0.10180000E+03  0.62414E-02
 0.10185000E+03  0.11369E-01
 0.10190000E+03  0.14556E-01
 0.10195000E+03  0.16179E-01
 0.10200000E+03  0.16315E-01
 0.10205000E+03  0.17233E-01
 0.10210000E+03  0.13867E-01
 0.10215000E+03  0.11388E-01
 0.10220000E+03  0.97713E-02
 0.10225000E+03  0.55965E-02
 0.10230000E+03  0.24271E-02
 0.10235000E+03  0.41181E-03
 0.10240000E+03 -0.45001E-02
 0.10245000E+03 -0.86900E-02
 0.10250000E+03 -0.94529E-02
 0.10255000E+03 -0.10604E-01
 0.10260000E+03 -0.97260E-02
 0.10265000E+03 -0.92637E-02
 0.10270000E+03 -0.10645E-01
 0.10275000E+03 -0.10616E-01
 0.10280000E+03 -0.74575E-02
 0.10285000E+03 -0.58807E-02
 0.10290000E+03 -0.61150E-02
 0.10295000E+03 -0.48232E-02
 0.10300000E+03 -0.66508E-02
 0.10305000E+03 -0.92345E-02
 0.10310000E+03 -0.10676E-01
 0.10315000E+03 -0.12486E-01
 0.10320000E+03 -0.13813E-01
 0.10325000E+03 -0.13563E-01
 0.10330000E+03 -0.90599E-02
 0.10335000E+03 -0.36007E-02
 0.10340000E+03  0.24178E-02
 0.10345000E+03  0.69739E-02
 0.10350000E+03  0.67925E-02
 0.10355000E+03  0.27346E-02
 0.10360000E+03 -0.19154E-02
 0.10365000E+03 -0.59134E-02
 0.10370000E+03 -0.81510E-02
 0.10375000E+03 -0.81732E-02
 0.10380000E+03 -0.84018E-02
 0.10385000E+03 -0.89328E-02
 0.10390000E+03 -0.97498E-02
 0.10395000E+03 -0.11456E-01
 0.10400000E+03 -0.92746E-02
 0.10405000E+03 -0.41361E-02
 0.10410000E+03  0.68565E-03
 0.10415000E+03  0.54297E-02
 0.10420000E+03  0.97981E-02
 0.10425000E+03  0.13279E-01
 0.10430000E+03  0.15779E-01
 0.10435000E+03  0.17811E-01
 0.10440000E+03  0.16803E-01
 0.10445000E+03  0.13459E-01
 0.10450000E+03  0.68420E-02
 0.10455000E+03  0.40159E-04
 0.10460000E+03 -0.43515E-02
 0.10465000E+03 -0.68969E-02
 0.10470000E+03 -0.52714E-02
 0.10475000E+03 -0.13981E-02
 0.10480000E+03  0.71095E-03
 0.10485000E+03  0.32175E-02
 0.10490000E+03  0.46144E-02
 0.10495000E+03  0.59175E-02
 0.10500000E+03  0.10985E-01
 0.10505000E+03  0.19032E-01
 0.10510000E+03  0.25316E-01
 0.10515000E+03  0.27304E-01
 0.10520000E+03  0.25961E-01
 0.10525000E+03  0.21593E-01
 0.10530000E+03  0.14286E-01
 0.10535000E+03  0.72017E-02
 0.10540000E+03  0.53875E-02
 0.10545000E+03  0.31902E-02
 0.10550000E+03  0.23950E-03
 0.10555000E+03 -0.35264E-03
 0.10560000E+03 -0.89339E-03
 0.10565000E+03 -0.41081E-02
 0.10570000E+03 -0.77419E-02
 0.10575000E+03 -0.10031E-01
 0.10580000E+03 -0.12965E-01
 0.10585000E+03 -0.12359E-01
 0.10590000E+03 -0.81945E-02
 0.10595000E+03 -0.35595E-02
 0.10600000E+03 -0.10128E-03
 0.10605000E+03  0.34926E-02
 0.10610000E+03  0.62846E-02
 0.10615000E+03  0.56909E-02
 0.10620000E+03  0.68814E-02
 0.10625000E+03  0.63250E-02
 0.10630000E+03  0.42551E-02
 0.10635000E+03  0.43324E-02
 0.10640000E+03  0.54954E-02
 0.10645000E+03  0.66890E-02
 0.10650000E+03  0.74635E-02
 0.10655000E+03  0.10494E-01
 0.10660000E+03  0.12168E-01
 0.10665000E+03  0.10653E-01
 0.10670000E+03  0.75865E-02
 0.10675000E+03  0.29712E-02
 0.10680000E+03 -0.31258E-02
 0.10685000E+03 -0.96481E-02
 0.10690000E+03 -0.14998E-01
 0.10695000E+03 -0.18146E-01
 0.10700000E+03 -0.19517E-01
 0.10705000E+03 -0.18269E-01
 0.10710000E+03 -0.13196E-01
 0.10715000E+03 -0.73761E-02
 0.10720000E+03 -0.26510E-02
 0.10725000E+03 -0.20972E-02
 0.10730000E+03 -0.36802E-02
 0.10735000E+03 -0.26528E-02
 0.10740000E+03 -0.20555E-02
 0.10745000E+03  0.79554E-03
 0.10750000E+03  0.56267E-02
 0.10755000E+03  0.10497E-01
 0.10760000E+03  0.13009E-01
 0.10765000E+03  0.13545E-01
 0.10770000E+03  0.12975E-01
 0.10775000E+03  0.10248E-01
 0.10780000E+03  0.59425E-02
 0.10785000E+03  0.40387E-03
 0.10790000E+03 -0.26566E-02
 0.10795000E+03 -0.70596E-02
 0.10800000E+03 -0.10883E-01
 0.10805000E+03 -0.13480E-01
 0.10810000E+03 -0.14961E-01
 0.10815000E+03 -0.14710E-01
 0.10820000E+03 -0.14070E-01
 0.10825000E+03 -0.13587E-01
 0.10830000E+03 -0.13229E-01
 0.10835000E+03 -0.11705E-01
 0.10840000E+03 -0.11916E-01
 0.10845000E+03 -0.97800E-02
 0.10850000E+03 -0.59257E-02
 0.10855000E+03 -0.14554E-02
 0.10860000E+03  0.18914E-02
 0.10865000E+03  0.60058E-02
 0.10870000E+03  0.89274E-02
 0.10875000E+03  0.76638E-02
 0.10880000E+03  0.65341E-02
 0.10885000E+03  0.38694E-02
 0.10890000E+03  0.69710E-03
 0.10895000E+03 -0.18393E-02
 0.10900000E+03 -0.28942E-02
 0.10905000E+03 -0.36323E-02
 0.10910000E+03 -0.32793E-02
 0.10915000E+03 -0.21449E-02
 0.10920000E+03 -0.29447E-02
 0.10925000E+03 -0.55865E-02
 0.10930000E+03 -0.90714E-02
 0.10935000E+03 -0.13547E-01
 0.10940000E+03 -0.16510E-01
 0.10945000E+03 -0.18531E-01
 0.10950000E+03 -0.19637E-01
 0.10955000E+03 -0.16267E-01
 0.10960000E+03 -0.99994E-02
 0.10965000E+03 -0.17907E-02
 0.10970000E+03  0.43056E-02
 0.10975000E+03  0.72334E-02
 0.10980000E+03  0.87303E-02
 0.10985000E+03  0.89940E-02
 0.10990000E+03  0.10387E-01
 0.10995000E+03  0.13949E-01
 0.11000000E+03  0.17675E-01
 0.11005000E+03  0.19888E-01
 0.11010000E+03  0.20585E-01
 0.11015000E+03  0.19504E-01
 0.11020000E+03  0.17257E-01
 0.11025000E+03  0.12834E-01
 0.11030000E+03  0.77143E-02
 0.11035000E+03  0.24581E-02
 0.11040000E+03 -0.20126E-02
 0.11045000E+03 -0.32433E-02
 0.11050000E+03 -0.34923E-02
 0.11055000E+03 -0.49125E-02
 0.11060000E+03 -0.78741E-02
 0.11065000E+03 -0.12070E-01
 0.11070000E+03 -0.15024E-01
 0.11075000E+03 -0.16876E-01
 0.11080000E+03 -0.17193E-01
 0.11085000E+03 -0.14902E-01
 0.11090000E+03 -0.11212E-01
 0.11095000E+03 -0.73996E-02
 0.11100000E+03 -0.35535E-02
 0.11105000E+03  0.86571E-03
 0.11110000E+03  0.34852E-02
 0.11115000E+03  0.30508E-02
 0.11120000E+03  0.20778E-02
 0.11125000E+03  0.20786E-02
 0.11130000E+03  0.26913E-02
 0.11135000E+03  0.25294E-02
 0.11140000E+03  0.21644E-02
 0.11145000E+03  0.37791E-02
 0.11150000E+03  0.53089E-02
 0.11155000E+03  0.55550E-02
 0.11160000E+03  0.33158E-02
 0.11165000E+03 -0.79224E-03
 0.11170000E+03 -0.47062E-02
 0.11175000E+03 -0.76065E-02
 0.11180000E+03 -0.93304E-02
 0.11185000E+03 -0.96856E-02
 0.11190000E+03 -0.76751E-02
 0.11195000E+03 -0.62528E-02
 0.11200000E+03 -0.47125E-02
 0.11205000E+03 -0.10797E-02
 0.11210000E+03  0.22844E-02
 0.11215000E+03  0.46808E-02
 0.11220000E+03  0.57927E-02
 0.11225000E+03  0.57828E-02
 0.11230000E+03  0.69719E-02
 0.11235000E+03  0.88391E-02
 0.11240000E+03  0.80241E-02
 0.11245000E+03  0.80426E-02
 0.11250000E+03  0.78331E-02
 0.11255000E+03  0.49500E-02
 0.11260000E+03  0.13262E-02
 0.11265000E+03 -0.20629E-02
 0.11270000E+03 -0.53989E-02
 0.11275000E+03 -0.87100E-02
 0.11280000E+03 -0.86543E-02
 0.11285000E+03 -0.63668E-02
 0.11290000E+03 -0.36256E-02
 0.11295000E+03  0.36900E-03
 0.11300000E+03  0.66466E-02
 0.11305000E+03  0.11957E-01
 0.11310000E+03  0.14015E-01
 0.11315000E+03  0.14849E-01
 0.11320000E+03  0.12501E-01
 0.11325000E+03  0.84765E-02
 0.11330000E+03  0.26055E-02
 0.11335000E+03 -0.33288E-02
 0.11340000E+03 -0.85564E-02
 0.11345000E+03 -0.11311E-01
 0.11350000E+03 -0.10304E-01
 0.11355000E+03 -0.76434E-02
 0.11360000E+03 -0.31174E-02
 0.11365000E+03 -0.30626E-03
 0.11370000E+03  0.30402E-02
 0.11375000E+03  0.65116E-02
 0.11380000E+03  0.93517E-02
 0.11385000E+03  0.10419E-01
 0.11390000E+03  0.96915E-02
 0.11395000E+03  0.82805E-02
 0.11400000E+03  0.67849E-02
 0.11405000E+03  0.55584E-02
 0.11410000E+03  0.34692E-02
 0.11415000E+03  0.16011E-02
 0.11420000E+03  0.57559E-03
 0.11425000E+03  0.34546E-03
 0.11430000E+03  0.37759E-03
 0.11435000E+03  0.10092E-02
 0.11440000E+03  0.26822E-02
 0.11445000E+03  0.26117E-02
 0.11450000E+03  0.13455E-02
 0.11455000E+03 -0.72885E-03
 0.11460000E+03 -0.24219E-02
 0.11465000E+03 -0.22644E-02
 0.11470000E+03 -0.94543E-03
 0.11475000E+03  0.11594E-02
 0.11480000E+03  0.24674E-02
 0.11485000E+03  0.26780E-02
 0.11490000E+03  0.13709E-02
 0.11495000E+03  0.10205E-02
 0.11500000E+03  0.23907E-03
 0.11505000E+03 -0.97683E-03
 0.11510000E+03 -0.19484E-02
 0.11515000E+03 -0.24674E-02
 0.11520000E+03 -0.27122E-02
 0.11525000E+03 -0.38280E-02
 0.11530000E+03 -0.43894E-02
 0.11535000E+03 -0.47399E-02
 0.11540000E+03 -0.70100E-02
 0.11545000E+03 -0.98651E-02
 0.11550000E+03 -0.11562E-01
 0.11555000E+03 -0.12760E-01
 0.11560000E+03 -0.12560E-01
 0.11565000E+03 -0.11059E-01
 0.11570000E+03 -0.81781E-02
 0.11575000E+03 -0.40291E-02
 0.11580000E+03  0.14827E-02
 0.11585000E+03  0.78546E-02
 0.11590000E+03  0.13882E-01
 0.11595000E+03  0.18691E-01
 0.11600000E+03  0.20455E-01
 0.11605000E+03  0.19853E-01
 0.11610000E+03  0.17797E-01
 0.11615000E+03  0.12945E-01
 0.11620000E+03  0.59391E-02
 0.11625000E+03 -0.43456E-03
 0.11630000E+03 -0.47186E-02
 0.11635000E+03 -0.69674E-02
 0.11640000E+03 -0.62036E-02
 0.11645000E+03 -0.36195E-02
 0.11650000E+03 -0.16428E-02
 0.11655000E+03 -0.14643E-02
 0.11660000E+03 -0.19972E-02
 0.11665000E+03 -0.28285E-02
 0.11670000E+03 -0.55370E-02
 0.11675000E+03 -0.91997E-02
 0.11680000E+03 -0.12801E-01
 0.11685000E+03 -0.14511E-01
 0.11690000E+03 -0.14119E-01
 0.11695000E+03 -0.11486E-01
 0.11700000E+03 -0.70319E-02
 0.11705000E+03 -0.23790E-02
 0.11710000E+03  0.22932E-02
 0.11715000E+03  0.64366E-02
 0.11720000E+03  0.96390E-02
 0.11725000E+03  0.10553E-01
 0.11730000E+03  0.10241E-01
 0.11735000E+03  0.89449E-02
 0.11740000E+03  0.68105E-02
 0.11745000E+03  0.53624E-02
 0.11750000E+03  0.36405E-02
 0.11755000E+03  0.17965E-02
 0.11760000E+03  0.59855E-03
 0.11765000E+03 -0.97998E-04
 0.11770000E+03 -0.14966E-03
 0.11775000E+03  0.11764E-03
 0.11780000E+03 -0.42072E-03
 0.11785000E+03 -0.20968E-02
 0.11790000E+03 -0.33459E-02
 0.11795000E+03 -0.29860E-02
 0.11800000E+03 -0.16681E-02
 0.11805000E+03  0.11749E-02
 0.11810000E+03  0.48985E-02
 0.11815000E+03  0.81312E-02
 0.11820000E+03  0.95874E-02
 0.11825000E+03  0.81883E-02
 0.11830000E+03  0.37348E-02
 0.11835000E+03 -0.24712E-02
 0.11840000E+03 -0.82382E-02
 0.11845000E+03 -0.12034E-01
 0.11850000E+03 -0.13185E-01
 0.11855000E+03 -0.12018E-01
 0.11860000E+03 -0.93183E-02
 0.11865000E+03 -0.67948E-02
 0.11870000E+03 -0.47882E-02
 0.11875000E+03 -0.27777E-02
 0.11880000E+03 -0.71613E-03
 0.11885000E+03  0.11038E-02
 0.11890000E+03  0.29682E-02
 0.11895000E+03  0.58083E-02
 0.11900000E+03  0.10195E-01
 0.11905000E+03  0.14257E-01
 0.11910000E+03  0.17244E-01
 0.11915000E+03  0.17467E-01
 0.11920000E+03  0.13753E-01
 0.11925000E+03  0.71230E-02
 0.11930000E+03 -0.28564E-03
 0.11935000E+03 -0.73043E-02
 0.11940000E+03 -0.12577E-01
 0.11945000E+03 -0.14552E-01
 0.11950000E+03 -0.14812E-01
 0.11955000E+03 -0.13799E-01
 0.11960000E+03 -0.11910E-01
 0.11965000E+03 -0.88210E-02
 0.11970000E+03 -0.62090E-02
 0.11975000E+03 -0.38661E-02
 0.11980000E+03 -0.28786E-02
 0.11985000E+03 -0.16078E-02
 0.11990000E+03  0.23658E-03
 0.11995000E+03  0.51109E-02
 0.12000000E+03  0.44920E-02
