 0.00000000E+00 -0.89815E-03
 0.50000001E-01 -0.13060E-02
 0.10000000E+00 -0.84074E-03
 0.15000001E+00 -0.58263E-03
 0.20000000E+00 -0.71492E-03
 0.25000000E+00 -0.33574E-03
 0.30000001E+00  0.48611E-03
 0.34999999E+00 -0.14743E-03
 0.40000001E+00  0.77732E-04
 0.45000002E+00  0.80361E-03
 0.50000000E+00  0.90380E-03
 0.55000001E+00  0.94795E-03
 0.60000002E+00  0.13590E-02
 0.65000004E+00  0.12845E-02
 0.69999999E+00  0.17745E-02
 0.75000000E+00  0.18999E-02
 0.80000001E+00  0.18911E-02
 0.85000002E+00  0.20871E-02
 0.90000004E+00  0.15957E-02
 0.94999999E+00  0.20245E-02
 0.10000000E+01  0.20536E-02
 0.10500001E+01  0.17743E-02
 0.11000000E+01  0.22790E-02
 0.11500000E+01  0.15281E-02
 0.12000000E+01  0.10765E-02
 0.12500000E+01  0.13515E-02
 0.13000001E+01  0.10112E-02
 0.13500000E+01  0.10483E-02
 0.14000000E+01  0.37832E-03
 0.14500000E+01  0.63343E-04
 0.15000000E+01 -0.22828E-04
 0.15500001E+01  0.18462E-03
 0.16000000E+01 -0.18021E-04
 0.16500000E+01 -0.34384E-03
 0.17000000E+01  0.10280E-03
 0.17500000E+01  0.27567E-03
 0.18000001E+01  0.92787E-03
 0.18500000E+01  0.12629E-02
 0.19000000E+01  0.12338E-02
 0.19500000E+01  0.19530E-02
 0.20000000E+01  0.10709E-02
 0.20500000E+01  0.81863E-03
 0.21000001E+01  0.11811E-02
 0.21500001E+01  0.47404E-03
 0.22000000E+01  0.11341E-03
 0.22500000E+01 -0.57976E-04
 0.23000000E+01 -0.22041E-03
 0.23500001E+01 -0.37483E-03
 0.24000001E+01 -0.27310E-03
 0.24500000E+01 -0.71824E-03
 0.25000000E+01 -0.33796E-03
 0.25500000E+01 -0.22331E-03
 0.26000001E+01 -0.96549E-03
 0.26500001E+01 -0.99201E-03
 0.27000000E+01 -0.38380E-03
 0.27500000E+01 -0.10927E-02
 0.28000000E+01 -0.63369E-03
 0.28500001E+01 -0.10979E-02
 0.29000001E+01 -0.80611E-03
 0.29500000E+01 -0.14402E-03
 0.30000000E+01 -0.54520E-03
 0.30500000E+01  0.21261E-03
 0.31000001E+01 -0.18862E-03
 0.31500001E+01  0.47762E-04
 0.32000000E+01 -0.71900E-04
 0.32500000E+01 -0.58854E-03
 0.33000000E+01 -0.58912E-03
 0.33500001E+01 -0.61145E-03
 0.34000001E+01 -0.34752E-03
 0.34500000E+01 -0.39677E-03
 0.35000000E+01  0.28357E-04
 0.35500000E+01  0.30015E-03
 0.36000001E+01  0.28082E-03
 0.36500001E+01  0.59847E-03
 0.37000000E+01  0.19102E-03
 0.37500000E+01  0.10321E-02
 0.38000000E+01  0.73485E-03
 0.38500001E+01  0.45815E-03
 0.39000001E+01  0.74470E-04
 0.39500000E+01  0.26945E-03
 0.40000000E+01  0.90693E-03
 0.40500002E+01  0.64856E-03
 0.40999999E+01  0.79847E-03
 0.41500001E+01  0.17975E-02
 0.42000003E+01  0.24139E-02
 0.42500000E+01  0.17583E-02
 0.43000002E+01  0.19470E-02
 0.43499999E+01  0.13774E-02
 0.44000001E+01  0.10209E-02
 0.44500003E+01 -0.75886E-05
 0.45000000E+01  0.55125E-04
 0.45500002E+01  0.30452E-03
 0.45999999E+01 -0.27034E-03
 0.46500001E+01 -0.40984E-03
 0.47000003E+01 -0.55547E-03
 0.47500000E+01  0.20520E-03
 0.48000002E+01 -0.11169E-03
 0.48499999E+01  0.79791E-03
 0.49000001E+01  0.45019E-03
 0.49500003E+01 -0.22557E-03
 0.50000000E+01  0.16563E-03
 0.50500002E+01 -0.58791E-03
 0.50999999E+01 -0.60234E-03
 0.51500001E+01 -0.13105E-02
 0.52000003E+01 -0.73408E-03
 0.52500000E+01 -0.10071E-02
 0.53000002E+01 -0.15735E-02
 0.53499999E+01 -0.16357E-02
 0.54000001E+01 -0.12118E-02
 0.54500003E+01 -0.10175E-02
 0.55000000E+01 -0.98509E-03
 0.55500002E+01 -0.62952E-03
 0.55999999E+01 -0.11327E-02
 0.56500001E+01 -0.15166E-02
 0.57000003E+01 -0.19982E-02
 0.57500000E+01 -0.15092E-02
 0.58000002E+01 -0.16008E-02
 0.58499999E+01 -0.89187E-03
 0.59000001E+01 -0.17457E-02
 0.59500003E+01 -0.19560E-02
 0.60000000E+01 -0.86493E-03
 0.60500002E+01 -0.11987E-02
 0.60999999E+01 -0.47885E-03
 0.61500001E+01 -0.61257E-03
 0.62000003E+01 -0.12658E-02
 0.62500000E+01 -0.88907E-03
 0.63000002E+01 -0.50931E-03
 0.63499999E+01 -0.55691E-03
 0.64000001E+01  0.83621E-03
 0.64500003E+01  0.20217E-02
 0.65000000E+01  0.17045E-02
 0.65500002E+01  0.23865E-02
 0.65999999E+01  0.35399E-02
 0.66500001E+01  0.33829E-02
 0.67000003E+01  0.43630E-02
 0.67500000E+01  0.53919E-02
 0.68000002E+01  0.42179E-02
 0.68499999E+01  0.45713E-02
 0.69000001E+01  0.45637E-02
 0.69500003E+01  0.44645E-02
 0.70000000E+01  0.44489E-02
 0.70500002E+01  0.43669E-02
 0.70999999E+01  0.46248E-02
 0.71500001E+01  0.38902E-02
 0.72000003E+01  0.44251E-02
 0.72500000E+01  0.41379E-02
 0.73000002E+01  0.26072E-02
 0.73499999E+01  0.20266E-02
 0.74000001E+01  0.16367E-02
 0.74500003E+01  0.83483E-03
 0.75000000E+01  0.71554E-03
 0.75500002E+01  0.22059E-03
 0.75999999E+01 -0.90682E-03
 0.76500001E+01 -0.12088E-02
 0.77000003E+01 -0.16978E-02
 0.77500000E+01 -0.20060E-02
 0.78000002E+01 -0.15471E-02
 0.78499999E+01 -0.13616E-02
 0.79000001E+01 -0.17159E-02
 0.79500003E+01 -0.13067E-02
 0.80000000E+01 -0.50190E-03
 0.80500002E+01 -0.12482E-02
 0.81000004E+01 -0.11274E-02
 0.81500006E+01 -0.62921E-03
 0.81999998E+01 -0.93136E-03
 0.82500000E+01 -0.15413E-02
 0.83000002E+01 -0.16586E-02
 0.83500004E+01 -0.20016E-02
 0.84000006E+01 -0.20947E-02
 0.84499998E+01 -0.21348E-02
 0.85000000E+01 -0.30580E-02
 0.85500002E+01 -0.28180E-02
 0.86000004E+01 -0.26917E-02
 0.86500006E+01 -0.32016E-02
 0.86999998E+01 -0.29835E-02
 0.87500000E+01 -0.26742E-02
 0.88000002E+01 -0.28713E-02
 0.88500004E+01 -0.30604E-02
 0.89000006E+01 -0.29476E-02
 0.89499998E+01 -0.29191E-02
 0.90000000E+01 -0.18413E-02
 0.90500002E+01 -0.24081E-02
 0.91000004E+01 -0.17937E-02
 0.91500006E+01 -0.62085E-03
 0.91999998E+01 -0.13560E-02
 0.92500000E+01 -0.82817E-04
 0.93000002E+01 -0.89932E-03
 0.93500004E+01 -0.48950E-03
 0.94000006E+01 -0.12747E-03
 0.94499998E+01  0.69982E-03
 0.95000000E+01  0.18761E-03
 0.95500002E+01  0.17322E-05
 0.96000004E+01  0.95885E-03
 0.96500006E+01 -0.66834E-03
 0.96999998E+01 -0.26055E-03
 0.97500000E+01  0.82517E-03
 0.98000002E+01  0.63489E-03
 0.98500004E+01  0.91750E-03
 0.99000006E+01  0.18600E-02
 0.99499998E+01  0.16032E-02
 0.10000000E+02  0.26181E-02
 0.10050000E+02  0.20408E-02
 0.10100000E+02  0.19507E-02
 0.10150001E+02  0.30392E-02
 0.10200000E+02  0.23412E-02
 0.10250000E+02  0.26363E-02
 0.10300000E+02  0.31525E-02
 0.10350000E+02  0.35757E-02
 0.10400001E+02  0.30252E-02
 0.10450000E+02  0.35309E-02
 0.10500000E+02  0.40446E-02
 0.10550000E+02  0.34339E-02
 0.10600000E+02  0.44570E-02
 0.10650001E+02  0.43940E-02
 0.10700000E+02  0.39004E-02
 0.10750000E+02  0.34097E-02
 0.10800000E+02  0.38660E-02
 0.10850000E+02  0.27550E-02
 0.10900001E+02  0.29270E-02
 0.10950000E+02  0.36464E-02
 0.11000000E+02  0.27098E-02
 0.11050000E+02  0.22631E-02
 0.11100000E+02  0.14592E-02
 0.11150001E+02  0.23206E-02
 0.11200000E+02  0.10915E-02
 0.11250000E+02  0.67442E-03
 0.11300000E+02  0.64733E-03
 0.11350000E+02 -0.28341E-03
 0.11400001E+02 -0.12567E-02
 0.11450000E+02 -0.23704E-02
 0.11500000E+02 -0.13640E-02
 0.11550000E+02 -0.24889E-02
 0.11600000E+02 -0.29411E-02
 0.11650001E+02 -0.20278E-02
 0.11700000E+02 -0.29370E-02
 0.11750000E+02 -0.25975E-02
 0.11800000E+02 -0.28396E-02
 0.11850000E+02 -0.38875E-02
 0.11900001E+02 -0.29765E-02
 0.11950000E+02 -0.19131E-02
 0.12000000E+02 -0.27667E-02
 0.12050000E+02 -0.19741E-02
 0.12100000E+02 -0.10243E-02
 0.12150001E+02 -0.16559E-02
 0.12200000E+02 -0.95339E-03
 0.12250000E+02 -0.10324E-02
 0.12300000E+02 -0.11565E-02
 0.12350000E+02 -0.48647E-04
 0.12400001E+02  0.82560E-04
 0.12450000E+02 -0.43524E-03
 0.12500000E+02  0.31844E-03
 0.12550000E+02  0.65757E-03
 0.12600000E+02  0.10701E-03
 0.12650001E+02  0.82478E-03
 0.12700000E+02  0.11544E-02
 0.12750000E+02  0.11475E-02
 0.12800000E+02  0.97334E-03
 0.12850000E+02  0.10952E-02
 0.12900001E+02  0.88806E-03
 0.12950000E+02  0.14731E-02
 0.13000000E+02  0.14714E-02
 0.13050000E+02  0.11547E-02
 0.13100000E+02  0.88478E-03
 0.13150001E+02  0.81537E-03
 0.13200000E+02  0.10509E-02
 0.13250000E+02 -0.16763E-03
 0.13300000E+02  0.50591E-03
 0.13350000E+02 -0.44258E-03
 0.13400001E+02 -0.66010E-03
 0.13450000E+02 -0.13351E-02
 0.13500000E+02 -0.12448E-02
 0.13550000E+02 -0.15554E-02
 0.13600000E+02 -0.18184E-02
 0.13650001E+02 -0.55811E-03
 0.13700000E+02 -0.16875E-02
 0.13750000E+02 -0.66214E-03
 0.13800000E+02 -0.14825E-02
 0.13850000E+02 -0.19501E-02
 0.13900001E+02 -0.96645E-03
 0.13950000E+02 -0.64871E-03
 0.14000000E+02 -0.44119E-03
 0.14050000E+02 -0.63954E-03
 0.14100000E+02 -0.48410E-03
 0.14150001E+02 -0.41731E-03
 0.14200000E+02  0.24770E-03
 0.14250000E+02  0.51121E-03
 0.14300000E+02  0.98282E-03
 0.14350000E+02  0.12373E-02
 0.14400001E+02  0.18408E-02
 0.14450000E+02  0.22711E-02
 0.14500000E+02  0.20322E-02
 0.14550000E+02  0.23725E-02
 0.14600000E+02  0.23000E-02
 0.14650001E+02  0.25686E-02
 0.14700000E+02  0.26916E-02
 0.14750000E+02  0.33460E-02
 0.14800000E+02  0.32735E-02
 0.14850000E+02  0.27498E-02
 0.14900001E+02  0.25185E-02
 0.14950000E+02  0.14931E-02
 0.15000000E+02  0.27736E-02
 0.15050000E+02  0.22759E-02
 0.15100000E+02  0.18679E-02
 0.15150001E+02  0.18675E-02
 0.15200000E+02  0.12806E-02
 0.15250000E+02  0.13891E-02
 0.15300000E+02  0.11147E-02
 0.15350000E+02  0.11944E-02
 0.15400001E+02 -0.67556E-04
 0.15450000E+02  0.40053E-03
 0.15500000E+02  0.37366E-03
 0.15550000E+02 -0.19580E-03
 0.15600000E+02 -0.68661E-03
 0.15650001E+02 -0.56940E-03
 0.15700000E+02 -0.74704E-03
 0.15750000E+02 -0.14962E-02
 0.15800000E+02 -0.13830E-02
 0.15850000E+02 -0.85791E-03
 0.15900001E+02  0.14655E-03
 0.15950000E+02 -0.70005E-03
 0.16000000E+02  0.20290E-04
 0.16050001E+02 -0.62640E-03
 0.16100000E+02 -0.52648E-03
 0.16150000E+02  0.45849E-03
 0.16200001E+02 -0.27405E-03
 0.16250000E+02  0.94258E-03
 0.16300001E+02  0.85210E-03
 0.16350000E+02  0.66466E-03
 0.16400000E+02  0.80031E-05
 0.16450001E+02  0.54428E-03
 0.16500000E+02  0.15799E-02
 0.16550001E+02  0.10666E-02
 0.16600000E+02  0.80070E-03
 0.16650000E+02  0.99520E-03
 0.16700001E+02  0.54249E-03
 0.16750000E+02  0.14827E-03
 0.16800001E+02  0.16630E-03
 0.16850000E+02  0.27615E-03
 0.16900000E+02  0.44709E-03
 0.16950001E+02 -0.92112E-04
 0.17000000E+02  0.59498E-03
 0.17050001E+02  0.26369E-03
 0.17100000E+02  0.52149E-03
 0.17150000E+02  0.11816E-02
 0.17200001E+02  0.70352E-03
 0.17250000E+02  0.88199E-03
 0.17300001E+02  0.96462E-03
 0.17350000E+02  0.10256E-02
 0.17400000E+02  0.44564E-03
 0.17450001E+02  0.49631E-03
 0.17500000E+02  0.91452E-04
 0.17550001E+02 -0.21110E-03
 0.17600000E+02  0.34811E-03
 0.17650000E+02 -0.68773E-03
 0.17700001E+02 -0.39852E-03
 0.17750000E+02 -0.72240E-03
 0.17800001E+02 -0.13654E-02
 0.17850000E+02 -0.14444E-02
 0.17900000E+02 -0.12485E-02
 0.17950001E+02 -0.64019E-03
 0.18000000E+02 -0.79906E-03
 0.18050001E+02 -0.89898E-03
 0.18100000E+02 -0.18233E-02
 0.18150000E+02 -0.13826E-02
 0.18200001E+02 -0.54490E-03
 0.18250000E+02 -0.55845E-03
 0.18300001E+02 -0.90675E-04
 0.18350000E+02 -0.65623E-04
 0.18400000E+02 -0.21453E-03
 0.18450001E+02  0.10767E-03
 0.18500000E+02  0.26797E-03
 0.18550001E+02  0.43083E-04
 0.18600000E+02  0.28224E-03
 0.18650000E+02  0.94159E-03
 0.18700001E+02  0.11891E-02
 0.18750000E+02  0.14907E-02
 0.18800001E+02  0.17830E-02
 0.18850000E+02  0.11194E-02
 0.18900000E+02  0.10649E-02
 0.18950001E+02  0.16835E-02
 0.19000000E+02  0.12757E-02
 0.19050001E+02  0.19845E-02
 0.19100000E+02  0.18890E-02
 0.19150000E+02  0.20309E-02
 0.19200001E+02  0.25550E-02
 0.19250000E+02  0.21306E-02
 0.19300001E+02  0.23812E-02
 0.19350000E+02  0.15882E-02
 0.19400000E+02  0.17326E-02
 0.19450001E+02  0.16876E-02
 0.19500000E+02  0.13516E-02
 0.19550001E+02  0.14294E-02
 0.19600000E+02  0.15783E-02
 0.19650000E+02  0.13434E-02
 0.19700001E+02  0.15495E-02
 0.19750000E+02  0.17780E-02
 0.19800001E+02  0.76882E-03
 0.19850000E+02  0.90496E-03
 0.19900000E+02 -0.18992E-03
 0.19950001E+02  0.44599E-03
 0.20000000E+02  0.38192E-03
 0.20050001E+02 -0.34225E-03
 0.20100000E+02 -0.83898E-03
 0.20150000E+02 -0.21496E-02
 0.20200001E+02 -0.19107E-02
 0.20250000E+02 -0.32765E-02
 0.20300001E+02 -0.27411E-02
 0.20350000E+02 -0.28687E-02
 0.20400000E+02 -0.27882E-02
 0.20450001E+02 -0.14492E-02
 0.20500000E+02 -0.20287E-02
 0.20550001E+02 -0.15617E-02
 0.20600000E+02 -0.14863E-02
 0.20650000E+02 -0.17375E-02
 0.20700001E+02 -0.16592E-02
 0.20750000E+02 -0.13657E-02
 0.20800001E+02 -0.10566E-02
 0.20850000E+02 -0.13790E-02
 0.20900000E+02 -0.10387E-02
 0.20950001E+02 -0.70887E-03
 0.21000000E+02 -0.90780E-03
 0.21050001E+02 -0.76830E-03
 0.21100000E+02 -0.33644E-03
 0.21150000E+02 -0.95024E-05
 0.21200001E+02  0.91617E-03
 0.21250000E+02  0.55121E-03
 0.21300001E+02  0.16448E-02
 0.21350000E+02  0.49125E-03
 0.21400000E+02  0.16189E-02
 0.21450001E+02  0.36562E-02
 0.21500000E+02  0.15336E-02
 0.21550001E+02  0.20584E-02
 0.21600000E+02  0.23951E-02
 0.21650000E+02  0.26164E-02
 0.21700001E+02  0.24578E-02
 0.21750000E+02  0.28586E-02
 0.21800001E+02  0.30496E-02
 0.21850000E+02  0.27591E-02
 0.21900000E+02  0.30266E-02
 0.21950001E+02  0.31348E-02
 0.22000000E+02  0.32179E-02
 0.22050001E+02  0.37022E-02
 0.22100000E+02  0.26965E-02
 0.22150000E+02  0.26791E-02
 0.22200001E+02  0.23884E-02
 0.22250000E+02  0.32796E-02
 0.22300001E+02  0.28777E-02
 0.22350000E+02  0.18392E-02
 0.22400000E+02  0.10519E-02
 0.22450001E+02  0.35724E-03
 0.22500000E+02  0.16577E-03
 0.22550001E+02  0.18501E-02
 0.22600000E+02  0.21643E-02
 0.22650000E+02 -0.13218E-02
 0.22700001E+02 -0.37703E-03
 0.22750000E+02 -0.12501E-03
 0.22800001E+02 -0.39711E-03
 0.22850000E+02  0.19237E-03
 0.22900000E+02  0.13593E-02
 0.22950001E+02 -0.58741E-03
 0.23000000E+02 -0.70695E-03
 0.23050001E+02 -0.77631E-03
 0.23100000E+02 -0.16034E-02
 0.23150000E+02  0.11963E-03
 0.23200001E+02 -0.54190E-03
 0.23250000E+02 -0.17308E-02
 0.23300001E+02 -0.25991E-02
 0.23350000E+02 -0.31242E-02
 0.23400000E+02 -0.26350E-02
 0.23450001E+02 -0.23646E-02
 0.23500000E+02 -0.32966E-02
 0.23550001E+02 -0.32007E-02
 0.23600000E+02 -0.32850E-02
 0.23650000E+02 -0.40672E-02
 0.23700001E+02 -0.45505E-02
 0.23750000E+02 -0.37302E-02
 0.23800001E+02 -0.40610E-02
 0.23850000E+02 -0.38032E-02
 0.23900000E+02 -0.33295E-02
 0.23950001E+02 -0.35986E-02
 0.24000000E+02 -0.28383E-02
 0.24050001E+02 -0.28687E-02
 0.24100000E+02 -0.31137E-02
 0.24150000E+02 -0.29729E-02
 0.24200001E+02 -0.11710E-02
 0.24250000E+02 -0.14500E-02
 0.24300001E+02 -0.16550E-02
 0.24350000E+02 -0.10872E-02
 0.24400000E+02 -0.73768E-03
 0.24450001E+02 -0.31570E-03
 0.24500000E+02 -0.31868E-04
 0.24550001E+02  0.13139E-02
 0.24600000E+02  0.11043E-02
 0.24650000E+02  0.16515E-02
 0.24700001E+02  0.17667E-02
 0.24750000E+02  0.26088E-02
 0.24800001E+02  0.33255E-02
 0.24850000E+02  0.40043E-02
 0.24900000E+02  0.47823E-02
 0.24950001E+02  0.49369E-02
 0.25000000E+02  0.52590E-02
 0.25050001E+02  0.52215E-02
 0.25100000E+02  0.55923E-02
 0.25150000E+02  0.48780E-02
 0.25200001E+02  0.57305E-02
 0.25250000E+02  0.49149E-02
 0.25300001E+02  0.42865E-02
 0.25350000E+02  0.42869E-02
 0.25400000E+02  0.29810E-02
 0.25450001E+02  0.28524E-02
 0.25500000E+02  0.22355E-02
 0.25550001E+02  0.23192E-02
 0.25600000E+02  0.18614E-02
 0.25650000E+02  0.15527E-02
 0.25700001E+02  0.15648E-02
 0.25750000E+02  0.29069E-03
 0.25800001E+02  0.78005E-03
 0.25850000E+02  0.21042E-03
 0.25900000E+02  0.92646E-03
 0.25950001E+02  0.91228E-03
 0.26000000E+02  0.11344E-02
 0.26050001E+02  0.10929E-02
 0.26100000E+02  0.78286E-04
 0.26150000E+02  0.38625E-03
 0.26200001E+02  0.31019E-03
 0.26250000E+02  0.40882E-03
 0.26300001E+02 -0.17480E-03
 0.26350000E+02  0.31924E-03
 0.26400000E+02 -0.49226E-03
 0.26450001E+02 -0.49371E-03
 0.26500000E+02 -0.10512E-02
 0.26550001E+02 -0.11664E-02
 0.26600000E+02 -0.10449E-02
 0.26650000E+02 -0.53936E-03
 0.26700001E+02 -0.56993E-03
 0.26750000E+02 -0.11086E-02
 0.26800001E+02 -0.98082E-03
 0.26850000E+02 -0.20257E-02
 0.26900000E+02 -0.19976E-02
 0.26950001E+02 -0.16358E-02
 0.27000000E+02 -0.10802E-02
 0.27050001E+02 -0.11297E-02
 0.27100000E+02 -0.29734E-03
 0.27150000E+02 -0.13028E-02
 0.27200001E+02 -0.14356E-02
 0.27250000E+02 -0.11761E-02
 0.27300001E+02 -0.18614E-02
 0.27350000E+02 -0.23577E-03
 0.27400000E+02 -0.10531E-02
 0.27450001E+02 -0.36199E-03
 0.27500000E+02 -0.10343E-02
 0.27550001E+02 -0.96016E-03
 0.27600000E+02 -0.33711E-03
 0.27650000E+02 -0.13901E-02
 0.27700001E+02 -0.79896E-03
 0.27750000E+02 -0.18523E-02
 0.27800001E+02 -0.14154E-02
 0.27850000E+02 -0.24812E-02
 0.27900000E+02 -0.30467E-02
 0.27950001E+02 -0.31502E-02
 0.28000000E+02 -0.34551E-02
 0.28050001E+02 -0.29068E-02
 0.28100000E+02 -0.38181E-02
 0.28150000E+02 -0.35623E-02
 0.28200001E+02 -0.31373E-02
 0.28250000E+02 -0.26263E-02
 0.28300001E+02 -0.25096E-02
 0.28350000E+02 -0.23278E-02
 0.28400000E+02 -0.19238E-02
 0.28450001E+02 -0.10875E-02
 0.28500000E+02 -0.95098E-03
 0.28550001E+02 -0.21138E-04
 0.28600000E+02  0.10116E-02
 0.28650000E+02  0.71162E-03
 0.28700001E+02  0.10707E-02
 0.28750000E+02  0.19113E-02
 0.28800001E+02  0.22122E-02
 0.28850000E+02  0.22344E-02
 0.28900000E+02  0.34122E-02
 0.28950001E+02  0.33807E-02
 0.29000000E+02  0.33200E-02
 0.29050001E+02  0.43576E-02
 0.29100000E+02  0.47491E-02
 0.29150000E+02  0.48786E-02
 0.29200001E+02  0.53245E-02
 0.29250000E+02  0.50117E-02
 0.29300001E+02  0.54025E-02
 0.29350000E+02  0.62402E-02
 0.29400000E+02  0.59602E-02
 0.29450001E+02  0.53882E-02
 0.29500000E+02  0.59077E-02
 0.29550001E+02  0.51919E-02
 0.29600000E+02  0.53402E-02
 0.29650000E+02  0.54717E-02
 0.29700001E+02  0.48651E-02
 0.29750000E+02  0.50152E-02
 0.29800001E+02  0.31372E-02
 0.29850000E+02  0.27927E-02
 0.29900000E+02  0.17184E-02
 0.29950001E+02  0.14646E-02
 0.30000000E+02  0.10369E-02
 0.30050001E+02  0.81640E-03
 0.30100000E+02 -0.27292E-03
 0.30150000E+02 -0.14399E-02
 0.30200001E+02 -0.11646E-02
 0.30250000E+02 -0.24333E-02
 0.30300001E+02 -0.21350E-02
 0.30350000E+02 -0.20343E-02
 0.30400000E+02 -0.17017E-02
 0.30450001E+02 -0.30507E-02
 0.30500000E+02 -0.30820E-02
 0.30550001E+02 -0.32404E-02
 0.30600000E+02 -0.35658E-02
 0.30650000E+02 -0.25467E-02
 0.30700001E+02 -0.31917E-02
 0.30750000E+02 -0.35914E-02
 0.30800001E+02 -0.43996E-02
 0.30850000E+02 -0.41599E-02
 0.30900000E+02 -0.43680E-02
 0.30950001E+02 -0.36146E-02
 0.31000000E+02 -0.31685E-02
 0.31050001E+02 -0.28933E-02
 0.31100000E+02 -0.19774E-02
 0.31150000E+02 -0.25191E-02
 0.31200001E+02 -0.13399E-02
 0.31250000E+02 -0.11124E-02
 0.31300001E+02 -0.54650E-03
 0.31350000E+02 -0.65500E-03
 0.31400000E+02 -0.81426E-03
 0.31450001E+02 -0.53408E-03
 0.31500000E+02 -0.82816E-03
 0.31550001E+02 -0.48904E-03
 0.31600000E+02 -0.64226E-03
 0.31650000E+02  0.12088E-03
 0.31700001E+02  0.13489E-03
 0.31750000E+02  0.64664E-03
 0.31800001E+02  0.33316E-03
 0.31850000E+02 -0.39697E-03
 0.31900000E+02 -0.12776E-02
 0.31950001E+02 -0.29850E-03
 0.32000000E+02  0.22026E-02
 0.32049999E+02  0.30166E-02
 0.32100002E+02  0.47914E-02
 0.32150002E+02  0.55269E-02
 0.32200001E+02  0.61100E-02
 0.32250000E+02  0.68461E-02
 0.32299999E+02  0.83369E-02
 0.32350002E+02  0.83359E-02
 0.32400002E+02  0.78583E-02
 0.32450001E+02  0.60703E-02
 0.32500000E+02  0.48950E-02
 0.32549999E+02  0.57115E-02
 0.32600002E+02  0.45212E-02
 0.32650002E+02  0.35290E-02
 0.32700001E+02  0.15297E-02
 0.32750000E+02 -0.60766E-04
 0.32799999E+02  0.23837E-03
 0.32850002E+02  0.34365E-03
 0.32900002E+02 -0.85862E-03
 0.32950001E+02 -0.16050E-02
 0.33000000E+02 -0.59464E-03
 0.33049999E+02  0.63160E-03
 0.33100002E+02  0.22279E-02
 0.33150002E+02  0.52233E-02
 0.33200001E+02  0.61239E-02
 0.33250000E+02  0.92333E-02
 0.33299999E+02  0.12224E-01
 0.33350002E+02  0.14021E-01
 0.33400002E+02  0.14692E-01
 0.33450001E+02  0.15972E-01
 0.33500000E+02  0.13730E-01
 0.33549999E+02  0.91091E-02
 0.33600002E+02  0.56737E-02
 0.33650002E+02  0.38532E-02
 0.33700001E+02  0.83204E-02
 0.33750000E+02  0.14408E-01
 0.33799999E+02  0.19033E-01
 0.33850002E+02  0.14406E-01
 0.33900002E+02  0.58214E-02
 0.33950001E+02  0.20817E-02
 0.34000000E+02 -0.71348E-03
 0.34049999E+02 -0.49538E-02
 0.34100002E+02 -0.13098E-01
 0.34150002E+02 -0.19203E-01
 0.34200001E+02 -0.21749E-01
 0.34250000E+02 -0.11861E-01
 0.34299999E+02  0.37345E-02
 0.34350002E+02  0.27145E-03
 0.34400002E+02 -0.45647E-02
 0.34450001E+02 -0.13710E-01
 0.34500000E+02 -0.79342E-02
 0.34549999E+02 -0.22247E-02
 0.34600002E+02  0.58226E-02
 0.34650002E+02  0.17287E-01
 0.34700001E+02  0.20918E-01
 0.34750000E+02  0.31229E-01
 0.34799999E+02  0.46729E-01
 0.34850002E+02  0.43661E-01
 0.34900002E+02 -0.78299E-03
 0.34950001E+02 -0.42886E-01
 0.35000000E+02 -0.63792E-01
 0.35049999E+02 -0.65694E-01
 0.35100002E+02 -0.47090E-01
 0.35150002E+02 -0.26850E-01
 0.35200001E+02 -0.38142E-01
 0.35250000E+02 -0.49433E-01
 0.35299999E+02 -0.36983E-01
 0.35350002E+02 -0.65416E-02
 0.35400002E+02 -0.31645E-03
 0.35450001E+02 -0.27823E-02
 0.35500000E+02 -0.23000E-01
 0.35549999E+02 -0.41816E-01
 0.35600002E+02  0.26534E-01
 0.35650002E+02  0.75490E-01
 0.35700001E+02  0.49966E-01
 0.35750000E+02  0.27634E-01
 0.35799999E+02  0.29162E-01
 0.35850002E+02  0.11218E-01
 0.35900002E+02 -0.47987E-01
 0.35950001E+02 -0.58587E-01
 0.36000000E+02 -0.33341E-01
 0.36049999E+02 -0.11407E-04
 0.36100002E+02  0.41235E-01
 0.36150002E+02  0.31913E-01
 0.36200001E+02 -0.46194E-02
 0.36250000E+02 -0.28738E-01
 0.36299999E+02 -0.11959E-01
 0.36350002E+02  0.10648E-01
 0.36400002E+02 -0.37044E-03
 0.36450001E+02  0.24266E-02
 0.36500000E+02  0.10594E-01
 0.36549999E+02  0.12212E-01
 0.36600002E+02  0.83172E-02
 0.36650002E+02 -0.87952E-02
 0.36700001E+02  0.85877E-03
 0.36750000E+02  0.26301E-02
 0.36799999E+02 -0.58858E-02
 0.36850002E+02  0.26142E-02
 0.36900002E+02  0.12120E-01
 0.36950001E+02  0.55478E-01
 0.37000000E+02  0.10641E+00
 0.37049999E+02  0.71799E-01
 0.37100002E+02  0.13052E-01
 0.37150002E+02  0.81911E-02
 0.37200001E+02  0.29931E-01
 0.37250000E+02  0.92706E-02
 0.37299999E+02 -0.45188E-01
 0.37350002E+02 -0.28155E-01
 0.37400002E+02  0.30387E-01
 0.37450001E+02  0.34346E-01
 0.37500000E+02  0.15835E-01
 0.37549999E+02 -0.82746E-02
 0.37600002E+02 -0.28998E-01
 0.37650002E+02 -0.15334E-01
 0.37700001E+02  0.31528E-01
 0.37750000E+02  0.60905E-01
 0.37799999E+02  0.25284E-01
 0.37850002E+02 -0.14299E-03
 0.37900002E+02 -0.17433E-01
 0.37950001E+02 -0.11275E-01
 0.38000000E+02  0.25599E-01
 0.38049999E+02  0.24935E-01
 0.38100002E+02 -0.93017E-02
 0.38150002E+02 -0.32811E-01
 0.38200001E+02 -0.27885E-01
 0.38250000E+02 -0.21696E-01
 0.38299999E+02 -0.64926E-02
 0.38350002E+02 -0.70884E-02
 0.38400002E+02 -0.26510E-01
 0.38450001E+02 -0.22279E-01
 0.38500000E+02  0.52672E-01
 0.38549999E+02  0.10026E+00
 0.38600002E+02  0.64055E-01
 0.38650002E+02  0.34257E-01
 0.38700001E+02  0.12487E-01
 0.38750000E+02 -0.29624E-01
 0.38799999E+02 -0.84513E-01
 0.38850002E+02 -0.88978E-01
 0.38900002E+02 -0.56285E-01
 0.38950001E+02 -0.14022E-01
 0.39000000E+02  0.14754E-01
 0.39049999E+02  0.10946E-01
 0.39100002E+02 -0.20224E-01
 0.39150002E+02 -0.78890E-01
 0.39200001E+02 -0.12480E+00
 0.39250000E+02 -0.12355E+00
 0.39299999E+02 -0.44974E-01
 0.39350002E+02  0.55986E-01
 0.39400002E+02  0.10559E+00
 0.39450001E+02  0.98712E-01
 0.39500000E+02  0.75317E-01
 0.39549999E+02  0.52443E-01
 0.39600002E+02  0.15730E-01
 0.39650002E+02 -0.28894E-01
 0.39700001E+02 -0.87279E-01
 0.39750000E+02 -0.11032E+00
 0.39799999E+02 -0.35776E-01
 0.39850002E+02  0.48285E-01
 0.39900002E+02  0.96329E-01
 0.39950001E+02  0.12031E+00
 0.40000000E+02  0.88886E-01
 0.40049999E+02  0.61521E-01
 0.40100002E+02 -0.77093E-02
 0.40150002E+02 -0.10525E+00
 0.40200001E+02 -0.12853E+00
 0.40250000E+02 -0.68730E-01
 0.40299999E+02  0.35653E-01
 0.40350002E+02  0.49740E-01
 0.40400002E+02  0.12029E-01
 0.40450001E+02  0.15618E-01
 0.40500000E+02 -0.22051E-01
 0.40549999E+02 -0.54268E-01
 0.40600002E+02 -0.22662E-01
 0.40650002E+02  0.23702E-01
 0.40700001E+02  0.56032E-01
 0.40750000E+02  0.72167E-01
 0.40799999E+02  0.98844E-01
 0.40850002E+02  0.78620E-01
 0.40900002E+02  0.36703E-02
 0.40950001E+02 -0.28904E-01
 0.41000000E+02 -0.55430E-02
 0.41049999E+02 -0.20970E-01
 0.41100002E+02 -0.86783E-01
 0.41150002E+02 -0.10891E+00
 0.41200001E+02 -0.77050E-01
 0.41250000E+02 -0.72813E-01
 0.41299999E+02 -0.86470E-01
 0.41350002E+02 -0.81856E-01
 0.41400002E+02 -0.56054E-01
 0.41450001E+02 -0.40919E-01
 0.41500000E+02 -0.28019E-01
 0.41549999E+02 -0.19330E-01
 0.41600002E+02 -0.57896E-01
 0.41650002E+02 -0.36335E-01
 0.41700001E+02  0.33112E-01
 0.41750000E+02  0.67259E-01
 0.41799999E+02  0.30252E-01
 0.41850002E+02 -0.34290E-01
 0.41900002E+02 -0.68205E-01
 0.41950001E+02 -0.58404E-01
 0.42000000E+02 -0.23728E-02
 0.42049999E+02  0.49230E-01
 0.42100002E+02  0.29779E-01
 0.42150002E+02  0.11992E-01
 0.42200001E+02  0.53474E-01
 0.42250000E+02  0.68302E-01
 0.42299999E+02  0.61613E-01
 0.42350002E+02  0.61733E-01
 0.42400002E+02  0.84817E-01
 0.42450001E+02  0.71708E-01
 0.42500000E+02 -0.86373E-02
 0.42549999E+02 -0.83721E-01
 0.42600002E+02 -0.90839E-01
 0.42650002E+02 -0.30471E-02
 0.42700001E+02  0.13533E+00
 0.42750000E+02  0.22009E+00
 0.42799999E+02  0.23864E+00
 0.42850002E+02  0.19343E+00
 0.42900002E+02  0.11423E+00
 0.42950001E+02  0.84941E-02
 0.43000000E+02 -0.11794E+00
 0.43049999E+02 -0.22055E+00
 0.43100002E+02 -0.27100E+00
 0.43150002E+02 -0.22113E+00
 0.43200001E+02 -0.13479E+00
 0.43250000E+02 -0.68297E-01
 0.43299999E+02 -0.35832E-01
 0.43350002E+02  0.45117E-02
 0.43400002E+02  0.62843E-01
 0.43450001E+02  0.10248E+00
 0.43500000E+02  0.99413E-01
 0.43549999E+02  0.42965E-01
 0.43600002E+02 -0.15934E-01
 0.43650002E+02 -0.62906E-01
 0.43700001E+02 -0.10323E+00
 0.43750000E+02 -0.12301E+00
 0.43799999E+02 -0.12457E+00
 0.43850002E+02 -0.71353E-01
 0.43900002E+02 -0.96423E-05
 0.43950001E+02  0.46935E-01
 0.44000000E+02  0.81869E-01
 0.44049999E+02  0.98221E-01
 0.44100002E+02  0.87458E-01
 0.44150002E+02  0.28023E-01
 0.44200001E+02 -0.20899E-01
 0.44250000E+02 -0.90360E-01
 0.44299999E+02 -0.19844E+00
 0.44350002E+02 -0.22147E+00
 0.44400002E+02 -0.12691E+00
 0.44450001E+02  0.24549E-01
 0.44500000E+02  0.14036E+00
 0.44549999E+02  0.18164E+00
 0.44600002E+02  0.16525E+00
 0.44650002E+02  0.88156E-01
 0.44700001E+02 -0.35090E-01
 0.44750000E+02 -0.15477E+00
 0.44799999E+02 -0.16478E+00
 0.44850002E+02 -0.67441E-01
 0.44900002E+02  0.42090E-01
 0.44950001E+02  0.13261E+00
 0.45000000E+02  0.20261E+00
 0.45049999E+02  0.21571E+00
 0.45100002E+02  0.19952E+00
 0.45150002E+02  0.16611E+00
 0.45200001E+02  0.68348E-01
 0.45250000E+02 -0.40087E-01
 0.45299999E+02 -0.10826E+00
 0.45350002E+02 -0.15530E+00
 0.45400002E+02 -0.19256E+00
 0.45450001E+02 -0.17896E+00
 0.45500000E+02 -0.12932E+00
 0.45549999E+02 -0.91971E-01
 0.45600002E+02 -0.69773E-01
 0.45650002E+02 -0.36152E-01
 0.45700001E+02  0.52724E-02
 0.45750000E+02  0.61321E-01
 0.45799999E+02  0.12428E+00
 0.45850002E+02  0.14994E+00
 0.45900002E+02  0.15288E+00
 0.45950001E+02  0.13279E+00
 0.46000000E+02  0.10962E+00
 0.46049999E+02  0.68892E-01
 0.46100002E+02  0.67073E-02
 0.46150002E+02 -0.63770E-01
 0.46200001E+02 -0.16115E+00
 0.46250000E+02 -0.21928E+00
 0.46299999E+02 -0.19667E+00
 0.46350002E+02 -0.10570E+00
 0.46400002E+02 -0.50506E-02
 0.46450001E+02  0.37249E-01
 0.46500000E+02  0.13034E-01
 0.46549999E+02  0.11004E-01
 0.46600002E+02  0.56229E-01
 0.46650002E+02  0.11636E+00
 0.46700001E+02  0.13793E+00
 0.46750000E+02  0.93099E-01
 0.46799999E+02  0.34705E-01
 0.46850002E+02 -0.26691E-01
 0.46900002E+02 -0.94419E-01
 0.46950001E+02 -0.11204E+00
 0.47000000E+02 -0.46635E-01
 0.47049999E+02  0.42342E-01
 0.47100002E+02  0.99643E-01
 0.47150002E+02  0.10257E+00
 0.47200001E+02  0.62410E-01
 0.47250000E+02 -0.31888E-01
 0.47299999E+02 -0.12857E+00
 0.47350002E+02 -0.16518E+00
 0.47400002E+02 -0.11886E+00
 0.47450001E+02  0.17815E-01
 0.47500000E+02  0.13558E+00
 0.47549999E+02  0.17492E+00
 0.47600002E+02  0.13382E+00
 0.47650002E+02  0.65972E-01
 0.47700001E+02  0.23263E-01
 0.47750000E+02  0.10599E-02
 0.47799999E+02 -0.22368E-01
 0.47850002E+02 -0.77865E-01
 0.47900002E+02 -0.11952E+00
 0.47950001E+02 -0.10224E+00
 0.48000000E+02 -0.45959E-01
 0.48049999E+02  0.10642E-01
 0.48100002E+02  0.48825E-01
 0.48150002E+02  0.59760E-01
 0.48200001E+02  0.47908E-01
 0.48250000E+02  0.29921E-01
 0.48299999E+02  0.20696E-01
 0.48350002E+02  0.21177E-01
 0.48400002E+02  0.13226E-01
 0.48450001E+02 -0.64486E-02
 0.48500000E+02  0.80353E-02
 0.48549999E+02  0.20968E-01
 0.48600002E+02 -0.33159E-02
 0.48650002E+02 -0.46572E-01
 0.48700001E+02 -0.59158E-01
 0.48750000E+02 -0.16208E-01
 0.48799999E+02  0.35213E-01
 0.48850002E+02  0.46946E-01
 0.48900002E+02  0.22504E-01
 0.48950001E+02  0.67534E-02
 0.49000000E+02  0.28235E-01
 0.49049999E+02  0.60065E-01
 0.49100002E+02  0.82532E-01
 0.49150002E+02  0.78769E-01
 0.49200001E+02  0.39366E-01
 0.49250000E+02  0.31467E-01
 0.49299999E+02  0.52508E-01
 0.49350002E+02  0.27429E-01
 0.49400002E+02 -0.36984E-01
 0.49450001E+02 -0.10715E+00
 0.49500000E+02 -0.17459E+00
 0.49549999E+02 -0.18221E+00
 0.49600002E+02 -0.11501E+00
 0.49650002E+02 -0.14752E-01
 0.49700001E+02  0.26985E-01
 0.49750000E+02  0.25687E-01
 0.49799999E+02  0.50939E-01
 0.49850002E+02  0.73656E-01
 0.49900002E+02  0.54310E-01
 0.49950001E+02  0.80140E-02
 0.50000000E+02 -0.37708E-01
 0.50049999E+02 -0.92589E-01
 0.50100002E+02 -0.11374E+00
 0.50150002E+02 -0.76003E-01
 0.50200001E+02 -0.15043E-01
 0.50250000E+02  0.44214E-01
 0.50299999E+02  0.54177E-01
 0.50350002E+02  0.19003E-01
 0.50400002E+02 -0.67917E-02
 0.50450001E+02 -0.21333E-01
 0.50500000E+02 -0.32121E-01
 0.50549999E+02 -0.38012E-01
 0.50600002E+02 -0.31714E-01
 0.50650002E+02 -0.28025E-01
 0.50700001E+02 -0.15251E-02
 0.50750000E+02  0.44189E-01
 0.50799999E+02  0.82396E-01
 0.50850002E+02  0.11379E+00
 0.50900002E+02  0.12052E+00
 0.50950001E+02  0.11401E+00
 0.51000000E+02  0.79480E-01
 0.51049999E+02  0.27192E-01
 0.51100002E+02 -0.16530E-01
 0.51150002E+02 -0.33454E-01
 0.51200001E+02 -0.15257E-01
 0.51250000E+02  0.53836E-02
 0.51299999E+02  0.28188E-01
 0.51350002E+02  0.13595E-01
 0.51400002E+02 -0.46007E-01
 0.51450001E+02 -0.11212E+00
 0.51500000E+02 -0.12206E+00
 0.51549999E+02 -0.64758E-01
 0.51600002E+02 -0.23076E-01
 0.51650002E+02  0.16848E-01
 0.51700001E+02  0.54103E-01
 0.51750000E+02  0.69588E-01
 0.51799999E+02  0.50351E-01
 0.51850002E+02  0.37488E-01
 0.51900002E+02  0.39120E-01
 0.51950001E+02 -0.12909E-01
 0.52000000E+02 -0.85412E-01
 0.52049999E+02 -0.12107E+00
 0.52100002E+02 -0.11568E+00
 0.52150002E+02 -0.97890E-01
 0.52200001E+02 -0.85607E-01
 0.52250000E+02 -0.58431E-01
 0.52299999E+02 -0.87011E-02
 0.52350002E+02  0.22019E-01
 0.52400002E+02  0.22081E-01
 0.52450001E+02  0.14438E-01
 0.52500000E+02  0.10320E-01
 0.52549999E+02  0.37956E-02
 0.52600002E+02 -0.10409E-01
 0.52650002E+02 -0.86375E-02
 0.52700001E+02  0.18641E-01
 0.52750000E+02  0.42267E-01
 0.52799999E+02  0.65529E-01
 0.52850002E+02  0.11396E+00
 0.52900002E+02  0.17071E+00
 0.52950001E+02  0.21293E+00
 0.53000000E+02  0.21263E+00
 0.53049999E+02  0.14668E+00
 0.53100002E+02  0.36959E-01
 0.53150002E+02 -0.94790E-01
 0.53200001E+02 -0.19831E+00
 0.53250000E+02 -0.24541E+00
 0.53299999E+02 -0.23230E+00
 0.53350002E+02 -0.15928E+00
 0.53400002E+02 -0.67209E-01
 0.53450001E+02  0.21072E-01
 0.53500000E+02  0.85334E-01
 0.53549999E+02  0.12243E+00
 0.53600002E+02  0.15164E+00
 0.53650002E+02  0.16948E+00
 0.53700001E+02  0.16222E+00
 0.53750000E+02  0.13372E+00
 0.53799999E+02  0.98703E-01
 0.53850002E+02  0.71835E-01
 0.53900002E+02  0.35161E-02
 0.53950001E+02 -0.89720E-01
 0.54000000E+02 -0.14370E+00
 0.54049999E+02 -0.14199E+00
 0.54100002E+02 -0.86143E-01
 0.54150002E+02 -0.34054E-01
 0.54200001E+02 -0.69402E-02
 0.54250000E+02 -0.24409E-01
 0.54299999E+02 -0.41092E-01
 0.54350002E+02 -0.24564E-01
 0.54400002E+02 -0.48869E-03
 0.54450001E+02  0.42778E-01
 0.54500000E+02  0.35037E-01
 0.54549999E+02 -0.14002E-01
 0.54600002E+02 -0.33485E-01
 0.54650002E+02 -0.30003E-01
 0.54700001E+02 -0.63551E-02
 0.54750000E+02  0.13678E-01
 0.54799999E+02  0.17795E-01
 0.54850002E+02  0.11972E-01
 0.54900002E+02 -0.23707E-01
 0.54950001E+02 -0.34124E-01
 0.55000000E+02 -0.98264E-02
 0.55049999E+02  0.11799E-01
 0.55100002E+02  0.32083E-01
 0.55150002E+02  0.12804E-01
 0.55200001E+02 -0.36859E-01
 0.55250000E+02 -0.46460E-01
 0.55299999E+02 -0.32640E-02
 0.55350002E+02  0.62453E-01
 0.55400002E+02  0.12549E+00
 0.55450001E+02  0.15072E+00
 0.55500000E+02  0.14164E+00
 0.55549999E+02  0.86588E-01
 0.55600002E+02  0.24050E-01
 0.55650002E+02 -0.13157E-01
 0.55700001E+02  0.19948E-02
 0.55750000E+02  0.24641E-01
 0.55799999E+02  0.17375E-01
 0.55850002E+02  0.80824E-03
 0.55900002E+02 -0.43359E-01
 0.55950001E+02 -0.85786E-01
 0.56000000E+02 -0.13315E+00
 0.56049999E+02 -0.12133E+00
 0.56100002E+02 -0.91886E-01
 0.56150002E+02 -0.75716E-01
 0.56200001E+02 -0.22029E-01
 0.56250000E+02  0.32490E-01
 0.56299999E+02  0.10627E+00
 0.56350002E+02  0.18197E+00
 0.56400002E+02  0.21454E+00
 0.56450001E+02  0.16706E+00
 0.56500000E+02  0.63761E-01
 0.56549999E+02 -0.19777E-01
 0.56600002E+02 -0.64461E-01
 0.56650002E+02 -0.60070E-01
 0.56700001E+02 -0.31420E-01
 0.56750000E+02  0.20345E-01
 0.56799999E+02  0.79877E-01
 0.56850002E+02  0.11409E+00
 0.56900002E+02  0.92480E-01
 0.56950001E+02  0.36038E-01
 0.57000000E+02  0.22981E-01
 0.57049999E+02  0.80181E-02
 0.57100002E+02 -0.22415E-01
 0.57150002E+02 -0.79642E-01
 0.57200001E+02 -0.12660E+00
 0.57250000E+02 -0.12438E+00
 0.57299999E+02 -0.71842E-01
 0.57350002E+02 -0.32172E-02
 0.57400002E+02  0.23046E-01
 0.57450001E+02  0.15935E-01
 0.57500000E+02 -0.37416E-01
 0.57549999E+02 -0.56083E-01
 0.57600002E+02 -0.77079E-01
 0.57650002E+02 -0.13560E+00
 0.57700001E+02 -0.25621E+00
 0.57750000E+02 -0.39703E+00
 0.57799999E+02 -0.37008E+00
 0.57850002E+02 -0.15812E+00
 0.57900002E+02  0.13193E+00
 0.57950001E+02  0.36180E+00
 0.58000000E+02  0.46434E+00
 0.58049999E+02  0.42980E+00
 0.58100002E+02  0.34924E+00
 0.58150002E+02  0.25217E+00
 0.58200001E+02  0.40223E-01
 0.58250000E+02 -0.26293E+00
 0.58299999E+02 -0.49304E+00
 0.58350002E+02 -0.58348E+00
 0.58400002E+02 -0.50658E+00
 0.58450001E+02 -0.27324E+00
 0.58500000E+02 -0.24335E-01
 0.58549999E+02  0.12350E+00
 0.58600002E+02  0.17651E+00
 0.58650002E+02  0.13170E+00
 0.58700001E+02 -0.46421E-01
 0.58750000E+02 -0.23204E+00
 0.58799999E+02 -0.35350E+00
 0.58850002E+02 -0.39747E+00
 0.58900002E+02 -0.31197E+00
 0.58950001E+02 -0.10492E+00
 0.59000000E+02  0.19106E+00
 0.59049999E+02  0.54378E+00
 0.59100002E+02  0.86439E+00
 0.59150002E+02  0.10000E+01
 0.59200001E+02  0.91798E+00
 0.59250000E+02  0.63236E+00
 0.59299999E+02  0.12335E+00
 0.59350002E+02 -0.38197E+00
 0.59400002E+02 -0.60369E+00
 0.59450001E+02 -0.61452E+00
 0.59500000E+02 -0.48279E+00
 0.59549999E+02 -0.20160E+00
 0.59600002E+02  0.42340E-01
 0.59650002E+02  0.12624E+00
 0.59700001E+02  0.11208E+00
 0.59750000E+02  0.13121E+00
 0.59799999E+02  0.23133E+00
 0.59850002E+02  0.27529E+00
 0.59900002E+02  0.10115E+00
 0.59950001E+02 -0.16513E+00
 0.60000000E+02 -0.30971E+00
 0.60049999E+02 -0.30141E+00
 0.60100002E+02 -0.23916E+00
 0.60150002E+02 -0.20628E+00
 0.60200001E+02 -0.20365E+00
 0.60250000E+02 -0.22620E+00
 0.60299999E+02 -0.16497E+00
 0.60350002E+02  0.40921E-01
 0.60400002E+02  0.21267E+00
 0.60450001E+02  0.22733E+00
 0.60500000E+02  0.17313E+00
 0.60549999E+02  0.13432E+00
 0.60600002E+02  0.11872E+00
 0.60650002E+02  0.81974E-01
 0.60700001E+02  0.31239E-01
 0.60750000E+02  0.23386E-01
 0.60799999E+02  0.11733E-01
 0.60850002E+02 -0.19839E-02
 0.60900002E+02  0.58427E-01
 0.60950001E+02  0.16932E+00
 0.61000000E+02  0.26273E+00
 0.61049999E+02  0.27666E+00
 0.61100002E+02  0.19526E+00
 0.61150002E+02  0.56367E-01
 0.61200001E+02 -0.83826E-01
 0.61250000E+02 -0.14896E+00
 0.61299999E+02 -0.14400E+00
 0.61350002E+02 -0.15280E+00
 0.61400002E+02 -0.16791E+00
 0.61450001E+02 -0.13918E+00
 0.61500000E+02 -0.25046E-01
 0.61549999E+02  0.14513E+00
 0.61600002E+02  0.25245E+00
 0.61650002E+02  0.26696E+00
 0.61700001E+02  0.26365E+00
 0.61750000E+02  0.22481E+00
 0.61799999E+02  0.14703E+00
 0.61850002E+02  0.67627E-01
 0.61900002E+02 -0.16738E-01
 0.61950001E+02 -0.12128E+00
 0.62000000E+02 -0.29640E+00
 0.62049999E+02 -0.34710E+00
 0.62100002E+02 -0.21401E+00
 0.62150002E+02 -0.53634E-01
 0.62200001E+02  0.10945E+00
 0.62250000E+02  0.25270E+00
 0.62299999E+02  0.26200E+00
 0.62350002E+02  0.52003E-01
 0.62400002E+02 -0.31845E+00
 0.62450001E+02 -0.68050E+00
 0.62500000E+02 -0.83620E+00
 0.62549999E+02 -0.80436E+00
 0.62600002E+02 -0.66072E+00
 0.62650002E+02 -0.37811E+00
 0.62700001E+02  0.15518E-01
 0.62750000E+02  0.39163E+00
 0.62799999E+02  0.66263E+00
 0.62850002E+02  0.76193E+00
 0.62900002E+02  0.59135E+00
 0.62950001E+02  0.21817E+00
 0.63000000E+02 -0.22106E+00
 0.63049999E+02 -0.60928E+00
 0.63100002E+02 -0.76094E+00
 0.63150002E+02 -0.70690E+00
 0.63200001E+02 -0.54134E+00
 0.63250000E+02 -0.21049E+00
 0.63299999E+02  0.22058E+00
 0.63350002E+02  0.62252E+00
 0.63400002E+02  0.87726E+00
 0.63450001E+02  0.97389E+00
 0.63500000E+02  0.90409E+00
 0.63549999E+02  0.62517E+00
 0.63600002E+02  0.19442E+00
 0.63650002E+02 -0.28591E+00
 0.63700001E+02 -0.61775E+00
 0.63750000E+02 -0.68102E+00
 0.63799999E+02 -0.54370E+00
 0.63850002E+02 -0.30167E+00
 0.63900002E+02 -0.60789E-01
 0.63950001E+02  0.12264E+00
 0.64000000E+02  0.28295E+00
 0.64050003E+02  0.40104E+00
 0.64099998E+02  0.39663E+00
 0.64150002E+02  0.26571E+00
 0.64200005E+02  0.11769E+00
 0.64250000E+02  0.20100E-01
 0.64300003E+02 -0.78339E-01
 0.64349998E+02 -0.17964E+00
 0.64400002E+02 -0.20919E+00
 0.64450005E+02 -0.12725E+00
 0.64500000E+02  0.30701E-01
 0.64550003E+02  0.17936E+00
 0.64599998E+02  0.19331E+00
 0.64650002E+02  0.36519E-01
 0.64700005E+02 -0.14823E+00
 0.64750000E+02 -0.22550E+00
 0.64800003E+02 -0.16695E+00
 0.64849998E+02 -0.13829E+00
 0.64900002E+02 -0.25132E+00
 0.64950005E+02 -0.38271E+00
 0.65000000E+02 -0.40163E+00
 0.65050003E+02 -0.24434E+00
 0.65099998E+02  0.10689E-01
 0.65150002E+02  0.20762E+00
 0.65200005E+02  0.28872E+00
 0.65250000E+02  0.26454E+00
 0.65300003E+02  0.17266E+00
 0.65349998E+02  0.99213E-01
 0.65400002E+02 -0.20677E-02
 0.65450005E+02 -0.18158E+00
 0.65500000E+02 -0.37987E+00
 0.65550003E+02 -0.51718E+00
 0.65599998E+02 -0.57871E+00
 0.65650002E+02 -0.56472E+00
 0.65700005E+02 -0.40818E+00
 0.65750000E+02 -0.14489E+00
 0.65800003E+02  0.94875E-01
 0.65849998E+02  0.20443E+00
 0.65900002E+02  0.20645E+00
 0.65950005E+02  0.12619E+00
 0.66000000E+02  0.14524E-01
 0.66050003E+02 -0.80310E-01
 0.66099998E+02 -0.17036E+00
 0.66150002E+02 -0.26034E+00
 0.66200005E+02 -0.32053E+00
 0.66250000E+02 -0.29013E+00
 0.66300003E+02 -0.14228E+00
 0.66349998E+02  0.10693E+00
 0.66400002E+02  0.35922E+00
 0.66450005E+02  0.49448E+00
 0.66500000E+02  0.50816E+00
 0.66550003E+02  0.41794E+00
 0.66599998E+02  0.24540E+00
 0.66650002E+02  0.62266E-01
 0.66700005E+02 -0.11163E+00
 0.66750000E+02 -0.26032E+00
 0.66800003E+02 -0.35124E+00
 0.66849998E+02 -0.35995E+00
 0.66900002E+02 -0.31323E+00
 0.66950005E+02 -0.15933E+00
 0.67000000E+02  0.12146E+00
 0.67050003E+02  0.38128E+00
 0.67099998E+02  0.50994E+00
 0.67150002E+02  0.51216E+00
 0.67200005E+02  0.46363E+00
 0.67250000E+02  0.38410E+00
 0.67300003E+02  0.25266E+00
 0.67349998E+02  0.11992E+00
 0.67400002E+02  0.46110E-01
 0.67450005E+02  0.17036E-01
 0.67500000E+02 -0.42966E-01
 0.67550003E+02 -0.12090E+00
 0.67599998E+02 -0.88166E-01
 0.67650002E+02  0.90999E-01
 0.67700005E+02  0.33361E+00
 0.67750000E+02  0.51119E+00
 0.67800003E+02  0.50410E+00
 0.67849998E+02  0.33642E+00
 0.67900002E+02  0.12648E+00
 0.67950005E+02 -0.75594E-01
 0.68000000E+02 -0.26729E+00
 0.68050003E+02 -0.40822E+00
 0.68099998E+02 -0.46918E+00
 0.68150002E+02 -0.45491E+00
 0.68200005E+02 -0.39846E+00
 0.68250000E+02 -0.36663E+00
 0.68300003E+02 -0.37440E+00
 0.68349998E+02 -0.39805E+00
 0.68400002E+02 -0.38717E+00
 0.68450005E+02 -0.30945E+00
 0.68500000E+02 -0.14809E+00
 0.68550003E+02  0.73948E-01
 0.68599998E+02  0.26653E+00
 0.68650002E+02  0.36883E+00
 0.68700005E+02  0.38499E+00
 0.68750000E+02  0.34293E+00
 0.68800003E+02  0.29511E+00
 0.68849998E+02  0.27739E+00
 0.68900002E+02  0.25256E+00
 0.68950005E+02  0.24779E+00
 0.69000000E+02  0.28141E+00
 0.69050003E+02  0.33447E+00
 0.69099998E+02  0.36652E+00
 0.69150002E+02  0.31142E+00
 0.69200005E+02  0.16788E+00
 0.69250000E+02 -0.22627E-01
 0.69300003E+02 -0.17053E+00
 0.69349998E+02 -0.21758E+00
 0.69400002E+02 -0.21484E+00
 0.69450005E+02 -0.16586E+00
 0.69500000E+02 -0.46607E-01
 0.69550003E+02  0.96776E-01
 0.69599998E+02  0.24015E+00
 0.69650002E+02  0.34280E+00
 0.69700005E+02  0.29084E+00
 0.69750000E+02  0.52021E-01
 0.69800003E+02 -0.25198E+00
 0.69849998E+02 -0.47406E+00
 0.69900002E+02 -0.55408E+00
 0.69950005E+02 -0.52665E+00
 0.70000000E+02 -0.42644E+00
 0.70050003E+02 -0.26111E+00
 0.70099998E+02 -0.50969E-01
 0.70150002E+02  0.13022E+00
 0.70200005E+02  0.22275E+00
 0.70250000E+02  0.23133E+00
 0.70300003E+02  0.18174E+00
 0.70349998E+02  0.80896E-01
 0.70400002E+02 -0.43285E-01
 0.70450005E+02 -0.16577E+00
 0.70500000E+02 -0.28826E+00
 0.70550003E+02 -0.34647E+00
 0.70599998E+02 -0.29076E+00
 0.70650002E+02 -0.15075E+00
 0.70700005E+02  0.16081E-01
 0.70750000E+02  0.21553E+00
 0.70800003E+02  0.42057E+00
 0.70849998E+02  0.51916E+00
 0.70900002E+02  0.49116E+00
 0.70950005E+02  0.36526E+00
 0.71000000E+02  0.20199E+00
 0.71050003E+02  0.56594E-01
 0.71099998E+02 -0.20457E-01
 0.71150002E+02 -0.18953E-01
 0.71200005E+02  0.17250E-01
 0.71250000E+02  0.64885E-01
 0.71300003E+02  0.93152E-01
 0.71349998E+02  0.11869E+00
 0.71400002E+02  0.16693E+00
 0.71450005E+02  0.20724E+00
 0.71500000E+02  0.15872E+00
 0.71550003E+02  0.55497E-04
 0.71599998E+02 -0.19727E+00
 0.71650002E+02 -0.34186E+00
 0.71700005E+02 -0.39975E+00
 0.71750000E+02 -0.40260E+00
 0.71800003E+02 -0.38537E+00
 0.71849998E+02 -0.36967E+00
 0.71900002E+02 -0.36433E+00
 0.71950005E+02 -0.35017E+00
 0.72000000E+02 -0.31908E+00
 0.72050003E+02 -0.27997E+00
 0.72099998E+02 -0.21545E+00
 0.72150002E+02 -0.12717E+00
 0.72200005E+02 -0.35250E-01
 0.72250000E+02  0.29910E-01
 0.72300003E+02  0.46960E-01
 0.72349998E+02  0.51864E-01
 0.72400002E+02  0.98852E-01
 0.72450005E+02  0.18439E+00
 0.72500000E+02  0.27126E+00
 0.72550003E+02  0.31696E+00
 0.72599998E+02  0.31550E+00
 0.72650002E+02  0.29830E+00
 0.72700005E+02  0.28451E+00
 0.72750000E+02  0.25076E+00
 0.72800003E+02  0.14812E+00
 0.72849998E+02 -0.15067E-01
 0.72900002E+02 -0.18381E+00
 0.72950005E+02 -0.28606E+00
 0.73000000E+02 -0.28950E+00
 0.73050003E+02 -0.20874E+00
 0.73099998E+02 -0.68949E-01
 0.73150002E+02  0.61940E-01
 0.73200005E+02  0.11460E+00
 0.73250000E+02  0.82935E-01
 0.73300003E+02  0.18523E-01
 0.73349998E+02 -0.53723E-01
 0.73400002E+02 -0.11979E+00
 0.73450005E+02 -0.17636E+00
 0.73500000E+02 -0.24463E+00
 0.73550003E+02 -0.27790E+00
 0.73599998E+02 -0.23935E+00
 0.73650002E+02 -0.11936E+00
 0.73700005E+02  0.59276E-01
 0.73750000E+02  0.23456E+00
 0.73800003E+02  0.35069E+00
 0.73849998E+02  0.35485E+00
 0.73900002E+02  0.25236E+00
 0.73950005E+02  0.83754E-01
 0.74000000E+02 -0.86496E-01
 0.74050003E+02 -0.19438E+00
 0.74099998E+02 -0.21381E+00
 0.74150002E+02 -0.15515E+00
 0.74200005E+02 -0.54228E-01
 0.74250000E+02  0.69888E-01
 0.74300003E+02  0.20260E+00
 0.74349998E+02  0.30725E+00
 0.74400002E+02  0.33202E+00
 0.74450005E+02  0.26407E+00
 0.74500000E+02  0.12142E+00
 0.74550003E+02 -0.47437E-01
 0.74599998E+02 -0.16317E+00
 0.74650002E+02 -0.18425E+00
 0.74700005E+02 -0.12639E+00
 0.74750000E+02 -0.48493E-01
 0.74800003E+02  0.53800E-02
 0.74849998E+02  0.20899E-01
 0.74900002E+02  0.22307E-01
 0.74950005E+02  0.24945E-01
 0.75000000E+02  0.12391E-01
 0.75050003E+02 -0.13927E-01
 0.75099998E+02 -0.51940E-01
 0.75150002E+02 -0.91762E-01
 0.75200005E+02 -0.91942E-01
 0.75250000E+02 -0.27605E-01
 0.75300003E+02  0.66327E-01
 0.75349998E+02  0.15997E+00
 0.75400002E+02  0.24386E+00
 0.75450005E+02  0.30620E+00
 0.75500000E+02  0.32508E+00
 0.75550003E+02  0.26864E+00
 0.75599998E+02  0.13985E+00
 0.75650002E+02 -0.24633E-01
 0.75700005E+02 -0.18696E+00
 0.75750000E+02 -0.29324E+00
 0.75800003E+02 -0.30579E+00
 0.75849998E+02 -0.23025E+00
 0.75900002E+02 -0.10953E+00
 0.75950005E+02  0.28248E-01
 0.76000000E+02  0.15124E+00
 0.76050003E+02  0.22185E+00
 0.76099998E+02  0.22334E+00
 0.76150002E+02  0.15225E+00
 0.76200005E+02  0.48299E-01
 0.76250000E+02 -0.39584E-01
 0.76300003E+02 -0.70755E-01
 0.76349998E+02 -0.57538E-01
 0.76400002E+02 -0.34175E-01
 0.76450005E+02 -0.26764E-01
 0.76500000E+02 -0.30426E-01
 0.76550003E+02 -0.13305E-01
 0.76599998E+02  0.38126E-01
 0.76650002E+02  0.10068E+00
 0.76700005E+02  0.12852E+00
 0.76750000E+02  0.13015E+00
 0.76800003E+02  0.12645E+00
 0.76849998E+02  0.11133E+00
 0.76900002E+02  0.78602E-01
 0.76950005E+02  0.47084E-01
 0.77000000E+02  0.32418E-01
 0.77050003E+02  0.36617E-01
 0.77099998E+02  0.44227E-01
 0.77150002E+02  0.34002E-01
 0.77200005E+02 -0.33890E-02
 0.77250000E+02 -0.71175E-01
 0.77300003E+02 -0.13329E+00
 0.77349998E+02 -0.14631E+00
 0.77400002E+02 -0.10796E+00
 0.77450005E+02 -0.48419E-01
 0.77500000E+02  0.13264E-01
 0.77550003E+02  0.72238E-01
 0.77599998E+02  0.98965E-01
 0.77650002E+02  0.74959E-01
 0.77700005E+02  0.18137E-01
 0.77750000E+02 -0.50868E-01
 0.77800003E+02 -0.11064E+00
 0.77849998E+02 -0.14404E+00
 0.77900002E+02 -0.14210E+00
 0.77950005E+02 -0.11034E+00
 0.78000000E+02 -0.39462E-01
 0.78050003E+02  0.63010E-01
 0.78099998E+02  0.15376E+00
 0.78150002E+02  0.19684E+00
 0.78200005E+02  0.18751E+00
 0.78250000E+02  0.13774E+00
 0.78300003E+02  0.54844E-01
 0.78349998E+02 -0.41891E-01
 0.78400002E+02 -0.14226E+00
 0.78450005E+02 -0.22370E+00
 0.78500000E+02 -0.25797E+00
 0.78550003E+02 -0.24632E+00
 0.78599998E+02 -0.21482E+00
 0.78650002E+02 -0.18297E+00
 0.78700005E+02 -0.15507E+00
 0.78750000E+02 -0.13421E+00
 0.78800003E+02 -0.11406E+00
 0.78849998E+02 -0.97786E-01
 0.78900002E+02 -0.81687E-01
 0.78950005E+02 -0.52499E-01
 0.79000000E+02 -0.70027E-02
 0.79050003E+02  0.50355E-01
 0.79099998E+02  0.10395E+00
 0.79150002E+02  0.15082E+00
 0.79200005E+02  0.19192E+00
 0.79250000E+02  0.20674E+00
 0.79300003E+02  0.17634E+00
 0.79349998E+02  0.10571E+00
 0.79400002E+02  0.66770E-02
 0.79450005E+02 -0.83764E-01
 0.79500000E+02 -0.12305E+00
 0.79550003E+02 -0.12016E+00
 0.79599998E+02 -0.10359E+00
 0.79650002E+02 -0.10198E+00
 0.79700005E+02 -0.11583E+00
 0.79750000E+02 -0.11895E+00
 0.79800003E+02 -0.10250E+00
 0.79849998E+02 -0.93173E-01
 0.79900002E+02 -0.11234E+00
 0.79950005E+02 -0.13649E+00
 0.80000000E+02 -0.14097E+00
 0.80050003E+02 -0.11162E+00
 0.80099998E+02 -0.38313E-01
 0.80150002E+02  0.82022E-01
 0.80200005E+02  0.19599E+00
 0.80250000E+02  0.26227E+00
 0.80300003E+02  0.28080E+00
 0.80349998E+02  0.25780E+00
 0.80400002E+02  0.20587E+00
 0.80450005E+02  0.11162E+00
 0.80500000E+02 -0.65815E-02
 0.80550003E+02 -0.11499E+00
 0.80599998E+02 -0.17597E+00
 0.80650002E+02 -0.18091E+00
 0.80700005E+02 -0.13777E+00
 0.80750000E+02 -0.64531E-01
 0.80800003E+02  0.92901E-02
 0.80849998E+02  0.65561E-01
 0.80900002E+02  0.87310E-01
 0.80950005E+02  0.71430E-01
 0.81000000E+02  0.75818E-02
 0.81050003E+02 -0.98549E-01
 0.81099998E+02 -0.21772E+00
 0.81150002E+02 -0.28313E+00
 0.81200005E+02 -0.26276E+00
 0.81250000E+02 -0.17925E+00
 0.81300003E+02 -0.56279E-01
 0.81349998E+02  0.80827E-01
 0.81400002E+02  0.21489E+00
 0.81450005E+02  0.31803E+00
 0.81500000E+02  0.35131E+00
 0.81550003E+02  0.31524E+00
 0.81599998E+02  0.23432E+00
 0.81650002E+02  0.13520E+00
 0.81700005E+02  0.41908E-01
 0.81750000E+02 -0.44554E-01
 0.81800003E+02 -0.12039E+00
 0.81849998E+02 -0.18062E+00
 0.81900002E+02 -0.21413E+00
 0.81950005E+02 -0.20880E+00
 0.82000000E+02 -0.16525E+00
 0.82050003E+02 -0.92358E-01
 0.82099998E+02 -0.17569E-02
 0.82150002E+02  0.71447E-01
 0.82200005E+02  0.10156E+00
 0.82250000E+02  0.97374E-01
 0.82300003E+02  0.80252E-01
 0.82349998E+02  0.71571E-01
 0.82400002E+02  0.61565E-01
 0.82450005E+02  0.54279E-01
 0.82500000E+02  0.61852E-01
 0.82550003E+02  0.75208E-01
 0.82599998E+02  0.80534E-01
 0.82650002E+02  0.80240E-01
 0.82700005E+02  0.65843E-01
 0.82750000E+02  0.21557E-01
 0.82800003E+02 -0.55462E-01
 0.82849998E+02 -0.14559E+00
 0.82900002E+02 -0.20749E+00
 0.82950005E+02 -0.22724E+00
 0.83000000E+02 -0.19590E+00
 0.83050003E+02 -0.13417E+00
 0.83099998E+02 -0.76547E-01
 0.83150002E+02 -0.35817E-01
 0.83200005E+02  0.73646E-02
 0.83250000E+02  0.61135E-01
 0.83300003E+02  0.10463E+00
 0.83349998E+02  0.13139E+00
 0.83400002E+02  0.12698E+00
 0.83450005E+02  0.93195E-01
 0.83500000E+02  0.54366E-01
 0.83550003E+02  0.29982E-01
 0.83599998E+02  0.12124E-01
 0.83650002E+02 -0.16615E-01
 0.83700005E+02 -0.55478E-01
 0.83750000E+02 -0.88192E-01
 0.83800003E+02 -0.98326E-01
 0.83849998E+02 -0.95167E-01
 0.83900002E+02 -0.87640E-01
 0.83950005E+02 -0.66175E-01
 0.84000000E+02 -0.17241E-01
 0.84050003E+02  0.54650E-01
 0.84099998E+02  0.12537E+00
 0.84150002E+02  0.16783E+00
 0.84200005E+02  0.16472E+00
 0.84250000E+02  0.11236E+00
 0.84300003E+02  0.30548E-01
 0.84349998E+02 -0.52096E-01
 0.84400002E+02 -0.11716E+00
 0.84450005E+02 -0.16319E+00
 0.84500000E+02 -0.19781E+00
 0.84550003E+02 -0.22096E+00
 0.84599998E+02 -0.22925E+00
 0.84650002E+02 -0.20708E+00
 0.84700005E+02 -0.15623E+00
 0.84750000E+02 -0.90384E-01
 0.84800003E+02 -0.20109E-01
 0.84849998E+02  0.44080E-01
 0.84900002E+02  0.87145E-01
 0.84950005E+02  0.95329E-01
 0.85000000E+02  0.75265E-01
 0.85050003E+02  0.45596E-01
 0.85099998E+02  0.19030E-01
 0.85150002E+02  0.62859E-02
 0.85200005E+02  0.24295E-01
 0.85250000E+02  0.71455E-01
 0.85300003E+02  0.11807E+00
 0.85349998E+02  0.14714E+00
 0.85400002E+02  0.15187E+00
 0.85450005E+02  0.12547E+00
 0.85500000E+02  0.78431E-01
 0.85550003E+02  0.24608E-01
 0.85599998E+02 -0.35159E-01
 0.85650002E+02 -0.10504E+00
 0.85700005E+02 -0.16178E+00
 0.85750000E+02 -0.17983E+00
 0.85800003E+02 -0.15872E+00
 0.85849998E+02 -0.11767E+00
 0.85900002E+02 -0.69343E-01
 0.85950005E+02 -0.19573E-01
 0.86000000E+02  0.13078E-01
 0.86050003E+02  0.22196E-01
 0.86099998E+02  0.14678E-01
 0.86150002E+02 -0.27694E-04
 0.86200005E+02 -0.86102E-02
 0.86250000E+02  0.16402E-02
 0.86300003E+02  0.39806E-01
 0.86349998E+02  0.98932E-01
 0.86400002E+02  0.15834E+00
 0.86450005E+02  0.18293E+00
 0.86500000E+02  0.16330E+00
 0.86550003E+02  0.11805E+00
 0.86599998E+02  0.73180E-01
 0.86650002E+02  0.42871E-01
 0.86700005E+02  0.20316E-01
 0.86750000E+02  0.15453E-02
 0.86800003E+02 -0.58525E-02
 0.86849998E+02  0.22163E-01
 0.86900002E+02  0.69801E-01
 0.86950005E+02  0.10093E+00
 0.87000000E+02  0.90490E-01
 0.87050003E+02  0.43440E-01
 0.87099998E+02 -0.12018E-01
 0.87150002E+02 -0.54365E-01
 0.87200005E+02 -0.66055E-01
 0.87250000E+02 -0.42531E-01
 0.87300003E+02  0.79778E-02
 0.87349998E+02  0.67074E-01
 0.87400002E+02  0.12610E+00
 0.87450005E+02  0.16736E+00
 0.87500000E+02  0.17761E+00
 0.87550003E+02  0.15849E+00
 0.87599998E+02  0.11869E+00
 0.87650002E+02  0.73997E-01
 0.87700005E+02  0.37855E-01
 0.87750000E+02  0.49799E-02
 0.87800003E+02 -0.38266E-01
 0.87849998E+02 -0.80619E-01
 0.87900002E+02 -0.11182E+00
 0.87950005E+02 -0.12122E+00
 0.88000000E+02 -0.11751E+00
 0.88050003E+02 -0.12005E+00
 0.88099998E+02 -0.13326E+00
 0.88150002E+02 -0.14410E+00
 0.88200005E+02 -0.14018E+00
 0.88250000E+02 -0.12857E+00
 0.88300003E+02 -0.10759E+00
 0.88349998E+02 -0.79741E-01
 0.88400002E+02 -0.58957E-01
 0.88450005E+02 -0.56844E-01
 0.88500000E+02 -0.63054E-01
 0.88550003E+02 -0.59532E-01
 0.88599998E+02 -0.48309E-01
 0.88650002E+02 -0.41487E-01
 0.88700005E+02 -0.43119E-01
 0.88750000E+02 -0.47458E-01
 0.88800003E+02 -0.48379E-01
 0.88849998E+02 -0.48605E-01
 0.88900002E+02 -0.51429E-01
 0.88950005E+02 -0.49726E-01
 0.89000000E+02 -0.40909E-01
 0.89050003E+02 -0.22760E-01
 0.89099998E+02  0.66005E-02
 0.89150002E+02  0.30520E-01
 0.89200005E+02  0.37322E-01
 0.89250000E+02  0.30336E-01
 0.89300003E+02  0.21009E-01
 0.89349998E+02  0.18170E-01
 0.89400002E+02  0.25965E-01
 0.89450005E+02  0.39400E-01
 0.89500000E+02  0.41163E-01
 0.89550003E+02  0.25872E-01
 0.89599998E+02 -0.11508E-02
 0.89650002E+02 -0.28887E-01
 0.89700005E+02 -0.43621E-01
 0.89750000E+02 -0.39370E-01
 0.89800003E+02 -0.28695E-01
 0.89849998E+02 -0.20449E-01
 0.89900002E+02 -0.95466E-02
 0.89950005E+02  0.17653E-01
 0.90000000E+02  0.65669E-01
 0.90050003E+02  0.11468E+00
 0.90099998E+02  0.14419E+00
 0.90150002E+02  0.14907E+00
 0.90200005E+02  0.13228E+00
 0.90250000E+02  0.10700E+00
 0.90300003E+02  0.85412E-01
 0.90349998E+02  0.62288E-01
 0.90400002E+02  0.25559E-01
 0.90450005E+02 -0.23924E-01
 0.90500000E+02 -0.66049E-01
 0.90550003E+02 -0.84460E-01
 0.90599998E+02 -0.81616E-01
 0.90650002E+02 -0.66782E-01
 0.90700005E+02 -0.46322E-01
 0.90750000E+02 -0.18607E-01
 0.90800003E+02  0.28938E-01
 0.90849998E+02  0.86136E-01
 0.90900002E+02  0.13085E+00
 0.90950005E+02  0.15520E+00
 0.91000000E+02  0.16037E+00
 0.91050003E+02  0.15014E+00
 0.91099998E+02  0.12518E+00
 0.91150002E+02  0.90206E-01
 0.91200005E+02  0.49211E-01
 0.91250000E+02  0.67407E-02
 0.91300003E+02 -0.30346E-01
 0.91349998E+02 -0.48775E-01
 0.91400002E+02 -0.45286E-01
 0.91450005E+02 -0.35394E-01
 0.91500000E+02 -0.43089E-01
 0.91550003E+02 -0.77874E-01
 0.91599998E+02 -0.12375E+00
 0.91650002E+02 -0.16383E+00
 0.91700005E+02 -0.17822E+00
 0.91750000E+02 -0.16915E+00
 0.91800003E+02 -0.14802E+00
 0.91849998E+02 -0.11981E+00
 0.91900002E+02 -0.90518E-01
 0.91950005E+02 -0.64623E-01
 0.92000000E+02 -0.42506E-01
 0.92050003E+02 -0.20230E-01
 0.92099998E+02  0.16821E-02
 0.92150002E+02  0.31294E-01
 0.92200005E+02  0.68676E-01
 0.92250000E+02  0.10325E+00
 0.92300003E+02  0.11897E+00
 0.92349998E+02  0.11186E+00
 0.92400002E+02  0.92975E-01
 0.92450005E+02  0.69835E-01
 0.92500000E+02  0.48100E-01
 0.92550003E+02  0.28897E-01
 0.92599998E+02  0.13679E-01
 0.92650002E+02  0.38663E-02
 0.92700005E+02 -0.22605E-02
 0.92750000E+02 -0.49153E-02
 0.92800003E+02 -0.10177E-02
 0.92849998E+02  0.83327E-02
 0.92900002E+02  0.17589E-01
 0.92950005E+02  0.17177E-01
 0.93000000E+02 -0.18560E-02
 0.93050003E+02 -0.38557E-01
 0.93099998E+02 -0.81210E-01
 0.93150002E+02 -0.10903E+00
 0.93200005E+02 -0.11098E+00
 0.93250000E+02 -0.95857E-01
 0.93300003E+02 -0.79707E-01
 0.93349998E+02 -0.71862E-01
 0.93400002E+02 -0.66978E-01
 0.93450005E+02 -0.59680E-01
 0.93500000E+02 -0.44217E-01
 0.93550003E+02 -0.19353E-01
 0.93599998E+02  0.11581E-01
 0.93650002E+02  0.46525E-01
 0.93700005E+02  0.75067E-01
 0.93750000E+02  0.98968E-01
 0.93800003E+02  0.11621E+00
 0.93849998E+02  0.12071E+00
 0.93900002E+02  0.10292E+00
 0.93950005E+02  0.63032E-01
 0.94000000E+02  0.17793E-01
 0.94050003E+02 -0.14018E-01
 0.94099998E+02 -0.17407E-01
 0.94150002E+02 -0.53932E-03
 0.94200005E+02  0.26596E-01
 0.94250000E+02  0.51884E-01
 0.94300003E+02  0.64770E-01
 0.94349998E+02  0.64204E-01
 0.94400002E+02  0.49834E-01
 0.94450005E+02  0.26356E-01
 0.94500000E+02  0.35312E-02
 0.94550003E+02 -0.97421E-02
 0.94599998E+02 -0.77144E-02
 0.94650002E+02  0.39529E-02
 0.94700005E+02  0.13304E-01
 0.94750000E+02  0.14222E-01
 0.94800003E+02  0.58832E-02
 0.94849998E+02 -0.94909E-02
 0.94900002E+02 -0.31084E-01
 0.94950005E+02 -0.52044E-01
 0.95000000E+02 -0.64287E-01
 0.95050003E+02 -0.64690E-01
 0.95099998E+02 -0.56445E-01
 0.95150002E+02 -0.47851E-01
 0.95200005E+02 -0.42443E-01
 0.95250000E+02 -0.43646E-01
 0.95300003E+02 -0.49608E-01
 0.95349998E+02 -0.45775E-01
 0.95400002E+02 -0.30047E-01
 0.95450005E+02 -0.43230E-02
 0.95500000E+02  0.28685E-01
 0.95550003E+02  0.64171E-01
 0.95599998E+02  0.99000E-01
 0.95650002E+02  0.12462E+00
 0.95700005E+02  0.13815E+00
 0.95750000E+02  0.13809E+00
 0.95800003E+02  0.12879E+00
 0.95849998E+02  0.10945E+00
 0.95900002E+02  0.80161E-01
 0.95950005E+02  0.45881E-01
 0.96000000E+02  0.18582E-01
 0.96050003E+02  0.42672E-02
 0.96099998E+02  0.18512E-02
 0.96150002E+02  0.75308E-02
 0.96200005E+02  0.16596E-01
 0.96250000E+02  0.22694E-01
 0.96300003E+02  0.17876E-01
 0.96349998E+02  0.45178E-02
 0.96400002E+02 -0.10258E-01
 0.96450005E+02 -0.22970E-01
 0.96500000E+02 -0.40023E-01
 0.96550003E+02 -0.61742E-01
 0.96599998E+02 -0.86538E-01
 0.96650002E+02 -0.11001E+00
 0.96700005E+02 -0.12725E+00
 0.96750000E+02 -0.13416E+00
 0.96800003E+02 -0.13202E+00
 0.96849998E+02 -0.11720E+00
 0.96900002E+02 -0.85106E-01
 0.96950005E+02 -0.43769E-01
 0.97000000E+02 -0.12425E-02
 0.97050003E+02  0.35158E-01
 0.97099998E+02  0.60924E-01
 0.97150002E+02  0.72017E-01
 0.97200005E+02  0.62885E-01
 0.97250000E+02  0.38297E-01
 0.97300003E+02  0.20695E-02
 0.97349998E+02 -0.38635E-01
 0.97400002E+02 -0.72308E-01
 0.97450005E+02 -0.90349E-01
 0.97500000E+02 -0.87430E-01
 0.97550003E+02 -0.67245E-01
 0.97599998E+02 -0.35598E-01
 0.97650002E+02  0.11633E-02
 0.97700005E+02  0.34442E-01
 0.97750000E+02  0.52624E-01
 0.97800003E+02  0.50823E-01
 0.97849998E+02  0.36411E-01
 0.97900002E+02  0.27565E-01
 0.97950005E+02  0.27808E-01
 0.98000000E+02  0.37083E-01
 0.98050003E+02  0.52644E-01
 0.98099998E+02  0.67576E-01
 0.98150002E+02  0.83981E-01
 0.98200005E+02  0.10325E+00
 0.98250000E+02  0.11633E+00
 0.98300003E+02  0.11272E+00
 0.98349998E+02  0.93086E-01
 0.98400002E+02  0.58215E-01
 0.98450005E+02  0.20094E-01
 0.98500000E+02 -0.10645E-01
 0.98550003E+02 -0.30539E-01
 0.98599998E+02 -0.36954E-01
 0.98650002E+02 -0.28182E-01
 0.98700005E+02 -0.10107E-01
 0.98750000E+02  0.95134E-02
 0.98800003E+02  0.23297E-01
 0.98849998E+02  0.29253E-01
 0.98900002E+02  0.32762E-01
 0.98950005E+02  0.37112E-01
 0.99000000E+02  0.47621E-01
 0.99050003E+02  0.61146E-01
 0.99099998E+02  0.77788E-01
 0.99150002E+02  0.96055E-01
 0.99200005E+02  0.10567E+00
 0.99250000E+02  0.95622E-01
 0.99300003E+02  0.64350E-01
 0.99349998E+02  0.16750E-01
 0.99400002E+02 -0.40814E-01
 0.99450005E+02 -0.90970E-01
 0.99500000E+02 -0.11698E+00
 0.99550003E+02 -0.12011E+00
 0.99599998E+02 -0.11679E+00
 0.99650002E+02 -0.11555E+00
 0.99700005E+02 -0.11534E+00
 0.99750000E+02 -0.11686E+00
 0.99800003E+02 -0.12247E+00
 0.99849998E+02 -0.13025E+00
 0.99900002E+02 -0.12790E+00
 0.99950005E+02 -0.11111E+00
 0.10000000E+03 -0.89495E-01
 0.10005000E+03 -0.72094E-01
 0.10010000E+03 -0.61697E-01
 0.10015000E+03 -0.51593E-01
 0.10020000E+03 -0.33579E-01
 0.10025000E+03 -0.11993E-01
 0.10030000E+03  0.52509E-02
 0.10035000E+03  0.17615E-01
 0.10040000E+03  0.24301E-01
 0.10045000E+03  0.25075E-01
 0.10050000E+03  0.26639E-01
 0.10055000E+03  0.34517E-01
 0.10060000E+03  0.49381E-01
 0.10065000E+03  0.63091E-01
 0.10070000E+03  0.69082E-01
 0.10075000E+03  0.63275E-01
 0.10080000E+03  0.52816E-01
 0.10085000E+03  0.50458E-01
 0.10090000E+03  0.55812E-01
 0.10095000E+03  0.66971E-01
 0.10100000E+03  0.77329E-01
 0.10105000E+03  0.79036E-01
 0.10110000E+03  0.72177E-01
 0.10115000E+03  0.62851E-01
 0.10120000E+03  0.52858E-01
 0.10125000E+03  0.46063E-01
 0.10130000E+03  0.39753E-01
 0.10135000E+03  0.25346E-01
 0.10140000E+03  0.32690E-02
 0.10145000E+03 -0.23839E-01
 0.10150000E+03 -0.48952E-01
 0.10155000E+03 -0.61475E-01
 0.10160000E+03 -0.57895E-01
 0.10165000E+03 -0.41357E-01
 0.10170000E+03 -0.16124E-01
 0.10175000E+03  0.85213E-02
 0.10180000E+03  0.26028E-01
 0.10185000E+03  0.36080E-01
 0.10190000E+03  0.35915E-01
 0.10195000E+03  0.26040E-01
 0.10200000E+03  0.92807E-02
 0.10205000E+03 -0.12398E-01
 0.10210000E+03 -0.36755E-01
 0.10215000E+03 -0.60111E-01
 0.10220000E+03 -0.77599E-01
 0.10225000E+03 -0.85820E-01
 0.10230000E+03 -0.81273E-01
 0.10235000E+03 -0.66180E-01
 0.10240000E+03 -0.40214E-01
 0.10245000E+03 -0.85532E-02
 0.10250000E+03  0.13397E-01
 0.10255000E+03  0.17820E-01
 0.10260000E+03  0.88187E-02
 0.10265000E+03 -0.18891E-02
 0.10270000E+03 -0.12085E-01
 0.10275000E+03 -0.14181E-01
 0.10280000E+03 -0.28848E-02
 0.10285000E+03  0.15577E-01
 0.10290000E+03  0.35328E-01
 0.10295000E+03  0.53679E-01
 0.10300000E+03  0.67655E-01
 0.10305000E+03  0.73268E-01
 0.10310000E+03  0.67943E-01
 0.10315000E+03  0.52722E-01
 0.10320000E+03  0.35576E-01
 0.10325000E+03  0.19041E-01
 0.10330000E+03  0.77397E-02
 0.10335000E+03  0.28655E-02
 0.10340000E+03 -0.53902E-04
 0.10345000E+03 -0.48749E-02
 0.10350000E+03 -0.12565E-01
 0.10355000E+03 -0.24065E-01
 0.10360000E+03 -0.36180E-01
 0.10365000E+03 -0.39127E-01
 0.10370000E+03 -0.35282E-01
 0.10375000E+03 -0.31385E-01
 0.10380000E+03 -0.35107E-01
 0.10385000E+03 -0.45545E-01
 0.10390000E+03 -0.56876E-01
 0.10395000E+03 -0.64822E-01
 0.10400000E+03 -0.60830E-01
 0.10405000E+03 -0.44768E-01
 0.10410000E+03 -0.23197E-01
 0.10415000E+03 -0.44752E-02
 0.10420000E+03  0.76972E-02
 0.10425000E+03  0.10567E-01
 0.10430000E+03  0.69119E-02
 0.10435000E+03 -0.50142E-03
 0.10440000E+03 -0.40064E-02
 0.10445000E+03  0.91864E-03
 0.10450000E+03  0.10351E-01
 0.10455000E+03  0.21102E-01
 0.10460000E+03  0.27836E-01
 0.10465000E+03  0.29919E-01
 0.10470000E+03  0.25476E-01
 0.10475000E+03  0.13652E-01
 0.10480000E+03 -0.15632E-02
 0.10485000E+03 -0.13539E-01
 0.10490000E+03 -0.17339E-01
 0.10495000E+03 -0.77158E-02
 0.10500000E+03  0.14514E-01
 0.10505000E+03  0.38640E-01
 0.10510000E+03  0.56733E-01
 0.10515000E+03  0.65964E-01
 0.10520000E+03  0.67313E-01
 0.10525000E+03  0.62294E-01
 0.10530000E+03  0.50112E-01
 0.10535000E+03  0.33136E-01
 0.10540000E+03  0.15592E-01
 0.10545000E+03  0.61391E-03
 0.10550000E+03 -0.10595E-01
 0.10555000E+03 -0.21124E-01
 0.10560000E+03 -0.30267E-01
 0.10565000E+03 -0.36953E-01
 0.10570000E+03 -0.39226E-01
 0.10575000E+03 -0.33765E-01
 0.10580000E+03 -0.23575E-01
 0.10585000E+03 -0.98134E-02
 0.10590000E+03  0.14527E-02
 0.10595000E+03  0.82024E-02
 0.10600000E+03  0.87365E-02
 0.10605000E+03  0.10543E-02
 0.10610000E+03 -0.11256E-01
 0.10615000E+03 -0.27490E-01
 0.10620000E+03 -0.44326E-01
 0.10625000E+03 -0.59505E-01
 0.10630000E+03 -0.68614E-01
 0.10635000E+03 -0.71158E-01
 0.10640000E+03 -0.64699E-01
 0.10645000E+03 -0.49443E-01
 0.10650000E+03 -0.30104E-01
 0.10655000E+03 -0.51731E-02
 0.10660000E+03  0.22951E-01
 0.10665000E+03  0.49835E-01
 0.10670000E+03  0.67689E-01
 0.10675000E+03  0.70626E-01
 0.10680000E+03  0.59412E-01
 0.10685000E+03  0.39653E-01
 0.10690000E+03  0.14013E-01
 0.10695000E+03 -0.10677E-01
 0.10700000E+03 -0.27632E-01
 0.10705000E+03 -0.34527E-01
 0.10710000E+03 -0.27366E-01
 0.10715000E+03 -0.64692E-02
 0.10720000E+03  0.22013E-01
 0.10725000E+03  0.48838E-01
 0.10730000E+03  0.64486E-01
 0.10735000E+03  0.62190E-01
 0.10740000E+03  0.47190E-01
 0.10745000E+03  0.29586E-01
 0.10750000E+03  0.14300E-01
 0.10755000E+03  0.32827E-02
 0.10760000E+03 -0.29493E-02
 0.10765000E+03 -0.73095E-02
 0.10770000E+03 -0.13528E-01
 0.10775000E+03 -0.23009E-01
 0.10780000E+03 -0.35802E-01
 0.10785000E+03 -0.49593E-01
 0.10790000E+03 -0.63528E-01
 0.10795000E+03 -0.75601E-01
 0.10800000E+03 -0.83054E-01
 0.10805000E+03 -0.88256E-01
 0.10810000E+03 -0.91554E-01
 0.10815000E+03 -0.90402E-01
 0.10820000E+03 -0.81423E-01
 0.10825000E+03 -0.66143E-01
 0.10830000E+03 -0.43318E-01
 0.10835000E+03 -0.16607E-01
 0.10840000E+03  0.11469E-01
 0.10845000E+03  0.37097E-01
 0.10850000E+03  0.52547E-01
 0.10855000E+03  0.60114E-01
 0.10860000E+03  0.66022E-01
 0.10865000E+03  0.72949E-01
 0.10870000E+03  0.77179E-01
 0.10875000E+03  0.74876E-01
 0.10880000E+03  0.60996E-01
 0.10885000E+03  0.37104E-01
 0.10890000E+03  0.10593E-01
 0.10895000E+03 -0.90810E-02
 0.10900000E+03 -0.17188E-01
 0.10905000E+03 -0.15752E-01
 0.10910000E+03 -0.95186E-02
 0.10915000E+03 -0.46924E-02
 0.10920000E+03 -0.13217E-02
 0.10925000E+03 -0.10894E-02
 0.10930000E+03 -0.61410E-02
 0.10935000E+03 -0.15262E-01
 0.10940000E+03 -0.28018E-01
 0.10945000E+03 -0.38354E-01
 0.10950000E+03 -0.39070E-01
 0.10955000E+03 -0.31163E-01
 0.10960000E+03 -0.16101E-01
 0.10965000E+03  0.71900E-02
 0.10970000E+03  0.38309E-01
 0.10975000E+03  0.71455E-01
 0.10980000E+03  0.95100E-01
 0.10985000E+03  0.10620E+00
 0.10990000E+03  0.10346E+00
 0.10995000E+03  0.90066E-01
 0.11000000E+03  0.73812E-01
 0.11005000E+03  0.56460E-01
 0.11010000E+03  0.38917E-01
 0.11015000E+03  0.19886E-01
 0.11020000E+03 -0.27514E-02
 0.11025000E+03 -0.24665E-01
 0.11030000E+03 -0.39904E-01
 0.11035000E+03 -0.45320E-01
 0.11040000E+03 -0.44605E-01
 0.11045000E+03 -0.37306E-01
 0.11050000E+03 -0.21892E-01
 0.11055000E+03 -0.28453E-02
 0.11060000E+03  0.14535E-01
 0.11065000E+03  0.26784E-01
 0.11070000E+03  0.29598E-01
 0.11075000E+03  0.22008E-01
 0.11080000E+03  0.88617E-02
 0.11085000E+03 -0.70014E-02
 0.11090000E+03 -0.18926E-01
 0.11095000E+03 -0.26064E-01
 0.11100000E+03 -0.28341E-01
 0.11105000E+03 -0.25590E-01
 0.11110000E+03 -0.18727E-01
 0.11115000E+03 -0.12595E-01
 0.11120000E+03 -0.11122E-01
 0.11125000E+03 -0.13956E-01
 0.11130000E+03 -0.20858E-01
 0.11135000E+03 -0.24781E-01
 0.11140000E+03 -0.21484E-01
 0.11145000E+03 -0.11563E-01
 0.11150000E+03  0.27830E-02
 0.11155000E+03  0.17401E-01
 0.11160000E+03  0.28195E-01
 0.11165000E+03  0.29849E-01
 0.11170000E+03  0.22126E-01
 0.11175000E+03  0.71163E-02
 0.11180000E+03 -0.13289E-01
 0.11185000E+03 -0.32702E-01
 0.11190000E+03 -0.41522E-01
 0.11195000E+03 -0.37202E-01
 0.11200000E+03 -0.26668E-01
 0.11205000E+03 -0.18346E-01
 0.11210000E+03 -0.18037E-01
 0.11215000E+03 -0.21831E-01
 0.11220000E+03 -0.25726E-01
 0.11225000E+03 -0.30407E-01
 0.11230000E+03 -0.39427E-01
 0.11235000E+03 -0.51844E-01
 0.11240000E+03 -0.58369E-01
 0.11245000E+03 -0.55334E-01
 0.11250000E+03 -0.42869E-01
 0.11255000E+03 -0.24592E-01
 0.11260000E+03 -0.73340E-02
 0.11265000E+03  0.49391E-02
 0.11270000E+03  0.15399E-01
 0.11275000E+03  0.27941E-01
 0.11280000E+03  0.37810E-01
 0.11285000E+03  0.40355E-01
 0.11290000E+03  0.34031E-01
 0.11295000E+03  0.24982E-01
 0.11300000E+03  0.21126E-01
 0.11305000E+03  0.21722E-01
 0.11310000E+03  0.23494E-01
 0.11315000E+03  0.20054E-01
 0.11320000E+03  0.79737E-02
 0.11325000E+03 -0.81579E-02
 0.11330000E+03 -0.20868E-01
 0.11335000E+03 -0.26462E-01
 0.11340000E+03 -0.25146E-01
 0.11345000E+03 -0.18391E-01
 0.11350000E+03 -0.73910E-02
 0.11355000E+03  0.51547E-02
 0.11360000E+03  0.18449E-01
 0.11365000E+03  0.33661E-01
 0.11370000E+03  0.47712E-01
 0.11375000E+03  0.60134E-01
 0.11380000E+03  0.66255E-01
 0.11385000E+03  0.64911E-01
 0.11390000E+03  0.60153E-01
 0.11395000E+03  0.54526E-01
 0.11400000E+03  0.48033E-01
 0.11405000E+03  0.42873E-01
 0.11410000E+03  0.37899E-01
 0.11415000E+03  0.35625E-01
 0.11420000E+03  0.40397E-01
 0.11425000E+03  0.43117E-01
 0.11430000E+03  0.40661E-01
 0.11435000E+03  0.30327E-01
 0.11440000E+03  0.11549E-01
 0.11445000E+03 -0.14027E-01
 0.11450000E+03 -0.39935E-01
 0.11455000E+03 -0.58970E-01
 0.11460000E+03 -0.65364E-01
 0.11465000E+03 -0.54721E-01
 0.11470000E+03 -0.33014E-01
 0.11475000E+03 -0.83038E-02
 0.11480000E+03  0.12293E-01
 0.11485000E+03  0.23219E-01
 0.11490000E+03  0.27355E-01
 0.11495000E+03  0.24199E-01
 0.11500000E+03  0.12143E-01
 0.11505000E+03 -0.37700E-03
 0.11510000E+03 -0.93397E-02
 0.11515000E+03 -0.11198E-01
 0.11520000E+03 -0.51367E-02
 0.11525000E+03  0.41455E-02
 0.11530000E+03  0.11548E-01
 0.11535000E+03  0.13686E-01
 0.11540000E+03  0.10320E-01
 0.11545000E+03  0.62299E-02
 0.11550000E+03  0.39046E-02
 0.11555000E+03  0.10929E-03
 0.11560000E+03 -0.57166E-02
 0.11565000E+03 -0.93219E-02
 0.11570000E+03 -0.11288E-01
 0.11575000E+03 -0.12290E-01
 0.11580000E+03 -0.13788E-01
 0.11585000E+03 -0.17603E-01
 0.11590000E+03 -0.22331E-01
 0.11595000E+03 -0.25410E-01
 0.11600000E+03 -0.28480E-01
 0.11605000E+03 -0.30599E-01
 0.11610000E+03 -0.30316E-01
 0.11615000E+03 -0.30538E-01
 0.11620000E+03 -0.26906E-01
 0.11625000E+03 -0.23275E-01
 0.11630000E+03 -0.19604E-01
 0.11635000E+03 -0.16857E-01
 0.11640000E+03 -0.16819E-01
 0.11645000E+03 -0.17157E-01
 0.11650000E+03 -0.15382E-01
 0.11655000E+03 -0.84678E-02
 0.11660000E+03  0.43819E-03
 0.11665000E+03  0.12098E-01
 0.11670000E+03  0.25667E-01
 0.11675000E+03  0.42283E-01
 0.11680000E+03  0.56789E-01
 0.11685000E+03  0.66128E-01
 0.11690000E+03  0.68484E-01
 0.11695000E+03  0.59564E-01
 0.11700000E+03  0.43028E-01
 0.11705000E+03  0.21061E-01
 0.11710000E+03  0.20170E-02
 0.11715000E+03 -0.95162E-02
 0.11720000E+03 -0.13219E-01
 0.11725000E+03 -0.13413E-01
 0.11730000E+03 -0.97345E-02
 0.11735000E+03 -0.40860E-02
 0.11740000E+03 -0.19928E-02
 0.11745000E+03 -0.31048E-02
 0.11750000E+03 -0.75316E-02
 0.11755000E+03 -0.12467E-01
 0.11760000E+03 -0.11313E-01
 0.11765000E+03 -0.49819E-02
 0.11770000E+03  0.16690E-02
 0.11775000E+03  0.13128E-01
 0.11780000E+03  0.23129E-01
 0.11785000E+03  0.26652E-01
 0.11790000E+03  0.28084E-01
 0.11795000E+03  0.30448E-01
 0.11800000E+03  0.33046E-01
 0.11805000E+03  0.34564E-01
 0.11810000E+03  0.32561E-01
 0.11815000E+03  0.27566E-01
 0.11820000E+03  0.19846E-01
 0.11825000E+03  0.12672E-01
 0.11830000E+03  0.82247E-02
 0.11835000E+03  0.41198E-02
 0.11840000E+03  0.18923E-02
 0.11845000E+03 -0.60301E-02
 0.11850000E+03 -0.22060E-01
 0.11855000E+03 -0.41444E-01
 0.11860000E+03 -0.58846E-01
 0.11865000E+03 -0.74171E-01
 0.11870000E+03 -0.85072E-01
 0.11875000E+03 -0.90756E-01
 0.11880000E+03 -0.90866E-01
 0.11885000E+03 -0.81458E-01
 0.11890000E+03 -0.65188E-01
 0.11895000E+03 -0.44056E-01
 0.11900000E+03 -0.18279E-01
 0.11905000E+03  0.76484E-02
 0.11910000E+03  0.26925E-01
 0.11915000E+03  0.41082E-01
 0.11920000E+03  0.46886E-01
 0.11925000E+03  0.41721E-01
 0.11930000E+03  0.33183E-01
 0.11935000E+03  0.25054E-01
 0.11940000E+03  0.20966E-01
 0.11945000E+03  0.20012E-01
 0.11950000E+03  0.17456E-01
 0.11955000E+03  0.11403E-01
 0.11960000E+03  0.90587E-03
 0.11965000E+03 -0.90935E-02
 0.11970000E+03 -0.15886E-01
 0.11975000E+03 -0.15335E-01
 0.11980000E+03 -0.13157E-01
 0.11985000E+03 -0.71571E-02
 0.11990000E+03 -0.21366E-02
 0.11995000E+03  0.14148E-01
 0.12000000E+03  0.14397E-01
