 0.00000000E+00  0.88780E-03
 0.50000001E-01  0.18768E-02
 0.10000000E+00  0.20114E-02
 0.15000001E+00  0.22011E-02
 0.20000000E+00  0.21075E-02
 0.25000000E+00  0.20300E-02
 0.30000001E+00  0.16457E-02
 0.34999999E+00  0.11107E-02
 0.40000001E+00  0.46072E-03
 0.45000002E+00 -0.68108E-04
 0.50000000E+00 -0.53297E-03
 0.55000001E+00 -0.99353E-03
 0.60000002E+00 -0.12933E-02
 0.65000004E+00 -0.13850E-02
 0.69999999E+00 -0.12633E-02
 0.75000000E+00 -0.92890E-03
 0.80000001E+00 -0.39763E-03
 0.85000002E+00  0.23468E-03
 0.90000004E+00  0.85814E-03
 0.94999999E+00  0.13818E-02
 0.10000000E+01  0.18104E-02
 0.10500001E+01  0.20648E-02
 0.11000000E+01  0.21930E-02
 0.11500000E+01  0.21381E-02
 0.12000000E+01  0.18820E-02
 0.12500000E+01  0.15203E-02
 0.13000001E+01  0.11001E-02
 0.13500000E+01  0.66184E-03
 0.14000000E+01  0.24501E-03
 0.14500000E+01 -0.12103E-03
 0.15000000E+01 -0.38041E-03
 0.15500001E+01 -0.56795E-03
 0.16000000E+01 -0.69259E-03
 0.16500000E+01 -0.73979E-03
 0.17000000E+01 -0.77504E-03
 0.17500000E+01 -0.81111E-03
 0.18000001E+01 -0.90586E-03
 0.18500000E+01 -0.99264E-03
 0.19000000E+01 -0.99302E-03
 0.19500000E+01 -0.92445E-03
 0.20000000E+01 -0.89811E-03
 0.20500000E+01 -0.84568E-03
 0.21000001E+01 -0.62364E-03
 0.21500001E+01 -0.32316E-03
 0.22000000E+01 -0.56235E-04
 0.22500000E+01  0.19833E-03
 0.23000000E+01  0.43013E-03
 0.23500001E+01  0.56312E-03
 0.24000001E+01  0.66102E-03
 0.24500000E+01  0.69466E-03
 0.25000000E+01  0.57863E-03
 0.25500000E+01  0.33916E-03
 0.26000001E+01  0.62443E-05
 0.26500001E+01 -0.40574E-03
 0.27000000E+01 -0.80262E-03
 0.27500000E+01 -0.11728E-02
 0.28000000E+01 -0.14831E-02
 0.28500001E+01 -0.17012E-02
 0.29000001E+01 -0.17524E-02
 0.29500000E+01 -0.16908E-02
 0.30000000E+01 -0.15655E-02
 0.30500000E+01 -0.12181E-02
 0.31000001E+01 -0.66847E-03
 0.31500001E+01 -0.15252E-03
 0.32000000E+01  0.39393E-03
 0.32500000E+01  0.90026E-03
 0.33000000E+01  0.12303E-02
 0.33500001E+01  0.14671E-02
 0.34000001E+01  0.15444E-02
 0.34500000E+01  0.15644E-02
 0.35000000E+01  0.15068E-02
 0.35500000E+01  0.14822E-02
 0.36000001E+01  0.14718E-02
 0.36500001E+01  0.14573E-02
 0.37000000E+01  0.14759E-02
 0.37500000E+01  0.14992E-02
 0.38000000E+01  0.14609E-02
 0.38500001E+01  0.13338E-02
 0.39000001E+01  0.12049E-02
 0.39500000E+01  0.99123E-03
 0.40000000E+01  0.79924E-03
 0.40500002E+01  0.67506E-03
 0.40999999E+01  0.58564E-03
 0.41500001E+01  0.45710E-03
 0.42000003E+01  0.36034E-03
 0.42500000E+01  0.17582E-03
 0.43000002E+01 -0.56321E-04
 0.43499999E+01 -0.33669E-03
 0.44000001E+01 -0.56862E-03
 0.44500003E+01 -0.67892E-03
 0.45000000E+01 -0.77963E-03
 0.45500002E+01 -0.79071E-03
 0.45999999E+01 -0.81344E-03
 0.46500001E+01 -0.70842E-03
 0.47000003E+01 -0.60057E-03
 0.47500000E+01 -0.56673E-03
 0.48000002E+01 -0.52066E-03
 0.48499999E+01 -0.51940E-03
 0.49000001E+01 -0.46600E-03
 0.49500003E+01 -0.29061E-03
 0.50000000E+01 -0.91962E-04
 0.50500002E+01  0.11911E-03
 0.50999999E+01  0.24037E-03
 0.51500001E+01  0.27481E-03
 0.52000003E+01  0.25182E-03
 0.52500000E+01  0.11611E-03
 0.53000002E+01 -0.61133E-04
 0.53499999E+01 -0.11953E-03
 0.54000001E+01 -0.51441E-04
 0.54500003E+01  0.83196E-04
 0.55000000E+01  0.34773E-03
 0.55500002E+01  0.57648E-03
 0.55999999E+01  0.67874E-03
 0.56500001E+01  0.68594E-03
 0.57000003E+01  0.57270E-03
 0.57500000E+01  0.30445E-03
 0.58000002E+01 -0.89181E-04
 0.58499999E+01 -0.52130E-03
 0.59000001E+01 -0.86339E-03
 0.59500003E+01 -0.10703E-02
 0.60000000E+01 -0.11373E-02
 0.60500002E+01 -0.10882E-02
 0.60999999E+01 -0.88886E-03
 0.61500001E+01 -0.61326E-03
 0.62000003E+01 -0.34301E-03
 0.62500000E+01 -0.75699E-04
 0.63000002E+01  0.12344E-03
 0.63499999E+01  0.34248E-03
 0.64000001E+01  0.59737E-03
 0.64500003E+01  0.76592E-03
 0.65000000E+01  0.82807E-03
 0.65500002E+01  0.84527E-03
 0.65999999E+01  0.74462E-03
 0.66500001E+01  0.58623E-03
 0.67000003E+01  0.45474E-03
 0.67500000E+01  0.28156E-03
 0.68000002E+01  0.38715E-04
 0.68499999E+01 -0.24052E-03
 0.69000001E+01 -0.56640E-03
 0.69500003E+01 -0.84759E-03
 0.70000000E+01 -0.10394E-02
 0.70500002E+01 -0.11689E-02
 0.70999999E+01 -0.12196E-02
 0.71500001E+01 -0.11663E-02
 0.72000003E+01 -0.10146E-02
 0.72500000E+01 -0.73752E-03
 0.73000002E+01 -0.36365E-03
 0.73499999E+01  0.51618E-04
 0.74000001E+01  0.48727E-03
 0.74500003E+01  0.78889E-03
 0.75000000E+01  0.10472E-02
 0.75500002E+01  0.11797E-02
 0.75999999E+01  0.11582E-02
 0.76500001E+01  0.11029E-02
 0.77000003E+01  0.92634E-03
 0.77500000E+01  0.65963E-03
 0.78000002E+01  0.39704E-03
 0.78499999E+01  0.18518E-03
 0.79000001E+01  0.20261E-03
 0.79500003E+01  0.29231E-03
 0.80000000E+01  0.51556E-03
 0.80500002E+01  0.81574E-03
 0.81000004E+01  0.99899E-03
 0.81500006E+01  0.11277E-02
 0.81999998E+01  0.11277E-02
 0.82500000E+01  0.98269E-03
 0.83000002E+01  0.75031E-03
 0.83500004E+01  0.48278E-03
 0.84000006E+01  0.10276E-03
 0.84499998E+01 -0.21058E-03
 0.85000000E+01 -0.48522E-03
 0.85500002E+01 -0.70325E-03
 0.86000004E+01 -0.88238E-03
 0.86500006E+01 -0.10670E-02
 0.86999998E+01 -0.13111E-02
 0.87500000E+01 -0.15637E-02
 0.88000002E+01 -0.16970E-02
 0.88500004E+01 -0.16591E-02
 0.89000006E+01 -0.14759E-02
 0.89499998E+01 -0.12560E-02
 0.90000000E+01 -0.94902E-03
 0.90500002E+01 -0.63440E-03
 0.91000004E+01 -0.31657E-03
 0.91500006E+01  0.64442E-04
 0.91999998E+01  0.53827E-03
 0.92500000E+01  0.94299E-03
 0.93000002E+01  0.12230E-02
 0.93500004E+01  0.14479E-02
 0.94000006E+01  0.14845E-02
 0.94499998E+01  0.13651E-02
 0.95000000E+01  0.11770E-02
 0.95500002E+01  0.97984E-03
 0.96000004E+01  0.73814E-03
 0.96500006E+01  0.51785E-03
 0.96999998E+01  0.33208E-03
 0.97500000E+01  0.78045E-04
 0.98000002E+01 -0.29343E-03
 0.98500004E+01 -0.69262E-03
 0.99000006E+01 -0.89511E-03
 0.99499998E+01 -0.95737E-03
 0.10000000E+02 -0.88163E-03
 0.10050000E+02 -0.67517E-03
 0.10100000E+02 -0.38499E-03
 0.10150001E+02 -0.13850E-03
 0.10200000E+02  0.77086E-04
 0.10250000E+02  0.28330E-03
 0.10300000E+02  0.47713E-03
 0.10350000E+02  0.68449E-03
 0.10400001E+02  0.84677E-03
 0.10450000E+02  0.10032E-02
 0.10500000E+02  0.11651E-02
 0.10550000E+02  0.12453E-02
 0.10600000E+02  0.12923E-02
 0.10650001E+02  0.12113E-02
 0.10700000E+02  0.10169E-02
 0.10750000E+02  0.81458E-03
 0.10800000E+02  0.57727E-03
 0.10850000E+02  0.40459E-03
 0.10900001E+02  0.14654E-03
 0.10950000E+02  0.45899E-04
 0.11000000E+02  0.58350E-04
 0.11050000E+02  0.17520E-04
 0.11100000E+02 -0.48065E-04
 0.11150001E+02 -0.24582E-03
 0.11200000E+02 -0.42028E-03
 0.11250000E+02 -0.42681E-03
 0.11300000E+02 -0.31696E-03
 0.11350000E+02 -0.24437E-03
 0.11400001E+02 -0.25337E-03
 0.11450000E+02 -0.25191E-03
 0.11500000E+02 -0.18436E-03
 0.11550000E+02 -0.38365E-04
 0.11600000E+02  0.23337E-04
 0.11650001E+02 -0.34108E-05
 0.11700000E+02 -0.15970E-03
 0.11750000E+02 -0.38368E-03
 0.11800000E+02 -0.60796E-03
 0.11850000E+02 -0.95285E-03
 0.11900001E+02 -0.12081E-02
 0.11950000E+02 -0.13782E-02
 0.12000000E+02 -0.14655E-02
 0.12050000E+02 -0.14520E-02
 0.12100000E+02 -0.13931E-02
 0.12150001E+02 -0.12396E-02
 0.12200000E+02 -0.94051E-03
 0.12250000E+02 -0.60447E-03
 0.12300000E+02 -0.22830E-03
 0.12350000E+02  0.14658E-03
 0.12400001E+02  0.55716E-03
 0.12450000E+02  0.97617E-03
 0.12500000E+02  0.12655E-02
 0.12550000E+02  0.14606E-02
 0.12600000E+02  0.15658E-02
 0.12650001E+02  0.15864E-02
 0.12700000E+02  0.14585E-02
 0.12750000E+02  0.12365E-02
 0.12800000E+02  0.10174E-02
 0.12850000E+02  0.69595E-03
 0.12900001E+02  0.38761E-03
 0.12950000E+02  0.25785E-03
 0.13000000E+02  0.17295E-03
 0.13050000E+02  0.15901E-03
 0.13100000E+02  0.79342E-04
 0.13150001E+02 -0.10347E-03
 0.13200000E+02 -0.29966E-03
 0.13250000E+02 -0.53097E-03
 0.13300000E+02 -0.73644E-03
 0.13350000E+02 -0.82966E-03
 0.13400001E+02 -0.80961E-03
 0.13450000E+02 -0.66684E-03
 0.13500000E+02 -0.47082E-03
 0.13550000E+02 -0.26955E-03
 0.13600000E+02  0.16249E-04
 0.13650001E+02  0.25528E-03
 0.13700000E+02  0.59802E-03
 0.13750000E+02  0.87865E-03
 0.13800000E+02  0.10581E-02
 0.13850000E+02  0.11974E-02
 0.13900001E+02  0.12567E-02
 0.13950000E+02  0.13243E-02
 0.14000000E+02  0.12316E-02
 0.14050000E+02  0.10469E-02
 0.14100000E+02  0.75874E-03
 0.14150001E+02  0.46275E-03
 0.14200000E+02  0.31989E-03
 0.14250000E+02  0.23779E-03
 0.14300000E+02  0.19825E-03
 0.14350000E+02  0.24789E-03
 0.14400001E+02  0.18116E-03
 0.14450000E+02  0.18092E-03
 0.14500000E+02  0.21454E-03
 0.14550000E+02  0.18619E-03
 0.14600000E+02  0.77282E-04
 0.14650001E+02 -0.20476E-03
 0.14700000E+02 -0.46506E-03
 0.14750000E+02 -0.75569E-03
 0.14800000E+02 -0.10419E-02
 0.14850000E+02 -0.13131E-02
 0.14900001E+02 -0.15464E-02
 0.14950000E+02 -0.17309E-02
 0.15000000E+02 -0.17851E-02
 0.15050000E+02 -0.17345E-02
 0.15100000E+02 -0.16553E-02
 0.15150001E+02 -0.14712E-02
 0.15200000E+02 -0.12320E-02
 0.15250000E+02 -0.10361E-02
 0.15300000E+02 -0.83911E-03
 0.15350000E+02 -0.65038E-03
 0.15400001E+02 -0.54292E-03
 0.15450000E+02 -0.42803E-03
 0.15500000E+02 -0.26779E-03
 0.15550000E+02 -0.13795E-03
 0.15600000E+02  0.17113E-04
 0.15650001E+02  0.25956E-03
 0.15700000E+02  0.56399E-03
 0.15750000E+02  0.90610E-03
 0.15800000E+02  0.11589E-02
 0.15850000E+02  0.13642E-02
 0.15900001E+02  0.15069E-02
 0.15950000E+02  0.15441E-02
 0.16000000E+02  0.14158E-02
 0.16050001E+02  0.11270E-02
 0.16100000E+02  0.76340E-03
 0.16150000E+02  0.37678E-03
 0.16200001E+02  0.81680E-04
 0.16250000E+02 -0.10926E-03
 0.16300001E+02 -0.19534E-03
 0.16350000E+02 -0.20807E-03
 0.16400000E+02 -0.19244E-03
 0.16450001E+02 -0.11239E-03
 0.16500000E+02  0.10456E-03
 0.16550001E+02  0.35769E-03
 0.16600000E+02  0.58197E-03
 0.16650000E+02  0.75904E-03
 0.16700001E+02  0.87071E-03
 0.16750000E+02  0.93831E-03
 0.16800001E+02  0.98204E-03
 0.16850000E+02  0.10724E-02
 0.16900000E+02  0.11261E-02
 0.16950001E+02  0.11068E-02
 0.17000000E+02  0.10654E-02
 0.17050001E+02  0.91965E-03
 0.17100000E+02  0.65359E-03
 0.17150000E+02  0.31775E-03
 0.17200001E+02 -0.11107E-03
 0.17250000E+02 -0.61471E-03
 0.17300001E+02 -0.10114E-02
 0.17350000E+02 -0.12067E-02
 0.17400000E+02 -0.13020E-02
 0.17450001E+02 -0.12829E-02
 0.17500000E+02 -0.11261E-02
 0.17550001E+02 -0.89574E-03
 0.17600000E+02 -0.60810E-03
 0.17650000E+02 -0.23866E-03
 0.17700001E+02  0.13688E-03
 0.17750000E+02  0.43368E-03
 0.17800001E+02  0.66581E-03
 0.17850000E+02  0.80861E-03
 0.17900000E+02  0.78781E-03
 0.17950001E+02  0.66523E-03
 0.18000000E+02  0.52113E-03
 0.18050001E+02  0.31039E-03
 0.18100000E+02 -0.52096E-04
 0.18150000E+02 -0.32415E-03
 0.18200001E+02 -0.57729E-03
 0.18250000E+02 -0.81689E-03
 0.18300001E+02 -0.10121E-02
 0.18350000E+02 -0.12079E-02
 0.18400000E+02 -0.13267E-02
 0.18450001E+02 -0.13739E-02
 0.18500000E+02 -0.12418E-02
 0.18550001E+02 -0.12150E-02
 0.18600000E+02 -0.11330E-02
 0.18650000E+02 -0.12090E-02
 0.18700001E+02 -0.53862E-03
 0.18750000E+02 -0.39003E-03
 0.18800001E+02 -0.43487E-03
 0.18850000E+02 -0.13319E-02
 0.18900000E+02 -0.25697E-02
 0.18950001E+02 -0.74570E-02
 0.19000000E+02 -0.20826E-01
 0.19050001E+02 -0.31502E-01
 0.19100000E+02 -0.19238E-01
 0.19150000E+02 -0.93439E-02
 0.19200001E+02 -0.88657E-02
 0.19250000E+02 -0.98530E-04
 0.19300001E+02  0.19758E-01
 0.19350000E+02  0.23625E-01
 0.19400000E+02  0.33246E-01
 0.19450001E+02  0.32410E-01
 0.19500000E+02  0.24990E-01
 0.19550001E+02  0.17026E-01
 0.19600000E+02  0.33217E-01
 0.19650000E+02  0.30137E-01
 0.19700001E+02 -0.52383E-04
 0.19750000E+02 -0.42923E-01
 0.19800001E+02 -0.15460E-01
 0.19850000E+02  0.31667E-01
 0.19900000E+02 -0.62615E-01
 0.19950001E+02 -0.10945E+00
 0.20000000E+02  0.34781E-01
 0.20050001E+02  0.20540E+00
 0.20100000E+02 -0.15420E+00
 0.20150000E+02 -0.19340E+00
 0.20200001E+02  0.16019E+00
 0.20250000E+02  0.12566E+00
 0.20300001E+02  0.75344E-01
 0.20350000E+02 -0.80451E-02
 0.20400000E+02 -0.54492E-01
 0.20450001E+02 -0.79869E-01
 0.20500000E+02 -0.33398E-01
 0.20550001E+02  0.10412E+00
 0.20600000E+02  0.83325E-03
 0.20650000E+02 -0.12600E+00
 0.20700001E+02 -0.17102E-01
 0.20750000E+02  0.10288E-01
 0.20800001E+02 -0.30465E-01
 0.20850000E+02  0.24373E-03
 0.20900000E+02  0.71596E-01
 0.20950001E+02  0.38019E-02
 0.21000000E+02 -0.36401E-01
 0.21050001E+02  0.47969E-01
 0.21100000E+02  0.96515E-02
 0.21150000E+02 -0.57867E-01
 0.21200001E+02 -0.10385E+00
 0.21250000E+02  0.52442E-01
 0.21300001E+02  0.88914E-01
 0.21350000E+02 -0.19535E+00
 0.21400000E+02 -0.30120E-01
 0.21450001E+02  0.97470E-01
 0.21500000E+02  0.10393E+00
 0.21550001E+02  0.16239E+00
 0.21600000E+02 -0.36174E-01
 0.21650000E+02 -0.57848E-01
 0.21700001E+02 -0.34088E-01
 0.21750000E+02  0.39102E-01
 0.21800001E+02  0.85298E-01
 0.21850000E+02 -0.47825E-01
 0.21900000E+02 -0.74957E-01
 0.21950001E+02 -0.12033E-01
 0.22000000E+02 -0.29587E-02
 0.22050001E+02 -0.21883E-01
 0.22100000E+02  0.54552E-02
 0.22150000E+02 -0.10230E-01
 0.22200001E+02 -0.62006E-01
 0.22250000E+02  0.26715E-01
 0.22300001E+02  0.54993E-02
 0.22350000E+02  0.58395E-01
 0.22400000E+02  0.88395E-01
 0.22450001E+02  0.35979E-01
 0.22500000E+02  0.14783E-01
 0.22550001E+02 -0.73410E-01
 0.22600000E+02 -0.88897E-01
 0.22650000E+02 -0.20885E-01
 0.22700001E+02  0.20611E-01
 0.22750000E+02 -0.33903E-01
 0.22800001E+02 -0.52832E-01
 0.22850000E+02 -0.38579E-01
 0.22900000E+02  0.44066E-01
 0.22950001E+02 -0.10765E-01
 0.23000000E+02  0.70865E-01
 0.23050001E+02  0.16265E+00
 0.23100000E+02  0.44658E-01
 0.23150000E+02  0.47488E-01
 0.23200001E+02 -0.10354E+00
 0.23250000E+02 -0.98529E-01
 0.23300001E+02 -0.10358E+00
 0.23350000E+02 -0.50594E-01
 0.23400000E+02  0.69769E-01
 0.23450001E+02 -0.79995E-01
 0.23500000E+02 -0.38289E-01
 0.23550001E+02 -0.75117E-02
 0.23600000E+02  0.11209E-01
 0.23650000E+02  0.43331E-01
 0.23700001E+02  0.10358E+00
 0.23750000E+02  0.55514E-01
 0.23800001E+02 -0.34218E-01
 0.23850000E+02 -0.14153E-01
 0.23900000E+02 -0.16919E-01
 0.23950001E+02 -0.11543E-01
 0.24000000E+02 -0.16702E-01
 0.24050001E+02  0.43698E-01
 0.24100000E+02 -0.49585E-03
 0.24150000E+02 -0.30509E-01
 0.24200001E+02  0.54462E-01
 0.24250000E+02  0.61326E-01
 0.24300001E+02  0.12053E-01
 0.24350000E+02  0.27291E-01
 0.24400000E+02  0.90648E-01
 0.24450001E+02  0.46243E-01
 0.24500000E+02 -0.41885E-01
 0.24550001E+02 -0.14757E-01
 0.24600000E+02 -0.63973E-01
 0.24650000E+02 -0.97973E-01
 0.24700001E+02 -0.16347E+00
 0.24750000E+02 -0.93413E-01
 0.24800001E+02  0.34214E-01
 0.24850000E+02 -0.49648E-01
 0.24900000E+02  0.19075E-01
 0.24950001E+02  0.33433E-01
 0.25000000E+02 -0.11529E-01
 0.25050001E+02 -0.23642E-01
 0.25100000E+02  0.17455E-01
 0.25150000E+02  0.83768E-01
 0.25200001E+02  0.74883E-01
 0.25250000E+02  0.50727E-01
 0.25300001E+02  0.29449E-01
 0.25350000E+02  0.30392E-01
 0.25400000E+02 -0.96152E-02
 0.25450001E+02 -0.15003E-01
 0.25500000E+02  0.39946E-01
 0.25550001E+02 -0.17898E-01
 0.25600000E+02 -0.63697E-01
 0.25650000E+02  0.63943E-01
 0.25700001E+02  0.70317E-01
 0.25750000E+02  0.53652E-01
 0.25800001E+02  0.99579E-01
 0.25850000E+02  0.77463E-01
 0.25900000E+02  0.62404E-01
 0.25950001E+02 -0.19316E-01
 0.26000000E+02 -0.29495E-01
 0.26050001E+02 -0.44090E-01
 0.26100000E+02 -0.73762E-01
 0.26150000E+02 -0.66069E-01
 0.26200001E+02 -0.10358E+00
 0.26250000E+02 -0.10462E+00
 0.26300001E+02 -0.11273E+00
 0.26350000E+02 -0.50452E-01
 0.26400000E+02  0.15701E-01
 0.26450001E+02 -0.25103E-01
 0.26500000E+02 -0.28541E-01
 0.26550001E+02  0.94247E-01
 0.26600000E+02  0.95728E-01
 0.26650000E+02  0.91465E-02
 0.26700001E+02  0.39147E-01
 0.26750000E+02  0.38885E-01
 0.26800001E+02  0.37964E-01
 0.26850000E+02  0.40326E-01
 0.26900000E+02  0.61602E-01
 0.26950001E+02  0.28407E-01
 0.27000000E+02 -0.49289E-01
 0.27050001E+02  0.16097E-01
 0.27100000E+02  0.14149E-01
 0.27150000E+02  0.13608E-01
 0.27200001E+02  0.13122E-03
 0.27250000E+02 -0.71970E-02
 0.27300001E+02  0.69512E-01
 0.27350000E+02  0.34111E-01
 0.27400000E+02  0.10800E-01
 0.27450001E+02  0.24781E-01
 0.27500000E+02 -0.25279E-01
 0.27550001E+02 -0.23124E-01
 0.27600000E+02  0.83360E-02
 0.27650000E+02 -0.25626E-01
 0.27700001E+02 -0.69808E-01
 0.27750000E+02 -0.48301E-01
 0.27800001E+02  0.14489E-01
 0.27850000E+02 -0.58050E-01
 0.27900000E+02  0.19337E-02
 0.27950001E+02  0.11951E+00
 0.28000000E+02 -0.22953E-01
 0.28050001E+02 -0.60499E-01
 0.28100000E+02  0.82176E-02
 0.28150000E+02 -0.39666E-03
 0.28200001E+02  0.32146E-01
 0.28250000E+02 -0.28712E-01
 0.28300001E+02 -0.43829E-01
 0.28350000E+02 -0.62418E-01
 0.28400000E+02 -0.62506E-01
 0.28450001E+02  0.17616E-01
 0.28500000E+02  0.24160E-03
 0.28550001E+02  0.29748E-01
 0.28600000E+02  0.20767E-01
 0.28650000E+02  0.50216E-01
 0.28700001E+02  0.62291E-01
 0.28750000E+02  0.50711E-01
 0.28800001E+02  0.25839E-01
 0.28850000E+02 -0.76787E-02
 0.28900000E+02 -0.26686E-01
 0.28950001E+02 -0.53422E-01
 0.29000000E+02 -0.68398E-02
 0.29050001E+02 -0.34139E-01
 0.29100000E+02 -0.49921E-01
 0.29150000E+02  0.17054E-01
 0.29200001E+02  0.65357E-02
 0.29250000E+02  0.36689E-01
 0.29300001E+02  0.43720E-01
 0.29350000E+02  0.30990E-01
 0.29400000E+02  0.32394E-01
 0.29450001E+02 -0.20791E-01
 0.29500000E+02  0.58158E-01
 0.29550001E+02  0.32451E-01
 0.29600000E+02  0.87802E-03
 0.29650000E+02 -0.11709E-02
 0.29700001E+02 -0.20403E-01
 0.29750000E+02 -0.52797E-01
 0.29800001E+02 -0.13818E+00
 0.29850000E+02 -0.38647E-01
 0.29900000E+02 -0.48101E-01
 0.29950001E+02 -0.38968E-01
 0.30000000E+02  0.38168E-02
 0.30050001E+02 -0.85815E-01
 0.30100000E+02 -0.28703E-01
 0.30150000E+02  0.23607E-01
 0.30200001E+02  0.76887E-01
 0.30250000E+02  0.86671E-01
 0.30300001E+02  0.33990E-01
 0.30350000E+02  0.83593E-01
 0.30400000E+02  0.91767E-01
 0.30450001E+02  0.39388E-01
 0.30500000E+02  0.77354E-02
 0.30550001E+02  0.14946E-01
 0.30600000E+02  0.18473E-01
 0.30650000E+02 -0.29125E-01
 0.30700001E+02 -0.34176E-01
 0.30750000E+02 -0.52479E-02
 0.30800001E+02 -0.60870E-01
 0.30850000E+02 -0.13042E-01
 0.30900000E+02 -0.15013E-01
 0.30950001E+02 -0.15004E-01
 0.31000000E+02  0.39120E-01
 0.31050001E+02 -0.74476E-02
 0.31100000E+02 -0.42950E-02
 0.31150000E+02 -0.13675E-01
 0.31200001E+02  0.34806E-01
 0.31250000E+02  0.79579E-02
 0.31300001E+02 -0.36852E-01
 0.31350000E+02 -0.29662E-01
 0.31400000E+02 -0.69585E-01
 0.31450001E+02 -0.78189E-01
 0.31500000E+02 -0.38858E-01
 0.31550001E+02 -0.53607E-01
 0.31600000E+02 -0.57751E-01
 0.31650000E+02 -0.16598E-01
 0.31700001E+02  0.23703E-01
 0.31750000E+02  0.20187E-01
 0.31800001E+02  0.31854E-01
 0.31850000E+02  0.89573E-01
 0.31900000E+02  0.34483E-01
 0.31950001E+02  0.62938E-01
 0.32000000E+02  0.46920E-01
 0.32049999E+02 -0.15066E-02
 0.32100002E+02 -0.20988E-01
 0.32150002E+02 -0.36413E-01
 0.32200001E+02  0.94698E-01
 0.32250000E+02  0.12404E+00
 0.32299999E+02  0.26657E-01
 0.32350002E+02 -0.61322E-01
 0.32400002E+02 -0.14757E+00
 0.32450001E+02 -0.16955E+00
 0.32500000E+02 -0.21411E+00
 0.32549999E+02 -0.28530E+00
 0.32600002E+02 -0.20108E+00
 0.32650002E+02 -0.15090E+00
 0.32700001E+02 -0.99795E-01
 0.32750000E+02 -0.58133E-01
 0.32799999E+02  0.20978E-02
 0.32850002E+02  0.15141E+00
 0.32900002E+02  0.17681E+00
 0.32950001E+02  0.13127E+00
 0.33000000E+02  0.10310E+00
 0.33049999E+02  0.14679E+00
 0.33100002E+02  0.10523E+00
 0.33150002E+02  0.64022E-01
 0.33200001E+02  0.14376E+00
 0.33250000E+02  0.19838E+00
 0.33299999E+02  0.15463E+00
 0.33350002E+02  0.16167E+00
 0.33400002E+02  0.99138E-01
 0.33450001E+02 -0.33417E-03
 0.33500000E+02  0.16586E-01
 0.33549999E+02  0.10824E+00
 0.33600002E+02  0.13151E+00
 0.33650002E+02 -0.30428E-01
 0.33700001E+02 -0.44192E-01
 0.33750000E+02 -0.16686E+00
 0.33799999E+02 -0.30513E+00
 0.33850002E+02 -0.39116E+00
 0.33900002E+02 -0.50246E+00
 0.33950001E+02 -0.62260E+00
 0.34000000E+02 -0.66485E+00
 0.34049999E+02 -0.41538E+00
 0.34100002E+02 -0.16450E+00
 0.34150002E+02  0.17104E+00
 0.34200001E+02  0.56425E+00
 0.34250000E+02  0.82452E+00
 0.34299999E+02  0.85755E+00
 0.34350002E+02  0.70702E+00
 0.34400002E+02  0.28567E+00
 0.34450001E+02 -0.22132E+00
 0.34500000E+02 -0.48121E+00
 0.34549999E+02 -0.55154E+00
 0.34600002E+02 -0.41942E+00
 0.34650002E+02 -0.16264E+00
 0.34700001E+02  0.57996E+00
 0.34750000E+02  0.10000E+01
 0.34799999E+02  0.70146E+00
 0.34850002E+02  0.35717E+00
 0.34900002E+02  0.11381E+00
 0.34950001E+02 -0.27397E+00
 0.35000000E+02 -0.77152E+00
 0.35049999E+02 -0.60102E+00
 0.35100002E+02 -0.25631E+00
 0.35150002E+02 -0.13741E+00
 0.35200001E+02 -0.86864E-01
 0.35250000E+02 -0.92830E-01
 0.35299999E+02  0.86635E-01
 0.35350002E+02  0.19775E+00
 0.35400002E+02 -0.34990E+00
 0.35450001E+02 -0.58480E+00
 0.35500000E+02 -0.30865E+00
 0.35549999E+02 -0.14942E+00
 0.35600002E+02  0.19857E+00
 0.35650002E+02  0.42020E+00
 0.35700001E+02  0.51143E+00
 0.35750000E+02  0.52616E+00
 0.35799999E+02  0.32942E+00
 0.35850002E+02 -0.12282E-01
 0.35900002E+02 -0.34070E+00
 0.35950001E+02 -0.29818E+00
 0.36000000E+02  0.23137E-01
 0.36049999E+02  0.23684E-01
 0.36100002E+02  0.14965E+00
 0.36150002E+02  0.35396E+00
 0.36200001E+02  0.36444E+00
 0.36250000E+02  0.30399E+00
 0.36299999E+02 -0.16660E+00
 0.36350002E+02 -0.29720E+00
 0.36400002E+02 -0.24452E+00
 0.36450001E+02 -0.43440E+00
 0.36500000E+02 -0.69809E+00
 0.36549999E+02 -0.27710E+00
 0.36600002E+02  0.24822E+00
 0.36650002E+02  0.31842E+00
 0.36700001E+02  0.46120E+00
 0.36750000E+02  0.27956E+00
 0.36799999E+02  0.14068E+00
 0.36850002E+02 -0.22390E+00
 0.36900002E+02 -0.43324E+00
 0.36950001E+02 -0.27623E+00
 0.37000000E+02 -0.38599E+00
 0.37049999E+02 -0.36640E+00
 0.37100002E+02 -0.20971E+00
 0.37150002E+02  0.55283E-01
 0.37200001E+02  0.34508E+00
 0.37250000E+02  0.28197E+00
 0.37299999E+02  0.24922E+00
 0.37350002E+02  0.22730E+00
 0.37400002E+02  0.32796E+00
 0.37450001E+02  0.29480E+00
 0.37500000E+02  0.86760E-01
 0.37549999E+02  0.17671E+00
 0.37600002E+02  0.30638E+00
 0.37650002E+02  0.33594E+00
 0.37700001E+02  0.20597E+00
 0.37750000E+02  0.67120E-01
 0.37799999E+02 -0.24990E+00
 0.37850002E+02 -0.38697E+00
 0.37900002E+02 -0.29488E+00
 0.37950001E+02 -0.34494E+00
 0.38000000E+02 -0.28474E+00
 0.38049999E+02 -0.91749E-01
 0.38100002E+02 -0.13110E+00
 0.38150002E+02  0.10486E+00
 0.38200001E+02  0.31502E+00
 0.38250000E+02  0.25266E+00
 0.38299999E+02  0.20019E+00
 0.38350002E+02 -0.25461E+00
 0.38400002E+02 -0.54083E+00
 0.38450001E+02 -0.53170E+00
 0.38500000E+02 -0.45741E+00
 0.38549999E+02 -0.43149E+00
 0.38600002E+02 -0.14426E+00
 0.38650002E+02 -0.24691E-01
 0.38700001E+02  0.20397E+00
 0.38750000E+02  0.54831E+00
 0.38799999E+02  0.53384E+00
 0.38850002E+02  0.54217E+00
 0.38900002E+02  0.54155E+00
 0.38950001E+02  0.65372E+00
 0.39000000E+02  0.42193E+00
 0.39049999E+02  0.22340E+00
 0.39100002E+02 -0.98879E-01
 0.39150002E+02 -0.45579E+00
 0.39200001E+02 -0.37615E+00
 0.39250000E+02 -0.32353E+00
 0.39299999E+02 -0.14382E+00
 0.39350002E+02 -0.13889E+00
 0.39400002E+02 -0.14012E+00
 0.39450001E+02  0.92314E-01
 0.39500000E+02  0.10124E+00
 0.39549999E+02  0.66341E-01
 0.39600002E+02 -0.46619E-01
 0.39650002E+02 -0.23035E+00
 0.39700001E+02 -0.25258E+00
 0.39750000E+02 -0.29195E+00
 0.39799999E+02 -0.29378E+00
 0.39850002E+02 -0.20106E+00
 0.39900002E+02 -0.17660E+00
 0.39950001E+02 -0.77732E-01
 0.40000000E+02 -0.45763E-01
 0.40049999E+02 -0.12924E+00
 0.40100002E+02 -0.12230E+00
 0.40150002E+02 -0.63341E-01
 0.40200001E+02  0.12935E+00
 0.40250000E+02  0.36906E+00
 0.40299999E+02  0.61308E+00
 0.40350002E+02  0.61800E+00
 0.40400002E+02  0.33962E+00
 0.40450001E+02  0.22445E+00
 0.40500000E+02  0.22760E+00
 0.40549999E+02  0.10452E+00
 0.40600002E+02  0.27475E-01
 0.40650002E+02 -0.16613E-01
 0.40700001E+02 -0.24003E-01
 0.40750000E+02 -0.11774E+00
 0.40799999E+02 -0.25547E+00
 0.40850002E+02 -0.97005E-01
 0.40900002E+02  0.11396E-01
 0.40950001E+02 -0.20377E-01
 0.41000000E+02 -0.42802E-01
 0.41049999E+02 -0.97788E-01
 0.41100002E+02 -0.19721E+00
 0.41150002E+02 -0.29683E+00
 0.41200001E+02 -0.39804E+00
 0.41250000E+02 -0.30963E+00
 0.41299999E+02 -0.15078E+00
 0.41350002E+02 -0.32889E-01
 0.41400002E+02  0.15827E+00
 0.41450001E+02  0.19453E+00
 0.41500000E+02  0.21791E+00
 0.41549999E+02  0.20743E+00
 0.41600002E+02  0.12824E+00
 0.41650002E+02  0.11492E+00
 0.41700001E+02  0.95065E-01
 0.41750000E+02  0.65205E-01
 0.41799999E+02  0.74787E-02
 0.41850002E+02  0.29083E-02
 0.41900002E+02  0.10847E+00
 0.41950001E+02  0.16882E+00
 0.42000000E+02  0.88772E-01
 0.42049999E+02 -0.36895E-01
 0.42100002E+02 -0.91171E-01
 0.42150002E+02 -0.13873E+00
 0.42200001E+02 -0.96337E-01
 0.42250000E+02  0.53648E-01
 0.42299999E+02  0.23696E+00
 0.42350002E+02  0.29544E+00
 0.42400002E+02  0.17808E+00
 0.42450001E+02  0.84542E-01
 0.42500000E+02 -0.67793E-01
 0.42549999E+02 -0.22440E+00
 0.42600002E+02 -0.39733E+00
 0.42650002E+02 -0.55982E+00
 0.42700001E+02 -0.65229E+00
 0.42750000E+02 -0.54575E+00
 0.42799999E+02 -0.26371E+00
 0.42850002E+02  0.30177E-01
 0.42900002E+02  0.32163E+00
 0.42950001E+02  0.49565E+00
 0.43000000E+02  0.49405E+00
 0.43049999E+02  0.28594E+00
 0.43100002E+02  0.89587E-01
 0.43150002E+02 -0.39103E-01
 0.43200001E+02 -0.13001E+00
 0.43250000E+02 -0.67382E-01
 0.43299999E+02  0.10678E+00
 0.43350002E+02  0.17259E+00
 0.43400002E+02  0.36658E-01
 0.43450001E+02 -0.46295E-01
 0.43500000E+02 -0.70999E-01
 0.43549999E+02 -0.10912E+00
 0.43600002E+02 -0.66724E-01
 0.43650002E+02  0.17891E-01
 0.43700001E+02  0.49922E-01
 0.43750000E+02  0.10602E-01
 0.43799999E+02  0.11519E+00
 0.43850002E+02  0.15501E+00
 0.43900002E+02  0.14183E+00
 0.43950001E+02  0.23456E+00
 0.44000000E+02  0.13420E+00
 0.44049999E+02  0.18340E-01
 0.44100002E+02 -0.81451E-01
 0.44150002E+02 -0.10329E+00
 0.44200001E+02 -0.56184E-01
 0.44250000E+02 -0.84794E-01
 0.44299999E+02 -0.11843E+00
 0.44350002E+02 -0.22926E+00
 0.44400002E+02 -0.33290E+00
 0.44450001E+02 -0.36400E+00
 0.44500000E+02 -0.27617E+00
 0.44549999E+02 -0.21624E+00
 0.44600002E+02 -0.97758E-01
 0.44650002E+02  0.10733E+00
 0.44700001E+02  0.24949E+00
 0.44750000E+02  0.38140E+00
 0.44799999E+02  0.32414E+00
 0.44850002E+02  0.18783E+00
 0.44900002E+02  0.28673E-01
 0.44950001E+02 -0.56450E-01
 0.45000000E+02 -0.71792E-01
 0.45049999E+02 -0.11914E+00
 0.45100002E+02 -0.15250E+00
 0.45150002E+02 -0.12690E+00
 0.45200001E+02 -0.32626E-01
 0.45250000E+02 -0.64312E-02
 0.45299999E+02  0.10726E+00
 0.45350002E+02  0.24658E+00
 0.45400002E+02  0.23118E+00
 0.45450001E+02  0.18571E+00
 0.45500000E+02  0.22817E+00
 0.45549999E+02  0.19809E+00
 0.45600002E+02  0.10528E+00
 0.45650002E+02  0.10522E+00
 0.45700001E+02  0.15383E+00
 0.45750000E+02  0.92513E-01
 0.45799999E+02 -0.90774E-01
 0.45850002E+02 -0.30418E+00
 0.45900002E+02 -0.49285E+00
 0.45950001E+02 -0.51072E+00
 0.46000000E+02 -0.46957E+00
 0.46049999E+02 -0.38886E+00
 0.46100002E+02 -0.23035E+00
 0.46150002E+02 -0.40100E-01
 0.46200001E+02  0.83906E-01
 0.46250000E+02  0.17535E+00
 0.46299999E+02  0.30292E+00
 0.46350002E+02  0.39653E+00
 0.46400002E+02  0.41943E+00
 0.46450001E+02  0.26951E+00
 0.46500000E+02  0.13046E+00
 0.46549999E+02  0.12737E+00
 0.46600002E+02  0.99056E-01
 0.46650002E+02  0.35352E-01
 0.46700001E+02  0.31879E-01
 0.46750000E+02  0.95238E-02
 0.46799999E+02 -0.22718E-02
 0.46850002E+02  0.66169E-01
 0.46900002E+02  0.88874E-01
 0.46950001E+02  0.18455E-01
 0.47000000E+02 -0.62958E-02
 0.47049999E+02  0.57801E-02
 0.47100002E+02 -0.13801E-01
 0.47150002E+02  0.18742E-02
 0.47200001E+02 -0.25156E-01
 0.47250000E+02 -0.13996E+00
 0.47299999E+02 -0.30269E+00
 0.47350002E+02 -0.42368E+00
 0.47400002E+02 -0.50070E+00
 0.47450001E+02 -0.49895E+00
 0.47500000E+02 -0.43990E+00
 0.47549999E+02 -0.36059E+00
 0.47600002E+02 -0.11357E+00
 0.47650002E+02  0.14590E+00
 0.47700001E+02  0.29216E+00
 0.47750000E+02  0.32520E+00
 0.47799999E+02  0.36222E+00
 0.47850002E+02  0.40607E+00
 0.47900002E+02  0.36474E+00
 0.47950001E+02  0.32088E+00
 0.48000000E+02  0.27612E+00
 0.48049999E+02  0.18672E+00
 0.48100002E+02  0.54557E-01
 0.48150002E+02  0.19214E-02
 0.48200001E+02 -0.65638E-01
 0.48250000E+02 -0.10451E+00
 0.48299999E+02 -0.11146E+00
 0.48350002E+02 -0.18601E+00
 0.48400002E+02 -0.18138E+00
 0.48450001E+02 -0.58896E-01
 0.48500000E+02  0.11462E+00
 0.48549999E+02  0.21391E+00
 0.48600002E+02  0.22334E+00
 0.48650002E+02  0.17315E+00
 0.48700001E+02  0.61542E-01
 0.48750000E+02 -0.61874E-01
 0.48799999E+02 -0.19644E+00
 0.48850002E+02 -0.29801E+00
 0.48900002E+02 -0.34419E+00
 0.48950001E+02 -0.37984E+00
 0.49000000E+02 -0.28143E+00
 0.49049999E+02 -0.13474E+00
 0.49100002E+02 -0.50209E-01
 0.49150002E+02 -0.48074E-01
 0.49200001E+02 -0.66127E-01
 0.49250000E+02 -0.81403E-01
 0.49299999E+02 -0.98322E-01
 0.49350002E+02 -0.10827E+00
 0.49400002E+02 -0.12927E+00
 0.49450001E+02 -0.88598E-01
 0.49500000E+02  0.21113E-01
 0.49549999E+02  0.23580E+00
 0.49600002E+02  0.35244E+00
 0.49650002E+02  0.30634E+00
 0.49700001E+02  0.21456E+00
 0.49750000E+02  0.68585E-01
 0.49799999E+02 -0.56554E-01
 0.49850002E+02 -0.91341E-01
 0.49900002E+02 -0.10400E+00
 0.49950001E+02 -0.88742E-01
 0.50000000E+02 -0.75618E-02
 0.50049999E+02  0.69776E-01
 0.50100002E+02  0.11119E+00
 0.50150002E+02  0.16988E+00
 0.50200001E+02  0.22711E+00
 0.50250000E+02  0.22568E+00
 0.50299999E+02  0.22171E+00
 0.50350002E+02  0.17379E+00
 0.50400002E+02  0.98871E-01
 0.50450001E+02  0.51145E-01
 0.50500000E+02 -0.11507E-01
 0.50549999E+02 -0.11314E+00
 0.50600002E+02 -0.20068E+00
 0.50650002E+02 -0.17200E+00
 0.50700001E+02 -0.18149E+00
 0.50750000E+02 -0.26994E+00
 0.50799999E+02 -0.37514E+00
 0.50850002E+02 -0.39912E+00
 0.50900002E+02 -0.28622E+00
 0.50950001E+02 -0.16719E+00
 0.51000000E+02 -0.74699E-01
 0.51049999E+02 -0.20457E-01
 0.51100002E+02  0.37430E-01
 0.51150002E+02  0.14246E+00
 0.51200001E+02  0.25151E+00
 0.51250000E+02  0.34627E+00
 0.51299999E+02  0.37933E+00
 0.51350002E+02  0.31517E+00
 0.51400002E+02  0.17671E+00
 0.51450001E+02  0.33415E-01
 0.51500000E+02 -0.81106E-01
 0.51549999E+02 -0.18126E+00
 0.51600002E+02 -0.18102E+00
 0.51650002E+02 -0.12730E+00
 0.51700001E+02 -0.31965E-01
 0.51750000E+02  0.43827E-01
 0.51799999E+02  0.12726E+00
 0.51850002E+02  0.18567E+00
 0.51900002E+02  0.19039E+00
 0.51950001E+02  0.24317E+00
 0.52000000E+02  0.24591E+00
 0.52049999E+02  0.19490E+00
 0.52100002E+02  0.82413E-01
 0.52150002E+02 -0.25406E-01
 0.52200001E+02 -0.10703E+00
 0.52250000E+02 -0.19350E+00
 0.52299999E+02 -0.24190E+00
 0.52350002E+02 -0.26312E+00
 0.52400002E+02 -0.24787E+00
 0.52450001E+02 -0.17323E+00
 0.52500000E+02 -0.63691E-01
 0.52549999E+02  0.22581E-01
 0.52600002E+02  0.63544E-01
 0.52650002E+02  0.71371E-01
 0.52700001E+02  0.16763E-01
 0.52750000E+02 -0.61843E-01
 0.52799999E+02 -0.81734E-01
 0.52850002E+02 -0.44285E-01
 0.52900002E+02  0.22523E-02
 0.52950001E+02  0.79532E-01
 0.53000000E+02  0.12179E+00
 0.53049999E+02  0.83427E-01
 0.53100002E+02  0.73211E-01
 0.53150002E+02  0.78343E-01
 0.53200001E+02  0.11103E+00
 0.53250000E+02  0.76427E-01
 0.53299999E+02 -0.80036E-01
 0.53350002E+02 -0.18224E+00
 0.53400002E+02 -0.23088E+00
 0.53450001E+02 -0.20503E+00
 0.53500000E+02 -0.75074E-01
 0.53549999E+02  0.79355E-01
 0.53600002E+02  0.22633E+00
 0.53650002E+02  0.29764E+00
 0.53700001E+02  0.30836E+00
 0.53750000E+02  0.31035E+00
 0.53799999E+02  0.28536E+00
 0.53850002E+02  0.23131E+00
 0.53900002E+02  0.17339E+00
 0.53950001E+02  0.10240E+00
 0.54000000E+02 -0.17586E-01
 0.54049999E+02 -0.10769E+00
 0.54100002E+02 -0.19623E+00
 0.54150002E+02 -0.29179E+00
 0.54200001E+02 -0.34429E+00
 0.54250000E+02 -0.40512E+00
 0.54299999E+02 -0.45154E+00
 0.54350002E+02 -0.41438E+00
 0.54400002E+02 -0.27399E+00
 0.54450001E+02 -0.14398E+00
 0.54500000E+02 -0.25522E-01
 0.54549999E+02  0.10061E+00
 0.54600002E+02  0.16389E+00
 0.54650002E+02  0.20301E+00
 0.54700001E+02  0.18277E+00
 0.54750000E+02  0.11651E+00
 0.54799999E+02  0.80479E-01
 0.54850002E+02  0.55300E-01
 0.54900002E+02  0.74647E-01
 0.54950001E+02  0.10722E+00
 0.55000000E+02  0.15485E+00
 0.55049999E+02  0.27968E+00
 0.55100002E+02  0.34558E+00
 0.55150002E+02  0.38401E+00
 0.55200001E+02  0.37686E+00
 0.55250000E+02  0.25269E+00
 0.55299999E+02  0.13588E+00
 0.55350002E+02  0.10064E-01
 0.55400002E+02 -0.10864E+00
 0.55450001E+02 -0.19580E+00
 0.55500000E+02 -0.26493E+00
 0.55549999E+02 -0.29932E+00
 0.55600002E+02 -0.29948E+00
 0.55650002E+02 -0.32878E+00
 0.55700001E+02 -0.32317E+00
 0.55750000E+02 -0.24490E+00
 0.55799999E+02 -0.17054E+00
 0.55850002E+02 -0.11114E+00
 0.55900002E+02 -0.55440E-01
 0.55950001E+02  0.69375E-02
 0.56000000E+02  0.53169E-01
 0.56049999E+02  0.92967E-01
 0.56100002E+02  0.11145E+00
 0.56150002E+02  0.13116E+00
 0.56200001E+02  0.10141E+00
 0.56250000E+02  0.76898E-02
 0.56299999E+02 -0.17509E-01
 0.56350002E+02  0.11188E-02
 0.56400002E+02  0.53257E-01
 0.56450001E+02  0.11229E+00
 0.56500000E+02  0.14246E+00
 0.56549999E+02  0.18304E+00
 0.56600002E+02  0.20623E+00
 0.56650002E+02  0.19617E+00
 0.56700001E+02  0.13635E+00
 0.56750000E+02  0.50002E-01
 0.56799999E+02 -0.29383E-01
 0.56850002E+02 -0.88113E-01
 0.56900002E+02 -0.13725E+00
 0.56950001E+02 -0.18336E+00
 0.57000000E+02 -0.22507E+00
 0.57049999E+02 -0.24637E+00
 0.57100002E+02 -0.21388E+00
 0.57150002E+02 -0.14701E+00
 0.57200001E+02 -0.73202E-01
 0.57250000E+02 -0.36360E-01
 0.57299999E+02  0.16895E-01
 0.57350002E+02  0.87819E-01
 0.57400002E+02  0.99966E-01
 0.57450001E+02  0.52720E-01
 0.57500000E+02 -0.22947E-01
 0.57549999E+02 -0.93892E-01
 0.57600002E+02 -0.16285E+00
 0.57650002E+02 -0.16015E+00
 0.57700001E+02 -0.81591E-01
 0.57750000E+02  0.23452E-01
 0.57799999E+02  0.10108E+00
 0.57850002E+02  0.11757E+00
 0.57900002E+02  0.11099E+00
 0.57950001E+02  0.10609E+00
 0.58000000E+02  0.12112E+00
 0.58049999E+02  0.17760E+00
 0.58100002E+02  0.19531E+00
 0.58150002E+02  0.18080E+00
 0.58200001E+02  0.18562E+00
 0.58250000E+02  0.13530E+00
 0.58299999E+02  0.55083E-01
 0.58350002E+02 -0.38603E-01
 0.58400002E+02 -0.92519E-01
 0.58450001E+02 -0.10078E+00
 0.58500000E+02 -0.11053E+00
 0.58549999E+02 -0.12945E+00
 0.58600002E+02 -0.14792E+00
 0.58650002E+02 -0.17371E+00
 0.58700001E+02 -0.23296E+00
 0.58750000E+02 -0.27731E+00
 0.58799999E+02 -0.27470E+00
 0.58850002E+02 -0.21841E+00
 0.58900002E+02 -0.14284E+00
 0.58950001E+02 -0.57186E-01
 0.59000000E+02  0.30774E-01
 0.59049999E+02  0.10498E+00
 0.59100002E+02  0.16006E+00
 0.59150002E+02  0.17759E+00
 0.59200001E+02  0.18543E+00
 0.59250000E+02  0.17646E+00
 0.59299999E+02  0.14813E+00
 0.59350002E+02  0.11565E+00
 0.59400002E+02  0.65373E-01
 0.59450001E+02  0.79034E-03
 0.59500000E+02 -0.43274E-01
 0.59549999E+02 -0.31081E-01
 0.59600002E+02  0.14363E-01
 0.59650002E+02  0.29278E-01
 0.59700001E+02  0.41736E-01
 0.59750000E+02  0.55678E-01
 0.59799999E+02  0.43846E-01
 0.59850002E+02  0.26737E-01
 0.59900002E+02  0.21809E-01
 0.59950001E+02  0.40877E-01
 0.60000000E+02  0.27011E-01
 0.60049999E+02  0.18538E-01
 0.60100002E+02  0.35926E-01
 0.60150002E+02 -0.54784E-02
 0.60200001E+02 -0.63201E-01
 0.60250000E+02 -0.99465E-01
 0.60299999E+02 -0.12631E+00
 0.60350002E+02 -0.15756E+00
 0.60400002E+02 -0.18775E+00
 0.60450001E+02 -0.19565E+00
 0.60500000E+02 -0.13692E+00
 0.60549999E+02 -0.54695E-01
 0.60600002E+02  0.23685E-01
 0.60650002E+02  0.12178E+00
 0.60700001E+02  0.16525E+00
 0.60750000E+02  0.18659E+00
 0.60799999E+02  0.18918E+00
 0.60850002E+02  0.14585E+00
 0.60900002E+02  0.93628E-01
 0.60950001E+02  0.47510E-01
 0.61000000E+02  0.30051E-03
 0.61049999E+02 -0.48752E-01
 0.61100002E+02 -0.10300E+00
 0.61150002E+02 -0.14553E+00
 0.61200001E+02 -0.17610E+00
 0.61250000E+02 -0.19859E+00
 0.61299999E+02 -0.17396E+00
 0.61350002E+02 -0.11337E+00
 0.61400002E+02 -0.67449E-01
 0.61450001E+02 -0.19604E-01
 0.61500000E+02  0.35740E-01
 0.61549999E+02  0.73523E-01
 0.61600002E+02  0.10127E+00
 0.61650002E+02  0.10214E+00
 0.61700001E+02  0.11468E+00
 0.61750000E+02  0.14788E+00
 0.61799999E+02  0.14005E+00
 0.61850002E+02  0.13177E+00
 0.61900002E+02  0.15047E+00
 0.61950001E+02  0.13976E+00
 0.62000000E+02  0.98492E-01
 0.62049999E+02  0.53257E-01
 0.62100002E+02  0.25963E-01
 0.62150002E+02  0.27240E-01
 0.62200001E+02  0.48373E-01
 0.62250000E+02  0.46473E-01
 0.62299999E+02  0.81543E-02
 0.62350002E+02 -0.62924E-01
 0.62400002E+02 -0.15432E+00
 0.62450001E+02 -0.22311E+00
 0.62500000E+02 -0.23415E+00
 0.62549999E+02 -0.18927E+00
 0.62600002E+02 -0.14407E+00
 0.62650002E+02 -0.99901E-01
 0.62700001E+02 -0.18484E-01
 0.62750000E+02  0.42781E-01
 0.62799999E+02  0.63929E-01
 0.62850002E+02  0.45804E-01
 0.62900002E+02  0.21411E-01
 0.62950001E+02  0.16295E-01
 0.63000000E+02 -0.42906E-02
 0.63049999E+02 -0.30492E-02
 0.63100002E+02  0.10572E-01
 0.63150002E+02  0.38196E-01
 0.63200001E+02  0.65906E-01
 0.63250000E+02  0.81695E-01
 0.63299999E+02  0.97729E-01
 0.63350002E+02  0.11118E+00
 0.63400002E+02  0.11571E+00
 0.63450001E+02  0.11975E+00
 0.63500000E+02  0.14755E+00
 0.63549999E+02  0.16687E+00
 0.63600002E+02  0.14322E+00
 0.63650002E+02  0.80214E-01
 0.63700001E+02  0.46984E-02
 0.63750000E+02 -0.47138E-01
 0.63799999E+02 -0.11340E+00
 0.63850002E+02 -0.19338E+00
 0.63900002E+02 -0.24633E+00
 0.63950001E+02 -0.27479E+00
 0.64000000E+02 -0.27788E+00
 0.64050003E+02 -0.22974E+00
 0.64099998E+02 -0.13262E+00
 0.64150002E+02 -0.33317E-01
 0.64200005E+02  0.75708E-01
 0.64250000E+02  0.16254E+00
 0.64300003E+02  0.21441E+00
 0.64349998E+02  0.24390E+00
 0.64400002E+02  0.27000E+00
 0.64450005E+02  0.29143E+00
 0.64500000E+02  0.26482E+00
 0.64550003E+02  0.19492E+00
 0.64599998E+02  0.10412E+00
 0.64650002E+02 -0.43074E-03
 0.64700005E+02 -0.99527E-01
 0.64750000E+02 -0.16628E+00
 0.64800003E+02 -0.21158E+00
 0.64849998E+02 -0.24513E+00
 0.64900002E+02 -0.24239E+00
 0.64950005E+02 -0.22206E+00
 0.65000000E+02 -0.20304E+00
 0.65050003E+02 -0.16994E+00
 0.65099998E+02 -0.12773E+00
 0.65150002E+02 -0.64824E-01
 0.65200005E+02 -0.18592E-01
 0.65250000E+02  0.12877E-01
 0.65300003E+02  0.47021E-01
 0.65349998E+02  0.45263E-01
 0.65400002E+02  0.46893E-01
 0.65450005E+02  0.83956E-01
 0.65500000E+02  0.12298E+00
 0.65550003E+02  0.15984E+00
 0.65599998E+02  0.20256E+00
 0.65650002E+02  0.22666E+00
 0.65700005E+02  0.21591E+00
 0.65750000E+02  0.18468E+00
 0.65800003E+02  0.14152E+00
 0.65849998E+02  0.76748E-01
 0.65900002E+02  0.18498E-01
 0.65950005E+02 -0.18440E-01
 0.66000000E+02 -0.46968E-01
 0.66050003E+02 -0.89220E-01
 0.66099998E+02 -0.14483E+00
 0.66150002E+02 -0.17147E+00
 0.66200005E+02 -0.18389E+00
 0.66250000E+02 -0.19794E+00
 0.66300003E+02 -0.20469E+00
 0.66349998E+02 -0.20564E+00
 0.66400002E+02 -0.19803E+00
 0.66450005E+02 -0.18067E+00
 0.66500000E+02 -0.14375E+00
 0.66550003E+02 -0.10829E+00
 0.66599998E+02 -0.66976E-01
 0.66650002E+02 -0.11187E-01
 0.66700005E+02  0.39876E-01
 0.66750000E+02  0.87485E-01
 0.66800003E+02  0.14132E+00
 0.66849998E+02  0.18995E+00
 0.66900002E+02  0.21031E+00
 0.66950005E+02  0.25262E+00
 0.67000000E+02  0.28634E+00
 0.67050003E+02  0.29312E+00
 0.67099998E+02  0.26583E+00
 0.67150002E+02  0.20113E+00
 0.67200005E+02  0.14033E+00
 0.67250000E+02  0.58136E-01
 0.67300003E+02 -0.22481E-01
 0.67349998E+02 -0.92874E-01
 0.67400002E+02 -0.14703E+00
 0.67450005E+02 -0.19119E+00
 0.67500000E+02 -0.21108E+00
 0.67550003E+02 -0.21325E+00
 0.67599998E+02 -0.22253E+00
 0.67650002E+02 -0.22798E+00
 0.67700005E+02 -0.22677E+00
 0.67750000E+02 -0.20380E+00
 0.67800003E+02 -0.15287E+00
 0.67849998E+02 -0.86012E-01
 0.67900002E+02 -0.32665E-01
 0.67950005E+02  0.11787E-01
 0.68000000E+02  0.41107E-01
 0.68050003E+02  0.73521E-01
 0.68099998E+02  0.81947E-01
 0.68150002E+02  0.77260E-01
 0.68200005E+02  0.85112E-01
 0.68250000E+02  0.80030E-01
 0.68300003E+02  0.70801E-01
 0.68349998E+02  0.36106E-01
 0.68400002E+02  0.15067E-01
 0.68450005E+02  0.48266E-01
 0.68500000E+02  0.91141E-01
 0.68550003E+02  0.12526E+00
 0.68599998E+02  0.15676E+00
 0.68650002E+02  0.17827E+00
 0.68700005E+02  0.19414E+00
 0.68750000E+02  0.18063E+00
 0.68800003E+02  0.12484E+00
 0.68849998E+02  0.37748E-01
 0.68900002E+02 -0.48943E-01
 0.68950005E+02 -0.12556E+00
 0.69000000E+02 -0.20589E+00
 0.69050003E+02 -0.25446E+00
 0.69099998E+02 -0.27001E+00
 0.69150002E+02 -0.25053E+00
 0.69200005E+02 -0.19932E+00
 0.69250000E+02 -0.14319E+00
 0.69300003E+02 -0.67238E-01
 0.69349998E+02  0.85646E-02
 0.69400002E+02  0.76743E-01
 0.69450005E+02  0.13859E+00
 0.69500000E+02  0.17726E+00
 0.69550003E+02  0.20043E+00
 0.69599998E+02  0.19397E+00
 0.69650002E+02  0.15436E+00
 0.69700005E+02  0.78130E-01
 0.69750000E+02 -0.18658E-01
 0.69800003E+02 -0.98989E-01
 0.69849998E+02 -0.17814E+00
 0.69900002E+02 -0.24355E+00
 0.69950005E+02 -0.25358E+00
 0.70000000E+02 -0.22942E+00
 0.70050003E+02 -0.17467E+00
 0.70099998E+02 -0.93365E-01
 0.70150002E+02 -0.71413E-02
 0.70200005E+02  0.97138E-01
 0.70250000E+02  0.19157E+00
 0.70300003E+02  0.25407E+00
 0.70349998E+02  0.27971E+00
 0.70400002E+02  0.26733E+00
 0.70450005E+02  0.23976E+00
 0.70500000E+02  0.18495E+00
 0.70550003E+02  0.10474E+00
 0.70599998E+02  0.23319E-01
 0.70650002E+02 -0.51968E-01
 0.70700005E+02 -0.11774E+00
 0.70750000E+02 -0.16946E+00
 0.70800003E+02 -0.17509E+00
 0.70849998E+02 -0.15285E+00
 0.70900002E+02 -0.10100E+00
 0.70950005E+02 -0.57946E-02
 0.71000000E+02  0.82799E-01
 0.71050003E+02  0.16042E+00
 0.71099998E+02  0.20438E+00
 0.71150002E+02  0.19973E+00
 0.71200005E+02  0.14925E+00
 0.71250000E+02  0.63261E-01
 0.71300003E+02 -0.32983E-01
 0.71349998E+02 -0.13003E+00
 0.71400002E+02 -0.20116E+00
 0.71450005E+02 -0.23097E+00
 0.71500000E+02 -0.22662E+00
 0.71550003E+02 -0.20931E+00
 0.71599998E+02 -0.18444E+00
 0.71650002E+02 -0.13051E+00
 0.71700005E+02 -0.59090E-01
 0.71750000E+02  0.22262E-02
 0.71800003E+02  0.46893E-01
 0.71849998E+02  0.88743E-01
 0.71900002E+02  0.11520E+00
 0.71950005E+02  0.96524E-01
 0.72000000E+02  0.72472E-01
 0.72050003E+02  0.65759E-01
 0.72099998E+02  0.60085E-01
 0.72150002E+02  0.59510E-01
 0.72200005E+02  0.69729E-01
 0.72250000E+02  0.87949E-01
 0.72300003E+02  0.10559E+00
 0.72349998E+02  0.12079E+00
 0.72400002E+02  0.12064E+00
 0.72450005E+02  0.10857E+00
 0.72500000E+02  0.80485E-01
 0.72550003E+02  0.32885E-01
 0.72599998E+02  0.38331E-02
 0.72650002E+02 -0.41955E-02
 0.72700005E+02 -0.16381E-01
 0.72750000E+02 -0.41104E-01
 0.72800003E+02 -0.67626E-01
 0.72849998E+02 -0.10825E+00
 0.72900002E+02 -0.16516E+00
 0.72950005E+02 -0.19701E+00
 0.73000000E+02 -0.20184E+00
 0.73050003E+02 -0.19789E+00
 0.73099998E+02 -0.15007E+00
 0.73150002E+02 -0.82258E-01
 0.73200005E+02 -0.31157E-01
 0.73250000E+02  0.17482E-01
 0.73300003E+02  0.58266E-01
 0.73349998E+02  0.88833E-01
 0.73400002E+02  0.11300E+00
 0.73450005E+02  0.11591E+00
 0.73500000E+02  0.10329E+00
 0.73550003E+02  0.88845E-01
 0.73599998E+02  0.67355E-01
 0.73650002E+02  0.57471E-01
 0.73700005E+02  0.53977E-01
 0.73750000E+02  0.38440E-01
 0.73800003E+02  0.16789E-01
 0.73849998E+02  0.34703E-02
 0.73900002E+02 -0.55049E-02
 0.73950005E+02 -0.61407E-02
 0.74000000E+02  0.58882E-02
 0.74050003E+02  0.16975E-01
 0.74099998E+02  0.20934E-01
 0.74150002E+02  0.11521E-01
 0.74200005E+02 -0.74443E-02
 0.74250000E+02 -0.29292E-01
 0.74300003E+02 -0.45707E-01
 0.74349998E+02 -0.47119E-01
 0.74400002E+02 -0.46233E-01
 0.74450005E+02 -0.60871E-01
 0.74500000E+02 -0.66958E-01
 0.74550003E+02 -0.57717E-01
 0.74599998E+02 -0.50737E-01
 0.74650002E+02 -0.38036E-01
 0.74700005E+02 -0.16390E-01
 0.74750000E+02  0.12975E-01
 0.74800003E+02  0.44129E-01
 0.74849998E+02  0.70314E-01
 0.74900002E+02  0.99056E-01
 0.74950005E+02  0.10861E+00
 0.75000000E+02  0.10194E+00
 0.75050003E+02  0.75645E-01
 0.75099998E+02  0.18254E-01
 0.75150002E+02 -0.42436E-01
 0.75200005E+02 -0.96449E-01
 0.75250000E+02 -0.12809E+00
 0.75300003E+02 -0.13542E+00
 0.75349998E+02 -0.10909E+00
 0.75400002E+02 -0.65154E-01
 0.75450005E+02 -0.22250E-01
 0.75500000E+02  0.17229E-01
 0.75550003E+02  0.32956E-01
 0.75599998E+02  0.18260E-01
 0.75650002E+02 -0.77260E-02
 0.75700005E+02 -0.32845E-01
 0.75750000E+02 -0.49565E-01
 0.75800003E+02 -0.61200E-01
 0.75849998E+02 -0.64862E-01
 0.75900002E+02 -0.54289E-01
 0.75950005E+02 -0.22110E-01
 0.76000000E+02  0.21676E-01
 0.76050003E+02  0.51965E-01
 0.76099998E+02  0.72309E-01
 0.76150002E+02  0.88861E-01
 0.76200005E+02  0.91652E-01
 0.76250000E+02  0.73352E-01
 0.76300003E+02  0.62294E-01
 0.76349998E+02  0.52596E-01
 0.76400002E+02  0.42449E-01
 0.76450005E+02  0.34308E-01
 0.76500000E+02  0.27291E-01
 0.76550003E+02  0.16438E-01
 0.76599998E+02  0.82044E-02
 0.76650002E+02 -0.85289E-03
 0.76700005E+02 -0.12798E-01
 0.76750000E+02 -0.27993E-01
 0.76800003E+02 -0.53101E-01
 0.76849998E+02 -0.57504E-01
 0.76900002E+02 -0.31009E-01
 0.76950005E+02  0.50603E-02
 0.77000000E+02  0.34640E-01
 0.77050003E+02  0.61806E-01
 0.77099998E+02  0.68791E-01
 0.77150002E+02  0.55465E-01
 0.77200005E+02  0.17086E-01
 0.77250000E+02 -0.34260E-01
 0.77300003E+02 -0.81005E-01
 0.77349998E+02 -0.11667E+00
 0.77400002E+02 -0.13292E+00
 0.77450005E+02 -0.11454E+00
 0.77500000E+02 -0.62263E-01
 0.77550003E+02  0.58121E-02
 0.77599998E+02  0.72514E-01
 0.77650002E+02  0.11344E+00
 0.77700005E+02  0.13254E+00
 0.77750000E+02  0.12482E+00
 0.77800003E+02  0.10011E+00
 0.77849998E+02  0.63841E-01
 0.77900002E+02  0.19326E-01
 0.77950005E+02 -0.38656E-01
 0.78000000E+02 -0.96525E-01
 0.78050003E+02 -0.12529E+00
 0.78099998E+02 -0.13097E+00
 0.78150002E+02 -0.12012E+00
 0.78200005E+02 -0.10142E+00
 0.78250000E+02 -0.69096E-01
 0.78300003E+02 -0.41201E-01
 0.78349998E+02 -0.19532E-01
 0.78400002E+02  0.92373E-02
 0.78450005E+02  0.29327E-01
 0.78500000E+02  0.46847E-01
 0.78550003E+02  0.62741E-01
 0.78599998E+02  0.66799E-01
 0.78650002E+02  0.51925E-01
 0.78700005E+02  0.38362E-01
 0.78750000E+02  0.33513E-01
 0.78800003E+02  0.27757E-01
 0.78849998E+02  0.34364E-01
 0.78900002E+02  0.51273E-01
 0.78950005E+02  0.72797E-01
 0.79000000E+02  0.88339E-01
 0.79050003E+02  0.89839E-01
 0.79099998E+02  0.86060E-01
 0.79150002E+02  0.70981E-01
 0.79200005E+02  0.48850E-01
 0.79250000E+02  0.22561E-01
 0.79300003E+02 -0.15643E-01
 0.79349998E+02 -0.55666E-01
 0.79400002E+02 -0.89853E-01
 0.79450005E+02 -0.11218E+00
 0.79500000E+02 -0.11643E+00
 0.79550003E+02 -0.10310E+00
 0.79599998E+02 -0.89097E-01
 0.79650002E+02 -0.73529E-01
 0.79700005E+02 -0.52997E-01
 0.79750000E+02 -0.31910E-01
 0.79800003E+02 -0.20162E-01
 0.79849998E+02 -0.16377E-01
 0.79900002E+02 -0.71962E-03
 0.79950005E+02  0.15521E-01
 0.80000000E+02  0.37648E-01
 0.80050003E+02  0.59187E-01
 0.80099998E+02  0.69305E-01
 0.80150002E+02  0.74960E-01
 0.80200005E+02  0.77958E-01
 0.80250000E+02  0.77077E-01
 0.80300003E+02  0.80729E-01
 0.80349998E+02  0.77115E-01
 0.80400002E+02  0.63656E-01
 0.80450005E+02  0.44525E-01
 0.80500000E+02  0.22232E-01
 0.80550003E+02  0.77269E-02
 0.80599998E+02 -0.71924E-02
 0.80650002E+02 -0.14644E-01
 0.80700005E+02 -0.32708E-01
 0.80750000E+02 -0.55484E-01
 0.80800003E+02 -0.83108E-01
 0.80849998E+02 -0.10220E+00
 0.80900002E+02 -0.97871E-01
 0.80950005E+02 -0.92505E-01
 0.81000000E+02 -0.74899E-01
 0.81050003E+02 -0.52669E-01
 0.81099998E+02 -0.30968E-01
 0.81150002E+02 -0.53037E-02
 0.81200005E+02  0.24101E-01
 0.81250000E+02  0.42604E-01
 0.81300003E+02  0.40414E-01
 0.81349998E+02  0.37762E-01
 0.81400002E+02  0.41450E-01
 0.81450005E+02  0.48203E-01
 0.81500000E+02  0.55236E-01
 0.81550003E+02  0.61463E-01
 0.81599998E+02  0.67143E-01
 0.81650002E+02  0.63075E-01
 0.81700005E+02  0.39197E-01
 0.81750000E+02  0.10997E-01
 0.81800003E+02 -0.27383E-01
 0.81849998E+02 -0.73027E-01
 0.81900002E+02 -0.11065E+00
 0.81950005E+02 -0.13829E+00
 0.82000000E+02 -0.14372E+00
 0.82050003E+02 -0.13713E+00
 0.82099998E+02 -0.12283E+00
 0.82150002E+02 -0.96067E-01
 0.82200005E+02 -0.57061E-01
 0.82250000E+02 -0.70650E-02
 0.82300003E+02  0.39441E-01
 0.82349998E+02  0.73381E-01
 0.82400002E+02  0.99342E-01
 0.82450005E+02  0.10336E+00
 0.82500000E+02  0.76178E-01
 0.82550003E+02  0.41502E-01
 0.82599998E+02  0.11571E-01
 0.82650002E+02 -0.99519E-02
 0.82700005E+02 -0.21890E-01
 0.82750000E+02 -0.26969E-01
 0.82800003E+02 -0.13681E-01
 0.82849998E+02  0.13706E-01
 0.82900002E+02  0.36937E-01
 0.82950005E+02  0.40876E-01
 0.83000000E+02  0.33555E-01
 0.83050003E+02  0.20870E-01
 0.83099998E+02 -0.41708E-02
 0.83150002E+02 -0.37758E-01
 0.83200005E+02 -0.72788E-01
 0.83250000E+02 -0.84759E-01
 0.83300003E+02 -0.77211E-01
 0.83349998E+02 -0.58375E-01
 0.83400002E+02 -0.28866E-01
 0.83450005E+02  0.15123E-02
 0.83500000E+02  0.32943E-01
 0.83550003E+02  0.55490E-01
 0.83599998E+02  0.63595E-01
 0.83650002E+02  0.61426E-01
 0.83700005E+02  0.67222E-01
 0.83750000E+02  0.71483E-01
 0.83800003E+02  0.67055E-01
 0.83849998E+02  0.58006E-01
 0.83900002E+02  0.45876E-01
 0.83950005E+02  0.33406E-01
 0.84000000E+02  0.60495E-02
 0.84050003E+02 -0.22308E-01
 0.84099998E+02 -0.44406E-01
 0.84150002E+02 -0.61260E-01
 0.84200005E+02 -0.65694E-01
 0.84250000E+02 -0.57702E-01
 0.84300003E+02 -0.38726E-01
 0.84349998E+02 -0.14124E-01
 0.84400002E+02  0.15264E-01
 0.84450005E+02  0.35130E-01
 0.84500000E+02  0.27514E-01
 0.84550003E+02  0.76338E-02
 0.84599998E+02 -0.23624E-02
 0.84650002E+02 -0.12063E-01
 0.84700005E+02 -0.23080E-01
 0.84750000E+02 -0.20372E-01
 0.84800003E+02 -0.56296E-02
 0.84849998E+02  0.60035E-02
 0.84900002E+02  0.19571E-01
 0.84950005E+02  0.40351E-01
 0.85000000E+02  0.61520E-01
 0.85050003E+02  0.86036E-01
 0.85099998E+02  0.97851E-01
 0.85150002E+02  0.86234E-01
 0.85200005E+02  0.58199E-01
 0.85250000E+02  0.27449E-01
 0.85300003E+02  0.24822E-02
 0.85349998E+02 -0.25173E-01
 0.85400002E+02 -0.49346E-01
 0.85450005E+02 -0.67479E-01
 0.85500000E+02 -0.85610E-01
 0.85550003E+02 -0.94842E-01
 0.85599998E+02 -0.90518E-01
 0.85650002E+02 -0.88070E-01
 0.85700005E+02 -0.86626E-01
 0.85750000E+02 -0.72590E-01
 0.85800003E+02 -0.58111E-01
 0.85849998E+02 -0.40592E-01
 0.85900002E+02 -0.11907E-01
 0.85950005E+02  0.24398E-01
 0.86000000E+02  0.55677E-01
 0.86050003E+02  0.78349E-01
 0.86099998E+02  0.99892E-01
 0.86150002E+02  0.10547E+00
 0.86200005E+02  0.99378E-01
 0.86250000E+02  0.92520E-01
 0.86300003E+02  0.86830E-01
 0.86349998E+02  0.74967E-01
 0.86400002E+02  0.57065E-01
 0.86450005E+02  0.45286E-01
 0.86500000E+02  0.36566E-01
 0.86550003E+02  0.26322E-01
 0.86599998E+02  0.15382E-01
 0.86650002E+02  0.10472E-01
 0.86700005E+02  0.88195E-02
 0.86750000E+02  0.12833E-01
 0.86800003E+02  0.28960E-01
 0.86849998E+02  0.39923E-01
 0.86900002E+02  0.31715E-01
 0.86950005E+02  0.37403E-02
 0.87000000E+02 -0.37581E-01
 0.87050003E+02 -0.71296E-01
 0.87099998E+02 -0.89468E-01
 0.87150002E+02 -0.97211E-01
 0.87200005E+02 -0.98514E-01
 0.87250000E+02 -0.92901E-01
 0.87300003E+02 -0.87088E-01
 0.87349998E+02 -0.82406E-01
 0.87400002E+02 -0.71963E-01
 0.87450005E+02 -0.49285E-01
 0.87500000E+02 -0.12633E-01
 0.87550003E+02  0.27139E-01
 0.87599998E+02  0.55429E-01
 0.87650002E+02  0.70867E-01
 0.87700005E+02  0.74658E-01
 0.87750000E+02  0.63085E-01
 0.87800003E+02  0.42245E-01
 0.87849998E+02  0.23867E-01
 0.87900002E+02  0.15346E-01
 0.87950005E+02  0.83758E-02
 0.88000000E+02  0.28006E-02
 0.88050003E+02  0.31568E-02
 0.88099998E+02 -0.12158E-02
 0.88150002E+02  0.27414E-03
 0.88200005E+02  0.98270E-02
 0.88250000E+02  0.19052E-01
 0.88300003E+02  0.28228E-01
 0.88349998E+02  0.28956E-01
 0.88400002E+02  0.21217E-01
 0.88450005E+02 -0.26189E-02
 0.88500000E+02 -0.31243E-01
 0.88550003E+02 -0.54359E-01
 0.88599998E+02 -0.81259E-01
 0.88650002E+02 -0.10529E+00
 0.88700005E+02 -0.11651E+00
 0.88750000E+02 -0.11430E+00
 0.88800003E+02 -0.95149E-01
 0.88849998E+02 -0.68553E-01
 0.88900002E+02 -0.38306E-01
 0.88950005E+02 -0.62416E-02
 0.89000000E+02  0.21222E-01
 0.89050003E+02  0.42755E-01
 0.89099998E+02  0.50637E-01
 0.89150002E+02  0.49451E-01
 0.89200005E+02  0.43527E-01
 0.89250000E+02  0.36001E-01
 0.89300003E+02  0.31991E-01
 0.89349998E+02  0.31568E-01
 0.89400002E+02  0.25977E-01
 0.89450005E+02  0.16155E-01
 0.89500000E+02  0.49181E-02
 0.89550003E+02 -0.68268E-02
 0.89599998E+02 -0.17294E-01
 0.89650002E+02 -0.27835E-01
 0.89700005E+02 -0.36878E-01
 0.89750000E+02 -0.41931E-01
 0.89800003E+02 -0.44607E-01
 0.89849998E+02 -0.51734E-01
 0.89900002E+02 -0.65067E-01
 0.89950005E+02 -0.74827E-01
 0.90000000E+02 -0.68127E-01
 0.90050003E+02 -0.47058E-01
 0.90099998E+02 -0.13963E-01
 0.90150002E+02  0.26924E-01
 0.90200005E+02  0.68899E-01
 0.90250000E+02  0.10466E+00
 0.90300003E+02  0.12512E+00
 0.90349998E+02  0.12948E+00
 0.90400002E+02  0.11701E+00
 0.90450005E+02  0.93553E-01
 0.90500000E+02  0.66168E-01
 0.90550003E+02  0.37439E-01
 0.90599998E+02  0.99856E-02
 0.90650002E+02 -0.95839E-02
 0.90700005E+02 -0.18181E-01
 0.90750000E+02 -0.14699E-01
 0.90800003E+02 -0.46741E-02
 0.90849998E+02  0.36759E-02
 0.90900002E+02  0.18632E-01
 0.90950005E+02  0.31828E-01
 0.91000000E+02  0.38234E-01
 0.91050003E+02  0.38242E-01
 0.91099998E+02  0.29185E-01
 0.91150002E+02  0.14655E-01
 0.91200005E+02 -0.84910E-02
 0.91250000E+02 -0.43794E-01
 0.91300003E+02 -0.75972E-01
 0.91349998E+02 -0.10188E+00
 0.91400002E+02 -0.12474E+00
 0.91450005E+02 -0.13457E+00
 0.91500000E+02 -0.12754E+00
 0.91550003E+02 -0.10675E+00
 0.91599998E+02 -0.80329E-01
 0.91650002E+02 -0.46075E-01
 0.91700005E+02 -0.82891E-02
 0.91750000E+02  0.31250E-01
 0.91800003E+02  0.63926E-01
 0.91849998E+02  0.93131E-01
 0.91900002E+02  0.12285E+00
 0.91950005E+02  0.13833E+00
 0.92000000E+02  0.14677E+00
 0.92050003E+02  0.14178E+00
 0.92099998E+02  0.11521E+00
 0.92150002E+02  0.78817E-01
 0.92200005E+02  0.38937E-01
 0.92250000E+02  0.27339E-02
 0.92300003E+02 -0.23560E-01
 0.92349998E+02 -0.40445E-01
 0.92400002E+02 -0.45013E-01
 0.92450005E+02 -0.38225E-01
 0.92500000E+02 -0.32830E-01
 0.92550003E+02 -0.28350E-01
 0.92599998E+02 -0.21904E-01
 0.92650002E+02 -0.18298E-01
 0.92700005E+02 -0.15772E-01
 0.92750000E+02 -0.15980E-01
 0.92800003E+02 -0.19481E-01
 0.92849998E+02 -0.19359E-01
 0.92900002E+02 -0.14875E-01
 0.92950005E+02 -0.14189E-01
 0.93000000E+02 -0.13829E-01
 0.93050003E+02 -0.16831E-01
 0.93099998E+02 -0.32059E-01
 0.93150002E+02 -0.47135E-01
 0.93200005E+02 -0.58103E-01
 0.93250000E+02 -0.59030E-01
 0.93300003E+02 -0.51733E-01
 0.93349998E+02 -0.47211E-01
 0.93400002E+02 -0.38250E-01
 0.93450005E+02 -0.20700E-01
 0.93500000E+02 -0.19151E-04
 0.93550003E+02  0.22453E-01
 0.93599998E+02  0.40732E-01
 0.93650002E+02  0.52322E-01
 0.93700005E+02  0.58048E-01
 0.93750000E+02  0.59654E-01
 0.93800003E+02  0.55651E-01
 0.93849998E+02  0.41580E-01
 0.93900002E+02  0.28296E-01
 0.93950005E+02  0.15868E-01
 0.94000000E+02  0.30437E-02
 0.94050003E+02 -0.11868E-01
 0.94099998E+02 -0.28420E-01
 0.94150002E+02 -0.40497E-01
 0.94200005E+02 -0.51052E-01
 0.94250000E+02 -0.63254E-01
 0.94300003E+02 -0.74296E-01
 0.94349998E+02 -0.77559E-01
 0.94400002E+02 -0.70837E-01
 0.94450005E+02 -0.52769E-01
 0.94500000E+02 -0.24570E-01
 0.94550003E+02  0.33831E-02
 0.94599998E+02  0.23812E-01
 0.94650002E+02  0.37080E-01
 0.94700005E+02  0.38330E-01
 0.94750000E+02  0.30476E-01
 0.94800003E+02  0.21203E-01
 0.94849998E+02  0.10036E-01
 0.94900002E+02  0.37188E-02
 0.94950005E+02  0.35195E-02
 0.95000000E+02  0.61009E-02
 0.95050003E+02  0.14507E-01
 0.95099998E+02  0.23525E-01
 0.95150002E+02  0.31244E-01
 0.95200005E+02  0.37795E-01
 0.95250000E+02  0.40648E-01
 0.95300003E+02  0.38426E-01
 0.95349998E+02  0.35931E-01
 0.95400002E+02  0.30044E-01
 0.95450005E+02  0.19513E-01
 0.95500000E+02  0.10911E-01
 0.95550003E+02 -0.19980E-02
 0.95599998E+02 -0.14329E-01
 0.95650002E+02 -0.24445E-01
 0.95700005E+02 -0.33465E-01
 0.95750000E+02 -0.44224E-01
 0.95800003E+02 -0.53282E-01
 0.95849998E+02 -0.53832E-01
 0.95900002E+02 -0.48422E-01
 0.95950005E+02 -0.34469E-01
 0.96000000E+02 -0.12206E-01
 0.96050003E+02  0.10486E-01
 0.96099998E+02  0.29300E-01
 0.96150002E+02  0.41875E-01
 0.96200005E+02  0.49197E-01
 0.96250000E+02  0.55544E-01
 0.96300003E+02  0.60288E-01
 0.96349998E+02  0.60213E-01
 0.96400002E+02  0.53727E-01
 0.96450005E+02  0.46338E-01
 0.96500000E+02  0.34019E-01
 0.96550003E+02  0.19553E-01
 0.96599998E+02  0.11485E-03
 0.96650002E+02 -0.26031E-01
 0.96700005E+02 -0.47063E-01
 0.96750000E+02 -0.69464E-01
 0.96800003E+02 -0.89046E-01
 0.96849998E+02 -0.99001E-01
 0.96900002E+02 -0.98456E-01
 0.96950005E+02 -0.86795E-01
 0.97000000E+02 -0.70506E-01
 0.97050003E+02 -0.48929E-01
 0.97099998E+02 -0.20117E-01
 0.97150002E+02  0.90938E-02
 0.97200005E+02  0.31703E-01
 0.97250000E+02  0.48684E-01
 0.97300003E+02  0.65720E-01
 0.97349998E+02  0.80855E-01
 0.97400002E+02  0.85971E-01
 0.97450005E+02  0.83176E-01
 0.97500000E+02  0.72687E-01
 0.97550003E+02  0.52948E-01
 0.97599998E+02  0.26976E-01
 0.97650002E+02 -0.39766E-03
 0.97700005E+02 -0.24019E-01
 0.97750000E+02 -0.39026E-01
 0.97800003E+02 -0.40751E-01
 0.97849998E+02 -0.33469E-01
 0.97900002E+02 -0.20129E-01
 0.97950005E+02 -0.15429E-02
 0.98000000E+02  0.18515E-01
 0.98050003E+02  0.33460E-01
 0.98099998E+02  0.41393E-01
 0.98150002E+02  0.43310E-01
 0.98200005E+02  0.33931E-01
 0.98250000E+02  0.13921E-01
 0.98300003E+02 -0.15643E-01
 0.98349998E+02 -0.45556E-01
 0.98400002E+02 -0.66426E-01
 0.98450005E+02 -0.77039E-01
 0.98500000E+02 -0.71765E-01
 0.98550003E+02 -0.54304E-01
 0.98599998E+02 -0.32143E-01
 0.98650002E+02 -0.14478E-01
 0.98700005E+02  0.20091E-02
 0.98750000E+02  0.20829E-01
 0.98800003E+02  0.31369E-01
 0.98849998E+02  0.34104E-01
 0.98900002E+02  0.33102E-01
 0.98950005E+02  0.32278E-01
 0.99000000E+02  0.32288E-01
 0.99050003E+02  0.33763E-01
 0.99099998E+02  0.36229E-01
 0.99150002E+02  0.40744E-01
 0.99200005E+02  0.46204E-01
 0.99250000E+02  0.46467E-01
 0.99300003E+02  0.42579E-01
 0.99349998E+02  0.38450E-01
 0.99400002E+02  0.41599E-01
 0.99450005E+02  0.48503E-01
 0.99500000E+02  0.50690E-01
 0.99550003E+02  0.46448E-01
 0.99599998E+02  0.29750E-01
 0.99650002E+02  0.12361E-02
 0.99700005E+02 -0.31011E-01
 0.99750000E+02 -0.62825E-01
 0.99800003E+02 -0.88998E-01
 0.99849998E+02 -0.10512E+00
 0.99900002E+02 -0.11114E+00
 0.99950005E+02 -0.10804E+00
 0.10000000E+03 -0.95348E-01
 0.10005000E+03 -0.73571E-01
 0.10010000E+03 -0.45171E-01
 0.10015000E+03 -0.12122E-01
 0.10020000E+03  0.22654E-01
 0.10025000E+03  0.59826E-01
 0.10030000E+03  0.90583E-01
 0.10035000E+03  0.11108E+00
 0.10040000E+03  0.11979E+00
 0.10045000E+03  0.11315E+00
 0.10050000E+03  0.95298E-01
 0.10055000E+03  0.67951E-01
 0.10060000E+03  0.28980E-01
 0.10065000E+03 -0.12805E-01
 0.10070000E+03 -0.46002E-01
 0.10075000E+03 -0.69572E-01
 0.10080000E+03 -0.80392E-01
 0.10085000E+03 -0.80719E-01
 0.10090000E+03 -0.73339E-01
 0.10095000E+03 -0.60321E-01
 0.10100000E+03 -0.42970E-01
 0.10105000E+03 -0.30561E-01
 0.10110000E+03 -0.24801E-01
 0.10115000E+03 -0.23823E-01
 0.10120000E+03 -0.24707E-01
 0.10125000E+03 -0.25114E-01
 0.10130000E+03 -0.27969E-01
 0.10135000E+03 -0.29099E-01
 0.10140000E+03 -0.23876E-01
 0.10145000E+03 -0.11856E-01
 0.10150000E+03  0.19966E-02
 0.10155000E+03  0.16318E-01
 0.10160000E+03  0.31944E-01
 0.10165000E+03  0.47574E-01
 0.10170000E+03  0.59659E-01
 0.10175000E+03  0.73487E-01
 0.10180000E+03  0.79275E-01
 0.10185000E+03  0.74527E-01
 0.10190000E+03  0.61758E-01
 0.10195000E+03  0.36929E-01
 0.10200000E+03  0.10040E-01
 0.10205000E+03 -0.13735E-01
 0.10210000E+03 -0.31536E-01
 0.10215000E+03 -0.48820E-01
 0.10220000E+03 -0.60111E-01
 0.10225000E+03 -0.62041E-01
 0.10230000E+03 -0.60592E-01
 0.10235000E+03 -0.59534E-01
 0.10240000E+03 -0.56882E-01
 0.10245000E+03 -0.50517E-01
 0.10250000E+03 -0.45852E-01
 0.10255000E+03 -0.39650E-01
 0.10260000E+03 -0.32066E-01
 0.10265000E+03 -0.19709E-01
 0.10270000E+03  0.74274E-03
 0.10275000E+03  0.23339E-01
 0.10280000E+03  0.35903E-01
 0.10285000E+03  0.39607E-01
 0.10290000E+03  0.35733E-01
 0.10295000E+03  0.24212E-01
 0.10300000E+03  0.13727E-01
 0.10305000E+03  0.49526E-02
 0.10310000E+03  0.87874E-03
 0.10315000E+03  0.50875E-02
 0.10320000E+03  0.19142E-01
 0.10325000E+03  0.32755E-01
 0.10330000E+03  0.42488E-01
 0.10335000E+03  0.50648E-01
 0.10340000E+03  0.54516E-01
 0.10345000E+03  0.52946E-01
 0.10350000E+03  0.47744E-01
 0.10355000E+03  0.40884E-01
 0.10360000E+03  0.31429E-01
 0.10365000E+03  0.20758E-01
 0.10370000E+03  0.65554E-02
 0.10375000E+03 -0.90041E-02
 0.10380000E+03 -0.25255E-01
 0.10385000E+03 -0.44477E-01
 0.10390000E+03 -0.60650E-01
 0.10395000E+03 -0.71857E-01
 0.10400000E+03 -0.80372E-01
 0.10405000E+03 -0.79519E-01
 0.10410000E+03 -0.67538E-01
 0.10415000E+03 -0.48767E-01
 0.10420000E+03 -0.19812E-01
 0.10425000E+03  0.11913E-01
 0.10430000E+03  0.38405E-01
 0.10435000E+03  0.54592E-01
 0.10440000E+03  0.58491E-01
 0.10445000E+03  0.57760E-01
 0.10450000E+03  0.50399E-01
 0.10455000E+03  0.35859E-01
 0.10460000E+03  0.17194E-01
 0.10465000E+03 -0.12684E-02
 0.10470000E+03 -0.18627E-01
 0.10475000E+03 -0.32517E-01
 0.10480000E+03 -0.38795E-01
 0.10485000E+03 -0.39907E-01
 0.10490000E+03 -0.32777E-01
 0.10495000E+03 -0.14649E-01
 0.10500000E+03  0.63163E-02
 0.10505000E+03  0.24248E-01
 0.10510000E+03  0.37866E-01
 0.10515000E+03  0.43214E-01
 0.10520000E+03  0.39366E-01
 0.10525000E+03  0.27966E-01
 0.10530000E+03  0.11533E-01
 0.10535000E+03 -0.55028E-02
 0.10540000E+03 -0.15728E-01
 0.10545000E+03 -0.20835E-01
 0.10550000E+03 -0.24472E-01
 0.10555000E+03 -0.24633E-01
 0.10560000E+03 -0.26036E-01
 0.10565000E+03 -0.29735E-01
 0.10570000E+03 -0.31954E-01
 0.10575000E+03 -0.33261E-01
 0.10580000E+03 -0.33129E-01
 0.10585000E+03 -0.24345E-01
 0.10590000E+03 -0.10385E-01
 0.10595000E+03  0.28098E-02
 0.10600000E+03  0.18404E-01
 0.10605000E+03  0.33193E-01
 0.10610000E+03  0.42131E-01
 0.10615000E+03  0.43295E-01
 0.10620000E+03  0.36863E-01
 0.10625000E+03  0.23768E-01
 0.10630000E+03  0.11919E-01
 0.10635000E+03 -0.23057E-03
 0.10640000E+03 -0.16888E-01
 0.10645000E+03 -0.28354E-01
 0.10650000E+03 -0.35895E-01
 0.10655000E+03 -0.43448E-01
 0.10660000E+03 -0.48545E-01
 0.10665000E+03 -0.46358E-01
 0.10670000E+03 -0.37596E-01
 0.10675000E+03 -0.24986E-01
 0.10680000E+03 -0.85594E-02
 0.10685000E+03  0.74278E-02
 0.10690000E+03  0.21979E-01
 0.10695000E+03  0.33194E-01
 0.10700000E+03  0.42516E-01
 0.10705000E+03  0.49122E-01
 0.10710000E+03  0.51027E-01
 0.10715000E+03  0.56498E-01
 0.10720000E+03  0.63929E-01
 0.10725000E+03  0.65875E-01
 0.10730000E+03  0.62756E-01
 0.10735000E+03  0.56882E-01
 0.10740000E+03  0.45812E-01
 0.10745000E+03  0.26471E-01
 0.10750000E+03  0.18897E-02
 0.10755000E+03 -0.26660E-01
 0.10760000E+03 -0.54711E-01
 0.10765000E+03 -0.77167E-01
 0.10770000E+03 -0.87058E-01
 0.10775000E+03 -0.84644E-01
 0.10780000E+03 -0.77778E-01
 0.10785000E+03 -0.66065E-01
 0.10790000E+03 -0.49836E-01
 0.10795000E+03 -0.29358E-01
 0.10800000E+03 -0.64703E-02
 0.10805000E+03  0.17241E-01
 0.10810000E+03  0.39437E-01
 0.10815000E+03  0.56719E-01
 0.10820000E+03  0.70286E-01
 0.10825000E+03  0.80191E-01
 0.10830000E+03  0.83018E-01
 0.10835000E+03  0.74081E-01
 0.10840000E+03  0.55242E-01
 0.10845000E+03  0.32226E-01
 0.10850000E+03  0.81176E-02
 0.10855000E+03 -0.13016E-01
 0.10860000E+03 -0.28962E-01
 0.10865000E+03 -0.39765E-01
 0.10870000E+03 -0.47769E-01
 0.10875000E+03 -0.51931E-01
 0.10880000E+03 -0.50915E-01
 0.10885000E+03 -0.50963E-01
 0.10890000E+03 -0.51264E-01
 0.10895000E+03 -0.47348E-01
 0.10900000E+03 -0.39987E-01
 0.10905000E+03 -0.32678E-01
 0.10910000E+03 -0.26305E-01
 0.10915000E+03 -0.17085E-01
 0.10920000E+03 -0.99621E-02
 0.10925000E+03 -0.74996E-02
 0.10930000E+03 -0.57949E-02
 0.10935000E+03 -0.19150E-02
 0.10940000E+03  0.59692E-02
 0.10945000E+03  0.13437E-01
 0.10950000E+03  0.21786E-01
 0.10955000E+03  0.30783E-01
 0.10960000E+03  0.41359E-01
 0.10965000E+03  0.51220E-01
 0.10970000E+03  0.56066E-01
 0.10975000E+03  0.58812E-01
 0.10980000E+03  0.58476E-01
 0.10985000E+03  0.55498E-01
 0.10990000E+03  0.47050E-01
 0.10995000E+03  0.33998E-01
 0.11000000E+03  0.17300E-01
 0.11005000E+03 -0.50656E-02
 0.11010000E+03 -0.32965E-01
 0.11015000E+03 -0.61601E-01
 0.11020000E+03 -0.86479E-01
 0.11025000E+03 -0.10646E+00
 0.11030000E+03 -0.11793E+00
 0.11035000E+03 -0.11683E+00
 0.11040000E+03 -0.10293E+00
 0.11045000E+03 -0.77955E-01
 0.11050000E+03 -0.43120E-01
 0.11055000E+03 -0.59514E-02
 0.11060000E+03  0.29584E-01
 0.11065000E+03  0.61671E-01
 0.11070000E+03  0.88155E-01
 0.11075000E+03  0.10543E+00
 0.11080000E+03  0.11140E+00
 0.11085000E+03  0.10386E+00
 0.11090000E+03  0.88721E-01
 0.11095000E+03  0.72833E-01
 0.11100000E+03  0.51815E-01
 0.11105000E+03  0.29642E-01
 0.11110000E+03  0.10696E-01
 0.11115000E+03 -0.30793E-02
 0.11120000E+03 -0.96809E-02
 0.11125000E+03 -0.10062E-01
 0.11130000E+03 -0.79220E-02
 0.11135000E+03 -0.71806E-02
 0.11140000E+03 -0.83835E-02
 0.11145000E+03 -0.11169E-01
 0.11150000E+03 -0.17129E-01
 0.11155000E+03 -0.24961E-01
 0.11160000E+03 -0.34474E-01
 0.11165000E+03 -0.43579E-01
 0.11170000E+03 -0.46928E-01
 0.11175000E+03 -0.45435E-01
 0.11180000E+03 -0.41987E-01
 0.11185000E+03 -0.39102E-01
 0.11190000E+03 -0.31877E-01
 0.11195000E+03 -0.21397E-01
 0.11200000E+03 -0.10680E-01
 0.11205000E+03  0.14544E-02
 0.11210000E+03  0.12129E-01
 0.11215000E+03  0.25228E-01
 0.11220000E+03  0.39224E-01
 0.11225000E+03  0.50060E-01
 0.11230000E+03  0.55972E-01
 0.11235000E+03  0.54370E-01
 0.11240000E+03  0.44331E-01
 0.11245000E+03  0.26928E-01
 0.11250000E+03  0.53904E-02
 0.11255000E+03 -0.18709E-01
 0.11260000E+03 -0.39320E-01
 0.11265000E+03 -0.51875E-01
 0.11270000E+03 -0.57105E-01
 0.11275000E+03 -0.55632E-01
 0.11280000E+03 -0.49894E-01
 0.11285000E+03 -0.39732E-01
 0.11290000E+03 -0.25334E-01
 0.11295000E+03 -0.99751E-02
 0.11300000E+03  0.81222E-02
 0.11305000E+03  0.23673E-01
 0.11310000E+03  0.34090E-01
 0.11315000E+03  0.40691E-01
 0.11320000E+03  0.41574E-01
 0.11325000E+03  0.39517E-01
 0.11330000E+03  0.34361E-01
 0.11335000E+03  0.29113E-01
 0.11340000E+03  0.24741E-01
 0.11345000E+03  0.21136E-01
 0.11350000E+03  0.18256E-01
 0.11355000E+03  0.13457E-01
 0.11360000E+03  0.64209E-02
 0.11365000E+03 -0.28238E-02
 0.11370000E+03 -0.12688E-01
 0.11375000E+03 -0.20448E-01
 0.11380000E+03 -0.28574E-01
 0.11385000E+03 -0.36029E-01
 0.11390000E+03 -0.41941E-01
 0.11395000E+03 -0.47222E-01
 0.11400000E+03 -0.50459E-01
 0.11405000E+03 -0.53061E-01
 0.11410000E+03 -0.52505E-01
 0.11415000E+03 -0.47366E-01
 0.11420000E+03 -0.35322E-01
 0.11425000E+03 -0.19238E-01
 0.11430000E+03 -0.13791E-02
 0.11435000E+03  0.16012E-01
 0.11440000E+03  0.30525E-01
 0.11445000E+03  0.40215E-01
 0.11450000E+03  0.45518E-01
 0.11455000E+03  0.51542E-01
 0.11460000E+03  0.56599E-01
 0.11465000E+03  0.62957E-01
 0.11470000E+03  0.67495E-01
 0.11475000E+03  0.66911E-01
 0.11480000E+03  0.63059E-01
 0.11485000E+03  0.55289E-01
 0.11490000E+03  0.42295E-01
 0.11495000E+03  0.23439E-01
 0.11500000E+03  0.22461E-02
 0.11505000E+03 -0.19164E-01
 0.11510000E+03 -0.40416E-01
 0.11515000E+03 -0.60201E-01
 0.11520000E+03 -0.73486E-01
 0.11525000E+03 -0.76423E-01
 0.11530000E+03 -0.71225E-01
 0.11535000E+03 -0.61390E-01
 0.11540000E+03 -0.48216E-01
 0.11545000E+03 -0.29435E-01
 0.11550000E+03 -0.89576E-02
 0.11555000E+03  0.66022E-02
 0.11560000E+03  0.18520E-01
 0.11565000E+03  0.28535E-01
 0.11570000E+03  0.35780E-01
 0.11575000E+03  0.41456E-01
 0.11580000E+03  0.46983E-01
 0.11585000E+03  0.49327E-01
 0.11590000E+03  0.47489E-01
 0.11595000E+03  0.42524E-01
 0.11600000E+03  0.34517E-01
 0.11605000E+03  0.23333E-01
 0.11610000E+03  0.10603E-01
 0.11615000E+03 -0.13543E-02
 0.11620000E+03 -0.10985E-01
 0.11625000E+03 -0.19443E-01
 0.11630000E+03 -0.26492E-01
 0.11635000E+03 -0.31389E-01
 0.11640000E+03 -0.33378E-01
 0.11645000E+03 -0.34435E-01
 0.11650000E+03 -0.36944E-01
 0.11655000E+03 -0.39838E-01
 0.11660000E+03 -0.43388E-01
 0.11665000E+03 -0.44278E-01
 0.11670000E+03 -0.42267E-01
 0.11675000E+03 -0.36934E-01
 0.11680000E+03 -0.28769E-01
 0.11685000E+03 -0.20679E-01
 0.11690000E+03 -0.14303E-01
 0.11695000E+03 -0.73341E-02
 0.11700000E+03  0.30365E-02
 0.11705000E+03  0.14388E-01
 0.11710000E+03  0.24939E-01
 0.11715000E+03  0.37432E-01
 0.11720000E+03  0.49585E-01
 0.11725000E+03  0.54851E-01
 0.11730000E+03  0.54172E-01
 0.11735000E+03  0.48743E-01
 0.11740000E+03  0.38952E-01
 0.11745000E+03  0.23518E-01
 0.11750000E+03  0.34706E-02
 0.11755000E+03 -0.15658E-01
 0.11760000E+03 -0.33290E-01
 0.11765000E+03 -0.45772E-01
 0.11770000E+03 -0.51329E-01
 0.11775000E+03 -0.52487E-01
 0.11780000E+03 -0.49023E-01
 0.11785000E+03 -0.43520E-01
 0.11790000E+03 -0.37938E-01
 0.11795000E+03 -0.33281E-01
 0.11800000E+03 -0.27602E-01
 0.11805000E+03 -0.18989E-01
 0.11810000E+03 -0.10311E-01
 0.11815000E+03 -0.20370E-02
 0.11820000E+03  0.47566E-02
 0.11825000E+03  0.10388E-01
 0.11830000E+03  0.15312E-01
 0.11835000E+03  0.19170E-01
 0.11840000E+03  0.23549E-01
 0.11845000E+03  0.26679E-01
 0.11850000E+03  0.27921E-01
 0.11855000E+03  0.28307E-01
 0.11860000E+03  0.29930E-01
 0.11865000E+03  0.31898E-01
 0.11870000E+03  0.32043E-01
 0.11875000E+03  0.33806E-01
 0.11880000E+03  0.36471E-01
 0.11885000E+03  0.39273E-01
 0.11890000E+03  0.43025E-01
 0.11895000E+03  0.45005E-01
 0.11900000E+03  0.42772E-01
 0.11905000E+03  0.35623E-01
 0.11910000E+03  0.24330E-01
 0.11915000E+03  0.93217E-02
 0.11920000E+03 -0.42651E-02
 0.11925000E+03 -0.13866E-01
 0.11930000E+03 -0.20308E-01
 0.11935000E+03 -0.23510E-01
 0.11940000E+03 -0.25586E-01
 0.11945000E+03 -0.26053E-01
 0.11950000E+03 -0.21116E-01
 0.11955000E+03 -0.14865E-01
 0.11960000E+03 -0.11566E-01
 0.11965000E+03 -0.85297E-02
 0.11970000E+03 -0.68455E-02
 0.11975000E+03 -0.53124E-02
 0.11980000E+03 -0.43358E-02
 0.11985000E+03 -0.35715E-02
 0.11990000E+03 -0.10695E-02
 0.11995000E+03  0.20684E-02
 0.12000000E+03  0.14289E-02
