 0.00000000E+00  0.11412E-03
 0.50000001E-01  0.15362E-03
 0.10000000E+00  0.14720E-03
 0.15000001E+00  0.14975E-03
 0.20000000E+00  0.13965E-03
 0.25000000E+00  0.13890E-03
 0.30000001E+00  0.13355E-03
 0.34999999E+00  0.13989E-03
 0.40000001E+00  0.13742E-03
 0.45000002E+00  0.13463E-03
 0.50000000E+00  0.12895E-03
 0.55000001E+00  0.12558E-03
 0.60000002E+00  0.12055E-03
 0.65000004E+00  0.11247E-03
 0.69999999E+00  0.10475E-03
 0.75000000E+00  0.87386E-04
 0.80000001E+00  0.73725E-04
 0.85000002E+00  0.58146E-04
 0.90000004E+00  0.46419E-04
 0.94999999E+00  0.32640E-04
 0.10000000E+01  0.16167E-04
 0.10500001E+01 -0.14743E-05
 0.11000000E+01 -0.20129E-04
 0.11500000E+01 -0.40335E-04
 0.12000000E+01 -0.64862E-04
 0.12500000E+01 -0.87464E-04
 0.13000001E+01 -0.11323E-03
 0.13500000E+01 -0.13054E-03
 0.14000000E+01 -0.14665E-03
 0.14500000E+01 -0.16376E-03
 0.15000000E+01 -0.17931E-03
 0.15500001E+01 -0.18768E-03
 0.16000000E+01 -0.19034E-03
 0.16500000E+01 -0.18636E-03
 0.17000000E+01 -0.18045E-03
 0.17500000E+01 -0.17412E-03
 0.18000001E+01 -0.16143E-03
 0.18500000E+01 -0.14817E-03
 0.19000000E+01 -0.12948E-03
 0.19500000E+01 -0.11681E-03
 0.20000000E+01 -0.97875E-04
 0.20500000E+01 -0.80198E-04
 0.21000001E+01 -0.55337E-04
 0.21500001E+01 -0.36658E-04
 0.22000000E+01 -0.22967E-04
 0.22500000E+01 -0.20165E-05
 0.23000000E+01  0.13174E-04
 0.23500001E+01  0.26266E-04
 0.24000001E+01  0.39069E-04
 0.24500000E+01  0.51147E-04
 0.25000000E+01  0.56719E-04
 0.25500000E+01  0.60297E-04
 0.26000001E+01  0.57016E-04
 0.26500001E+01  0.55942E-04
 0.27000000E+01  0.52262E-04
 0.27500000E+01  0.52618E-04
 0.28000000E+01  0.47211E-04
 0.28500001E+01  0.42991E-04
 0.29000001E+01  0.39572E-04
 0.29500000E+01  0.33013E-04
 0.30000000E+01  0.28496E-04
 0.30500000E+01  0.24414E-04
 0.31000001E+01  0.22549E-04
 0.31500001E+01  0.20864E-04
 0.32000000E+01  0.22401E-04
 0.32500000E+01  0.19952E-04
 0.33000000E+01  0.17892E-04
 0.33500001E+01  0.19230E-04
 0.34000001E+01  0.19210E-04
 0.34500000E+01  0.13012E-04
 0.35000000E+01  0.87228E-05
 0.35500000E+01  0.92037E-05
 0.36000001E+01  0.74869E-05
 0.36500001E+01  0.34511E-05
 0.37000000E+01  0.58102E-05
 0.37500000E+01  0.59508E-05
 0.38000000E+01  0.61100E-05
 0.38500001E+01  0.39807E-05
 0.39000001E+01  0.22938E-05
 0.39500000E+01  0.20588E-06
 0.40000000E+01 -0.39567E-06
 0.40500002E+01  0.23857E-05
 0.40999999E+01 -0.12037E-05
 0.41500001E+01 -0.31643E-05
 0.42000003E+01 -0.58532E-05
 0.42500000E+01 -0.11008E-04
 0.43000002E+01 -0.12908E-04
 0.43499999E+01 -0.10015E-04
 0.44000001E+01 -0.99948E-05
 0.44500003E+01 -0.11820E-04
 0.45000000E+01 -0.14507E-04
 0.45500002E+01 -0.16022E-04
 0.45999999E+01 -0.15159E-04
 0.46500001E+01 -0.14949E-04
 0.47000003E+01 -0.14459E-04
 0.47500000E+01 -0.12448E-04
 0.48000002E+01 -0.55555E-05
 0.48499999E+01  0.15754E-05
 0.49000001E+01  0.12647E-04
 0.49500003E+01  0.25432E-04
 0.50000000E+01  0.31142E-04
 0.50500002E+01  0.40656E-04
 0.50999999E+01  0.41815E-04
 0.51500001E+01  0.41586E-04
 0.52000003E+01  0.37153E-04
 0.52500000E+01  0.32127E-04
 0.53000002E+01  0.28167E-04
 0.53499999E+01  0.24876E-04
 0.54000001E+01  0.22467E-04
 0.54500003E+01  0.15290E-04
 0.55000000E+01  0.87659E-05
 0.55500002E+01  0.27039E-05
 0.55999999E+01 -0.19226E-05
 0.56500001E+01 -0.67184E-05
 0.57000003E+01 -0.28961E-05
 0.57500000E+01 -0.31430E-05
 0.58000002E+01 -0.65043E-06
 0.58499999E+01 -0.12624E-05
 0.59000001E+01 -0.41251E-05
 0.59500003E+01 -0.48761E-05
 0.60000000E+01 -0.52511E-05
 0.60500002E+01 -0.21836E-05
 0.60999999E+01  0.93951E-07
 0.61500001E+01  0.33897E-05
 0.62000003E+01  0.25744E-05
 0.62500000E+01  0.37616E-05
 0.63000002E+01  0.64107E-05
 0.63499999E+01  0.70042E-05
 0.64000001E+01  0.75737E-05
 0.64500003E+01  0.10442E-04
 0.65000000E+01  0.12403E-04
 0.65500002E+01  0.14820E-04
 0.65999999E+01  0.16625E-04
 0.66500001E+01  0.23356E-04
 0.67000003E+01  0.30530E-04
 0.67500000E+01  0.35951E-04
 0.68000002E+01  0.45532E-04
 0.68499999E+01  0.54397E-04
 0.69000001E+01  0.61256E-04
 0.69500003E+01  0.67915E-04
 0.70000000E+01  0.73301E-04
 0.70500002E+01  0.79731E-04
 0.70999999E+01  0.81534E-04
 0.71500001E+01  0.75271E-04
 0.72000003E+01  0.70278E-04
 0.72500000E+01  0.61876E-04
 0.73000002E+01  0.45671E-04
 0.73499999E+01  0.30173E-04
 0.74000001E+01  0.21300E-04
 0.74500003E+01  0.10906E-04
 0.75000000E+01 -0.15834E-05
 0.75500002E+01 -0.16459E-04
 0.75999999E+01 -0.32836E-04
 0.76500001E+01 -0.50220E-04
 0.77000003E+01 -0.59554E-04
 0.77500000E+01 -0.69815E-04
 0.78000002E+01 -0.77829E-04
 0.78499999E+01 -0.84119E-04
 0.79000001E+01 -0.92943E-04
 0.79500003E+01 -0.10087E-03
 0.80000000E+01 -0.10910E-03
 0.80500002E+01 -0.11359E-03
 0.81000004E+01 -0.11896E-03
 0.81500006E+01 -0.11747E-03
 0.81999998E+01 -0.12185E-03
 0.82500000E+01 -0.12671E-03
 0.83000002E+01 -0.12515E-03
 0.83500004E+01 -0.12849E-03
 0.84000006E+01 -0.13261E-03
 0.84499998E+01 -0.13730E-03
 0.85000000E+01 -0.14052E-03
 0.85500002E+01 -0.13979E-03
 0.86000004E+01 -0.14092E-03
 0.86500006E+01 -0.13911E-03
 0.86999998E+01 -0.13902E-03
 0.87500000E+01 -0.13529E-03
 0.88000002E+01 -0.13523E-03
 0.88500004E+01 -0.13862E-03
 0.89000006E+01 -0.13897E-03
 0.89499998E+01 -0.13954E-03
 0.90000000E+01 -0.14154E-03
 0.90500002E+01 -0.14528E-03
 0.91000004E+01 -0.14129E-03
 0.91500006E+01 -0.13058E-03
 0.91999998E+01 -0.11791E-03
 0.92500000E+01 -0.10038E-03
 0.93000002E+01 -0.81323E-04
 0.93500004E+01 -0.59789E-04
 0.94000006E+01 -0.30976E-04
 0.94499998E+01 -0.63407E-05
 0.95000000E+01  0.22441E-04
 0.95500002E+01  0.44155E-04
 0.96000004E+01  0.67579E-04
 0.96500006E+01  0.82579E-04
 0.96999998E+01  0.88093E-04
 0.97500000E+01  0.92364E-04
 0.98000002E+01  0.94593E-04
 0.98500004E+01  0.91313E-04
 0.99000006E+01  0.84754E-04
 0.99499998E+01  0.80489E-04
 0.10000000E+02  0.68343E-04
 0.10050000E+02  0.62085E-04
 0.10100000E+02  0.52637E-04
 0.10150001E+02  0.48802E-04
 0.10200000E+02  0.50107E-04
 0.10250000E+02  0.47068E-04
 0.10300000E+02  0.51081E-04
 0.10350000E+02  0.55224E-04
 0.10400001E+02  0.65503E-04
 0.10450000E+02  0.68946E-04
 0.10500000E+02  0.66746E-04
 0.10550000E+02  0.70922E-04
 0.10600000E+02  0.71423E-04
 0.10650001E+02  0.73996E-04
 0.10700000E+02  0.86358E-04
 0.10750000E+02  0.97236E-04
 0.10800000E+02  0.10460E-03
 0.10850000E+02  0.17131E-03
 0.10900001E+02  0.22436E-03
 0.10950000E+02  0.11037E-03
 0.11000000E+02 -0.10301E-04
 0.11050000E+02 -0.24526E-03
 0.11100000E+02 -0.52340E-03
 0.11150001E+02 -0.70491E-03
 0.11200000E+02 -0.58689E-03
 0.11250000E+02 -0.26996E-03
 0.11300000E+02 -0.16346E-03
 0.11350000E+02  0.77615E-03
 0.11400001E+02  0.27895E-03
 0.11450000E+02  0.80286E-03
 0.11500000E+02 -0.37162E-03
 0.11550000E+02  0.33149E-03
 0.11600000E+02 -0.12059E-02
 0.11650001E+02  0.21802E-03
 0.11700000E+02 -0.81803E-03
 0.11750000E+02  0.10322E-02
 0.11800000E+02  0.19015E-02
 0.11850000E+02  0.79174E-02
 0.11900001E+02  0.13243E-01
 0.11950000E+02  0.40780E-01
 0.12000000E+02  0.80846E-01
 0.12050000E+02  0.94518E-01
 0.12100000E+02  0.10772E+00
 0.12150001E+02  0.85027E-01
 0.12200000E+02  0.26352E-01
 0.12250000E+02 -0.54981E-01
 0.12300000E+02 -0.85930E-01
 0.12350000E+02 -0.11790E+00
 0.12400001E+02 -0.99515E-01
 0.12450000E+02  0.12755E-01
 0.12500000E+02  0.68387E-01
 0.12550000E+02  0.91144E-01
 0.12600000E+02  0.87200E-01
 0.12650001E+02  0.38263E-01
 0.12700000E+02 -0.33866E-01
 0.12750000E+02 -0.64790E-01
 0.12800000E+02 -0.83998E-02
 0.12850000E+02  0.47254E-01
 0.12900001E+02  0.74654E-01
 0.12950000E+02  0.67874E-01
 0.13000000E+02  0.17725E-01
 0.13050000E+02 -0.45407E-01
 0.13100000E+02 -0.10353E+00
 0.13150001E+02 -0.16568E+00
 0.13200000E+02 -0.14364E+00
 0.13250000E+02 -0.11854E+00
 0.13300000E+02  0.12913E-01
 0.13350000E+02  0.95828E-01
 0.13400001E+02  0.75658E-01
 0.13450000E+02  0.83273E-01
 0.13500000E+02 -0.34202E-01
 0.13550000E+02 -0.85292E-01
 0.13600000E+02 -0.11243E+00
 0.13650001E+02  0.91600E-02
 0.13700000E+02  0.13305E+00
 0.13750000E+02  0.11512E+00
 0.13800000E+02  0.10619E+00
 0.13850000E+02  0.11264E+00
 0.13900001E+02  0.25813E-01
 0.13950000E+02 -0.43488E-02
 0.14000000E+02 -0.12052E+00
 0.14050000E+02 -0.11242E+00
 0.14100000E+02 -0.10957E+00
 0.14150001E+02 -0.16163E-01
 0.14200000E+02 -0.30299E-02
 0.14250000E+02 -0.73157E-01
 0.14300000E+02 -0.14702E-01
 0.14350000E+02 -0.75080E-01
 0.14400001E+02  0.35290E-01
 0.14450000E+02  0.33722E-01
 0.14500000E+02  0.14233E+00
 0.14550000E+02  0.15886E+00
 0.14600000E+02  0.11113E+00
 0.14650001E+02  0.67523E-01
 0.14700000E+02  0.48046E-01
 0.14750000E+02  0.49485E-01
 0.14800000E+02 -0.25075E-01
 0.14850000E+02 -0.11337E+00
 0.14900001E+02 -0.14409E+00
 0.14950000E+02 -0.18825E+00
 0.15000000E+02 -0.11596E+00
 0.15050000E+02 -0.27075E-01
 0.15100000E+02 -0.66997E-01
 0.15150001E+02 -0.15154E-01
 0.15200000E+02  0.35572E-01
 0.15250000E+02  0.71152E-01
 0.15300000E+02  0.97155E-01
 0.15350000E+02  0.74639E-01
 0.15400001E+02  0.45034E-01
 0.15450000E+02  0.16012E-01
 0.15500000E+02  0.21087E-02
 0.15550000E+02  0.28675E-01
 0.15600000E+02 -0.90279E-01
 0.15650001E+02 -0.92552E-01
 0.15700000E+02 -0.11242E+00
 0.15750000E+02 -0.13108E+00
 0.15800000E+02 -0.86900E-01
 0.15850000E+02  0.67161E-02
 0.15900001E+02  0.79121E-01
 0.15950000E+02  0.40582E-01
 0.16000000E+02  0.77025E-01
 0.16050001E+02  0.37414E-01
 0.16100000E+02  0.24308E-01
 0.16150000E+02 -0.31389E-01
 0.16200001E+02 -0.28015E-01
 0.16250000E+02  0.69808E-01
 0.16300001E+02  0.11045E+00
 0.16350000E+02  0.38636E-01
 0.16400000E+02  0.37086E-01
 0.16450001E+02 -0.14321E-01
 0.16500000E+02 -0.71615E-01
 0.16550001E+02 -0.27908E-01
 0.16600000E+02 -0.72916E-01
 0.16650000E+02 -0.77067E-01
 0.16700001E+02 -0.29536E-01
 0.16750000E+02 -0.89624E-02
 0.16800001E+02 -0.23028E-02
 0.16850000E+02  0.35410E-01
 0.16900000E+02  0.25916E-01
 0.16950001E+02 -0.39431E-02
 0.17000000E+02  0.83377E-02
 0.17050001E+02  0.87505E-01
 0.17100000E+02  0.45469E-01
 0.17150000E+02  0.44275E-01
 0.17200001E+02  0.44320E-01
 0.17250000E+02  0.52366E-02
 0.17300001E+02  0.57371E-01
 0.17350000E+02  0.44794E-01
 0.17400000E+02 -0.22626E-01
 0.17450001E+02 -0.64913E-01
 0.17500000E+02 -0.69186E-01
 0.17550001E+02  0.58963E-02
 0.17600000E+02  0.67820E-01
 0.17650000E+02  0.80414E-01
 0.17700001E+02  0.83749E-01
 0.17750000E+02  0.30770E-01
 0.17800001E+02 -0.26312E-01
 0.17850000E+02 -0.99732E-01
 0.17900000E+02 -0.95753E-01
 0.17950001E+02 -0.17272E-01
 0.18000000E+02 -0.68937E-03
 0.18050001E+02  0.33280E-01
 0.18100000E+02  0.68323E-01
 0.18150000E+02  0.22943E-01
 0.18200001E+02  0.80407E-02
 0.18250000E+02  0.31714E-01
 0.18300001E+02  0.22142E-01
 0.18350000E+02 -0.60587E-01
 0.18400000E+02 -0.10357E-01
 0.18450001E+02  0.61221E-01
 0.18500000E+02  0.35773E-01
 0.18550001E+02  0.33252E-02
 0.18600000E+02 -0.19339E-01
 0.18650000E+02 -0.11490E+00
 0.18700001E+02 -0.12617E+00
 0.18750000E+02 -0.10052E+00
 0.18800001E+02 -0.53498E-01
 0.18850000E+02 -0.48973E-01
 0.18900000E+02 -0.29482E-01
 0.18950001E+02  0.38423E-01
 0.19000000E+02  0.52825E-01
 0.19050001E+02  0.10405E+00
 0.19100000E+02 -0.14360E-02
 0.19150000E+02 -0.12137E-01
 0.19200001E+02 -0.70225E-01
 0.19250000E+02 -0.26233E-01
 0.19300001E+02 -0.12351E-02
 0.19350000E+02 -0.54306E-01
 0.19400000E+02 -0.36798E-01
 0.19450001E+02 -0.39211E-01
 0.19500000E+02 -0.85876E-01
 0.19550001E+02 -0.11764E+00
 0.19600000E+02 -0.55805E-01
 0.19650000E+02 -0.21667E-01
 0.19700001E+02 -0.33971E-02
 0.19750000E+02  0.11850E-01
 0.19800001E+02  0.16128E+00
 0.19850000E+02  0.80690E-01
 0.19900000E+02  0.80008E-01
 0.19950001E+02  0.16703E+00
 0.20000000E+02  0.26688E+00
 0.20050001E+02  0.41143E+00
 0.20100000E+02  0.36643E+00
 0.20150000E+02  0.35378E+00
 0.20200001E+02  0.35419E+00
 0.20250000E+02  0.19083E+00
 0.20300001E+02 -0.73338E-01
 0.20350000E+02 -0.29603E+00
 0.20400000E+02 -0.58356E+00
 0.20450001E+02 -0.66725E+00
 0.20500000E+02 -0.22393E+00
 0.20550001E+02  0.60450E+00
 0.20600000E+02  0.10000E+01
 0.20650000E+02  0.90054E+00
 0.20700001E+02  0.47269E+00
 0.20750000E+02  0.13804E+00
 0.20800001E+02  0.14988E+00
 0.20850000E+02  0.20549E+00
 0.20900000E+02  0.12179E+00
 0.20950001E+02 -0.32093E+00
 0.21000000E+02 -0.55418E+00
 0.21050001E+02 -0.51487E+00
 0.21100000E+02 -0.45304E+00
 0.21150000E+02 -0.48802E+00
 0.21200001E+02 -0.71722E+00
 0.21250000E+02 -0.61397E+00
 0.21300001E+02 -0.56014E-01
 0.21350000E+02  0.37492E+00
 0.21400000E+02  0.45134E-01
 0.21450001E+02 -0.34678E+00
 0.21500000E+02 -0.42162E+00
 0.21550001E+02 -0.45995E-01
 0.21600000E+02  0.58530E+00
 0.21650000E+02  0.76594E+00
 0.21700001E+02  0.50710E+00
 0.21750000E+02  0.84773E-01
 0.21800001E+02  0.73448E-01
 0.21850000E+02  0.95893E-01
 0.21900000E+02 -0.45031E-01
 0.21950001E+02 -0.11020E+00
 0.22000000E+02 -0.17271E+00
 0.22050001E+02 -0.35393E+00
 0.22100000E+02 -0.88338E-01
 0.22150000E+02  0.30139E-01
 0.22200001E+02  0.90364E-01
 0.22250000E+02  0.11344E+00
 0.22300001E+02 -0.20619E-01
 0.22350000E+02  0.35278E+00
 0.22400000E+02  0.57630E+00
 0.22450001E+02  0.87409E+00
 0.22500000E+02  0.67425E+00
 0.22550001E+02  0.21875E+00
 0.22600000E+02 -0.15807E+00
 0.22650000E+02 -0.47817E+00
 0.22700001E+02 -0.68748E+00
 0.22750000E+02 -0.81282E+00
 0.22800001E+02 -0.48971E+00
 0.22850000E+02 -0.31274E+00
 0.22900000E+02 -0.15807E+00
 0.22950001E+02 -0.17107E+00
 0.23000000E+02 -0.20888E+00
 0.23050001E+02 -0.18249E+00
 0.23100000E+02 -0.16004E+00
 0.23150000E+02 -0.61196E-02
 0.23200001E+02 -0.66276E-01
 0.23250000E+02 -0.14688E+00
 0.23300001E+02 -0.24902E-01
 0.23350000E+02  0.28555E-01
 0.23400000E+02 -0.39627E-01
 0.23450001E+02 -0.66087E-02
 0.23500000E+02  0.71670E-02
 0.23550001E+02 -0.32005E-01
 0.23600000E+02 -0.22357E+00
 0.23650000E+02 -0.38553E+00
 0.23700001E+02 -0.22436E+00
 0.23750000E+02 -0.12685E+00
 0.23800001E+02  0.24977E+00
 0.23850000E+02  0.47353E+00
 0.23900000E+02  0.41017E+00
 0.23950001E+02  0.33334E+00
 0.24000000E+02  0.15332E+00
 0.24050001E+02 -0.15858E+00
 0.24100000E+02 -0.36201E+00
 0.24150000E+02 -0.15846E+00
 0.24200001E+02  0.15865E-01
 0.24250000E+02  0.22035E+00
 0.24300001E+02  0.15111E+00
 0.24350000E+02  0.10738E+00
 0.24400000E+02  0.12777E-01
 0.24450001E+02 -0.15306E+00
 0.24500000E+02 -0.14389E+00
 0.24550001E+02 -0.65276E-01
 0.24600000E+02  0.73968E-01
 0.24650000E+02 -0.13872E-01
 0.24700001E+02 -0.82275E-01
 0.24750000E+02 -0.17467E+00
 0.24800001E+02 -0.13988E+00
 0.24850000E+02 -0.12357E+00
 0.24900000E+02 -0.27644E+00
 0.24950001E+02 -0.12788E+00
 0.25000000E+02 -0.34572E-01
 0.25050001E+02  0.85324E-01
 0.25100000E+02  0.76587E-01
 0.25150000E+02 -0.66900E-01
 0.25200001E+02  0.44347E-02
 0.25250000E+02  0.97116E-01
 0.25300001E+02  0.13689E+00
 0.25350000E+02  0.51330E-01
 0.25400000E+02 -0.11126E+00
 0.25450001E+02 -0.21990E+00
 0.25500000E+02 -0.72652E-01
 0.25550001E+02  0.10525E+00
 0.25600000E+02  0.26458E+00
 0.25650000E+02  0.29437E+00
 0.25700001E+02  0.18261E+00
 0.25750000E+02  0.61265E-01
 0.25800001E+02  0.13367E+00
 0.25850000E+02  0.27562E+00
 0.25900000E+02  0.51757E-01
 0.25950001E+02 -0.72505E-01
 0.26000000E+02 -0.91775E-01
 0.26050001E+02 -0.15734E-01
 0.26100000E+02  0.88127E-01
 0.26150000E+02  0.42956E-01
 0.26200001E+02  0.45712E-01
 0.26250000E+02 -0.41444E-02
 0.26300001E+02 -0.19370E-01
 0.26350000E+02 -0.18176E-01
 0.26400000E+02 -0.24927E-01
 0.26450001E+02  0.14197E-01
 0.26500000E+02 -0.33744E-01
 0.26550001E+02  0.11812E-01
 0.26600000E+02  0.87391E-01
 0.26650000E+02  0.45654E-01
 0.26700001E+02 -0.11140E+00
 0.26750000E+02 -0.16460E+00
 0.26800001E+02 -0.56203E-01
 0.26850000E+02 -0.98609E-02
 0.26900000E+02  0.89473E-01
 0.26950001E+02 -0.74401E-01
 0.27000000E+02 -0.49812E-01
 0.27050001E+02 -0.30674E-02
 0.27100000E+02  0.25061E-01
 0.27150000E+02  0.92432E-01
 0.27200001E+02  0.60554E-02
 0.27250000E+02  0.77367E-01
 0.27300001E+02 -0.12425E-01
 0.27350000E+02 -0.86797E-01
 0.27400000E+02 -0.20297E+00
 0.27450001E+02 -0.20767E+00
 0.27500000E+02 -0.15264E+00
 0.27550001E+02 -0.85543E-01
 0.27600000E+02  0.83146E-01
 0.27650000E+02  0.13267E+00
 0.27700001E+02  0.94960E-01
 0.27750000E+02  0.38364E-02
 0.27800001E+02 -0.31151E-01
 0.27850000E+02  0.14571E-01
 0.27900000E+02  0.52073E-01
 0.27950001E+02  0.68316E-02
 0.28000000E+02 -0.52474E-01
 0.28050001E+02 -0.13410E+00
 0.28100000E+02 -0.14576E+00
 0.28150000E+02 -0.79334E-01
 0.28200001E+02 -0.18396E-01
 0.28250000E+02  0.14984E+00
 0.28300001E+02  0.22417E+00
 0.28350000E+02  0.16319E+00
 0.28400000E+02  0.12359E+00
 0.28450001E+02  0.21874E+00
 0.28500000E+02  0.17219E+00
 0.28550001E+02  0.70095E-01
 0.28600000E+02 -0.23288E-01
 0.28650000E+02 -0.10608E+00
 0.28700001E+02 -0.15507E+00
 0.28750000E+02 -0.22296E+00
 0.28800001E+02 -0.25117E-01
 0.28850000E+02 -0.16929E-02
 0.28900000E+02 -0.29420E-01
 0.28950001E+02 -0.12135E+00
 0.29000000E+02 -0.96991E-01
 0.29050001E+02  0.19316E-01
 0.29100000E+02  0.67769E-01
 0.29150000E+02  0.10286E+00
 0.29200001E+02  0.98778E-01
 0.29250000E+02  0.15844E+00
 0.29300001E+02  0.45328E-01
 0.29350000E+02  0.10775E-01
 0.29400000E+02 -0.75957E-01
 0.29450001E+02 -0.16299E+00
 0.29500000E+02 -0.15362E+00
 0.29550001E+02 -0.20486E-01
 0.29600000E+02  0.77480E-01
 0.29650000E+02  0.41858E-01
 0.29700001E+02 -0.69123E-01
 0.29750000E+02 -0.17879E+00
 0.29800001E+02 -0.34295E-01
 0.29850000E+02  0.12193E+00
 0.29900000E+02  0.16302E+00
 0.29950001E+02  0.12256E+00
 0.30000000E+02  0.13703E+00
 0.30050001E+02  0.15039E+00
 0.30100000E+02  0.72729E-01
 0.30150000E+02  0.25868E-02
 0.30200001E+02 -0.72988E-01
 0.30250000E+02 -0.13802E+00
 0.30300001E+02 -0.15583E+00
 0.30350000E+02 -0.21647E+00
 0.30400000E+02 -0.16910E+00
 0.30450001E+02 -0.12204E+00
 0.30500000E+02 -0.15841E+00
 0.30550001E+02 -0.64381E-02
 0.30600000E+02  0.70440E-01
 0.30650000E+02  0.15986E+00
 0.30700001E+02  0.20375E+00
 0.30750000E+02  0.12541E+00
 0.30800001E+02  0.48862E-01
 0.30850000E+02 -0.93757E-01
 0.30900000E+02 -0.12085E+00
 0.30950001E+02 -0.12439E+00
 0.31000000E+02 -0.14690E+00
 0.31050001E+02 -0.12865E+00
 0.31100000E+02 -0.62980E-01
 0.31150000E+02 -0.12960E-01
 0.31200001E+02  0.11815E+00
 0.31250000E+02  0.13111E+00
 0.31300001E+02  0.59824E-01
 0.31350000E+02  0.28608E-01
 0.31400000E+02 -0.36298E-01
 0.31450001E+02  0.39618E-01
 0.31500000E+02  0.35740E-01
 0.31550001E+02  0.33634E-01
 0.31600000E+02 -0.99248E-02
 0.31650000E+02 -0.18831E-02
 0.31700001E+02 -0.13011E-01
 0.31750000E+02 -0.50857E-02
 0.31800001E+02  0.10618E+00
 0.31850000E+02  0.73104E-01
 0.31900000E+02  0.50620E-01
 0.31950001E+02  0.56006E-01
 0.32000000E+02  0.10223E+00
 0.32049999E+02  0.12564E+00
 0.32100002E+02  0.81173E-01
 0.32150002E+02 -0.13062E-01
 0.32200001E+02 -0.36632E-01
 0.32250000E+02 -0.82821E-01
 0.32299999E+02 -0.33385E-01
 0.32350002E+02  0.28493E-01
 0.32400002E+02  0.54582E-02
 0.32450001E+02 -0.19898E-01
 0.32500000E+02 -0.83993E-01
 0.32549999E+02 -0.63678E-01
 0.32600002E+02 -0.11274E+00
 0.32650002E+02 -0.14376E+00
 0.32700001E+02 -0.80444E-01
 0.32750000E+02  0.24896E-03
 0.32799999E+02  0.60111E-01
 0.32850002E+02  0.99069E-01
 0.32900002E+02  0.40758E-01
 0.32950001E+02 -0.33459E-01
 0.33000000E+02 -0.99959E-01
 0.33049999E+02 -0.12527E+00
 0.33100002E+02 -0.11128E+00
 0.33150002E+02 -0.11886E+00
 0.33200001E+02 -0.11777E+00
 0.33250000E+02 -0.10047E+00
 0.33299999E+02  0.46575E-03
 0.33350002E+02  0.72220E-01
 0.33400002E+02  0.75917E-01
 0.33450001E+02  0.84802E-01
 0.33500000E+02  0.90813E-01
 0.33549999E+02  0.77089E-01
 0.33600002E+02  0.59301E-01
 0.33650002E+02 -0.42127E-02
 0.33700001E+02  0.12807E-01
 0.33750000E+02  0.63839E-01
 0.33799999E+02  0.97759E-01
 0.33850002E+02  0.10031E+00
 0.33900002E+02  0.58401E-01
 0.33950001E+02  0.48416E-01
 0.34000000E+02 -0.22143E-01
 0.34049999E+02 -0.48146E-01
 0.34100002E+02 -0.36366E-01
 0.34150002E+02 -0.14229E-01
 0.34200001E+02  0.35820E-01
 0.34250000E+02  0.53495E-01
 0.34299999E+02  0.57646E-01
 0.34350002E+02  0.22163E-01
 0.34400002E+02  0.29787E-01
 0.34450001E+02 -0.37915E-01
 0.34500000E+02 -0.68866E-01
 0.34549999E+02 -0.21569E-01
 0.34600002E+02  0.25836E-01
 0.34650002E+02  0.71175E-01
 0.34700001E+02  0.68318E-01
 0.34750000E+02  0.59194E-01
 0.34799999E+02 -0.78029E-02
 0.34850002E+02 -0.49007E-01
 0.34900002E+02 -0.39605E-01
 0.34950001E+02 -0.48613E-01
 0.35000000E+02 -0.10489E+00
 0.35049999E+02 -0.10319E+00
 0.35100002E+02 -0.66540E-01
 0.35150002E+02 -0.56485E-01
 0.35200001E+02 -0.59524E-01
 0.35250000E+02 -0.89293E-01
 0.35299999E+02 -0.90702E-01
 0.35350002E+02 -0.61247E-01
 0.35400002E+02 -0.25157E-01
 0.35450001E+02  0.47740E-01
 0.35500000E+02  0.10565E+00
 0.35549999E+02  0.94453E-01
 0.35600002E+02  0.54121E-01
 0.35650002E+02  0.39176E-01
 0.35700001E+02  0.28937E-01
 0.35750000E+02  0.39175E-01
 0.35799999E+02  0.17657E-01
 0.35850002E+02  0.27478E-01
 0.35900002E+02  0.58728E-01
 0.35950001E+02  0.26055E-02
 0.36000000E+02  0.96900E-02
 0.36049999E+02  0.62442E-01
 0.36100002E+02  0.80262E-01
 0.36150002E+02  0.66436E-01
 0.36200001E+02  0.39964E-01
 0.36250000E+02  0.23315E-01
 0.36299999E+02  0.14135E-01
 0.36350002E+02  0.23924E-01
 0.36400002E+02 -0.16013E-01
 0.36450001E+02 -0.53747E-01
 0.36500000E+02  0.10250E-01
 0.36549999E+02  0.45824E-01
 0.36600002E+02  0.72690E-01
 0.36650002E+02  0.11642E+00
 0.36700001E+02  0.93296E-01
 0.36750000E+02  0.54417E-01
 0.36799999E+02 -0.19021E-02
 0.36850002E+02 -0.69788E-01
 0.36900002E+02 -0.12278E+00
 0.36950001E+02 -0.18104E+00
 0.37000000E+02 -0.18461E+00
 0.37049999E+02 -0.14479E+00
 0.37100002E+02 -0.10686E+00
 0.37150002E+02 -0.56689E-01
 0.37200001E+02 -0.29806E-01
 0.37250000E+02 -0.10125E-01
 0.37299999E+02  0.74384E-02
 0.37350002E+02  0.15669E-01
 0.37400002E+02  0.31197E-01
 0.37450001E+02  0.39684E-01
 0.37500000E+02  0.52881E-01
 0.37549999E+02  0.38948E-01
 0.37600002E+02  0.14672E-01
 0.37650002E+02  0.41035E-01
 0.37700001E+02  0.37169E-01
 0.37750000E+02 -0.68356E-02
 0.37799999E+02 -0.69482E-02
 0.37850002E+02  0.27759E-01
 0.37900002E+02  0.74378E-01
 0.37950001E+02  0.92775E-01
 0.38000000E+02  0.71452E-01
 0.38049999E+02  0.17627E-01
 0.38100002E+02 -0.22468E-01
 0.38150002E+02 -0.31234E-01
 0.38200001E+02 -0.15275E-01
 0.38250000E+02  0.14393E-01
 0.38299999E+02  0.46589E-02
 0.38350002E+02  0.11637E-01
 0.38400002E+02  0.50871E-01
 0.38450001E+02  0.73140E-01
 0.38500000E+02  0.40342E-01
 0.38549999E+02  0.35656E-01
 0.38600002E+02  0.58942E-01
 0.38650002E+02  0.23497E-01
 0.38700001E+02  0.10699E-01
 0.38750000E+02  0.13291E-01
 0.38799999E+02 -0.24690E-01
 0.38850002E+02 -0.45638E-01
 0.38900002E+02 -0.22341E-01
 0.38950001E+02 -0.55904E-01
 0.39000000E+02 -0.60217E-01
 0.39049999E+02 -0.34148E-01
 0.39100002E+02 -0.49526E-01
 0.39150002E+02 -0.74311E-01
 0.39200001E+02 -0.66895E-01
 0.39250000E+02 -0.51386E-01
 0.39299999E+02 -0.15668E-01
 0.39350002E+02  0.31112E-01
 0.39400002E+02 -0.21179E-01
 0.39450001E+02 -0.40476E-01
 0.39500000E+02 -0.60319E-01
 0.39549999E+02 -0.48085E-01
 0.39600002E+02  0.49840E-02
 0.39650002E+02  0.35130E-01
 0.39700001E+02  0.54769E-01
 0.39750000E+02  0.28397E-01
 0.39799999E+02  0.38552E-01
 0.39850002E+02  0.54538E-01
 0.39900002E+02  0.64369E-01
 0.39950001E+02  0.51925E-01
 0.40000000E+02  0.44793E-02
 0.40049999E+02  0.25088E-02
 0.40100002E+02  0.10448E-01
 0.40150002E+02 -0.22215E-02
 0.40200001E+02 -0.57781E-02
 0.40250000E+02 -0.22232E-01
 0.40299999E+02 -0.38785E-01
 0.40350002E+02 -0.43809E-01
 0.40400002E+02 -0.55663E-01
 0.40450001E+02 -0.23397E-01
 0.40500000E+02  0.16781E-01
 0.40549999E+02  0.28575E-01
 0.40600002E+02  0.38865E-01
 0.40650002E+02  0.35909E-01
 0.40700001E+02  0.24589E-01
 0.40750000E+02  0.32735E-01
 0.40799999E+02  0.15894E-02
 0.40850002E+02 -0.27038E-01
 0.40900002E+02 -0.39619E-01
 0.40950001E+02 -0.72058E-01
 0.41000000E+02 -0.43619E-01
 0.41049999E+02 -0.21952E-01
 0.41100002E+02 -0.11356E-01
 0.41150002E+02 -0.35761E-01
 0.41200001E+02 -0.79263E-01
 0.41250000E+02 -0.59450E-01
 0.41299999E+02 -0.21409E-01
 0.41350002E+02  0.14707E-01
 0.41400002E+02  0.37163E-01
 0.41450001E+02  0.34350E-02
 0.41500000E+02 -0.76312E-02
 0.41549999E+02 -0.14976E-01
 0.41600002E+02 -0.20271E-01
 0.41650002E+02  0.48935E-02
 0.41700001E+02  0.18327E-01
 0.41750000E+02  0.42075E-01
 0.41799999E+02  0.29185E-01
 0.41850002E+02  0.36050E-01
 0.41900002E+02  0.37709E-01
 0.41950001E+02  0.26199E-01
 0.42000000E+02  0.21883E-01
 0.42049999E+02  0.77396E-02
 0.42100002E+02  0.18197E-04
 0.42150002E+02 -0.10927E-01
 0.42200001E+02 -0.29774E-01
 0.42250000E+02 -0.34175E-01
 0.42299999E+02 -0.16033E-01
 0.42350002E+02  0.65826E-02
 0.42400002E+02  0.14949E-01
 0.42450001E+02  0.16520E-01
 0.42500000E+02  0.18734E-01
 0.42549999E+02  0.53674E-02
 0.42600002E+02  0.87137E-02
 0.42650002E+02  0.14757E-01
 0.42700001E+02  0.39671E-01
 0.42750000E+02  0.53127E-01
 0.42799999E+02  0.58187E-01
 0.42850002E+02  0.57638E-01
 0.42900002E+02  0.32267E-01
 0.42950001E+02  0.16732E-01
 0.43000000E+02 -0.20781E-01
 0.43049999E+02 -0.35383E-01
 0.43100002E+02 -0.56217E-01
 0.43150002E+02 -0.82309E-01
 0.43200001E+02 -0.48936E-01
 0.43250000E+02 -0.23429E-01
 0.43299999E+02 -0.13226E-01
 0.43350002E+02 -0.14032E-01
 0.43400002E+02 -0.74503E-02
 0.43450001E+02 -0.92506E-02
 0.43500000E+02  0.60358E-02
 0.43549999E+02  0.32097E-01
 0.43600002E+02  0.59812E-01
 0.43650002E+02  0.89465E-01
 0.43700001E+02  0.88174E-01
 0.43750000E+02  0.93143E-01
 0.43799999E+02  0.65631E-01
 0.43850002E+02  0.37594E-01
 0.43900002E+02  0.68214E-02
 0.43950001E+02 -0.18985E-01
 0.44000000E+02 -0.16634E-01
 0.44049999E+02 -0.24896E-01
 0.44100002E+02 -0.43866E-01
 0.44150002E+02 -0.68984E-01
 0.44200001E+02 -0.88960E-01
 0.44250000E+02 -0.81189E-01
 0.44299999E+02 -0.56827E-01
 0.44350002E+02 -0.34166E-01
 0.44400002E+02 -0.10873E-01
 0.44450001E+02  0.16038E-04
 0.44500000E+02 -0.53411E-02
 0.44549999E+02 -0.58386E-02
 0.44600002E+02 -0.93640E-02
 0.44650002E+02 -0.39023E-01
 0.44700001E+02 -0.51669E-01
 0.44750000E+02 -0.32250E-01
 0.44799999E+02 -0.12284E-01
 0.44850002E+02 -0.51959E-02
 0.44900002E+02  0.12287E-01
 0.44950001E+02  0.28495E-01
 0.45000000E+02  0.30120E-01
 0.45049999E+02  0.37376E-01
 0.45100002E+02  0.26046E-01
 0.45150002E+02 -0.45593E-02
 0.45200001E+02 -0.15514E-01
 0.45250000E+02 -0.34266E-01
 0.45299999E+02 -0.56724E-01
 0.45350002E+02 -0.64370E-01
 0.45400002E+02 -0.45047E-01
 0.45450001E+02 -0.10516E-01
 0.45500000E+02 -0.94244E-02
 0.45549999E+02 -0.96552E-02
 0.45600002E+02 -0.20533E-01
 0.45650002E+02 -0.13195E-01
 0.45700001E+02 -0.29369E-02
 0.45750000E+02  0.11762E-01
 0.45799999E+02  0.31456E-01
 0.45850002E+02  0.35971E-01
 0.45900002E+02  0.63610E-01
 0.45950001E+02  0.63997E-01
 0.46000000E+02  0.61036E-01
 0.46049999E+02  0.58225E-01
 0.46100002E+02  0.38463E-01
 0.46150002E+02  0.33353E-01
 0.46200001E+02  0.28963E-01
 0.46250000E+02  0.11773E-01
 0.46299999E+02 -0.85071E-02
 0.46350002E+02 -0.29708E-01
 0.46400002E+02 -0.22295E-01
 0.46450001E+02 -0.17303E-01
 0.46500000E+02 -0.22056E-01
 0.46549999E+02 -0.92002E-02
 0.46600002E+02  0.12225E-02
 0.46650002E+02  0.19965E-01
 0.46700001E+02  0.28183E-01
 0.46750000E+02  0.21812E-01
 0.46799999E+02  0.11925E-01
 0.46850002E+02 -0.18583E-02
 0.46900002E+02 -0.38730E-03
 0.46950001E+02  0.13987E-01
 0.47000000E+02  0.97394E-02
 0.47049999E+02  0.16666E-01
 0.47100002E+02  0.11603E-01
 0.47150002E+02  0.15131E-01
 0.47200001E+02  0.18399E-01
 0.47250000E+02  0.15131E-01
 0.47299999E+02  0.37630E-01
 0.47350002E+02  0.52536E-01
 0.47400002E+02  0.69395E-01
 0.47450001E+02  0.57043E-01
 0.47500000E+02  0.36864E-01
 0.47549999E+02  0.66669E-02
 0.47600002E+02 -0.36378E-01
 0.47650002E+02 -0.57084E-01
 0.47700001E+02 -0.65470E-01
 0.47750000E+02 -0.57416E-01
 0.47799999E+02 -0.59694E-01
 0.47850002E+02 -0.72187E-01
 0.47900002E+02 -0.44171E-01
 0.47950001E+02 -0.26943E-01
 0.48000000E+02 -0.21026E-01
 0.48049999E+02 -0.91023E-02
 0.48100002E+02 -0.17153E-01
 0.48150002E+02 -0.33087E-01
 0.48200001E+02 -0.33879E-01
 0.48250000E+02 -0.10213E-01
 0.48299999E+02  0.91143E-02
 0.48350002E+02  0.11713E-01
 0.48400002E+02 -0.90453E-02
 0.48450001E+02 -0.22608E-01
 0.48500000E+02 -0.31600E-01
 0.48549999E+02 -0.47479E-01
 0.48600002E+02 -0.41784E-01
 0.48650002E+02 -0.38401E-01
 0.48700001E+02 -0.32164E-01
 0.48750000E+02 -0.21914E-01
 0.48799999E+02 -0.30529E-02
 0.48850002E+02  0.17288E-01
 0.48900002E+02  0.16556E-01
 0.48950001E+02  0.35405E-01
 0.49000000E+02  0.54310E-01
 0.49049999E+02  0.75497E-01
 0.49100002E+02  0.93447E-01
 0.49150002E+02  0.89118E-01
 0.49200001E+02  0.74761E-01
 0.49250000E+02  0.46789E-01
 0.49299999E+02  0.30108E-01
 0.49350002E+02  0.69948E-02
 0.49400002E+02 -0.14876E-01
 0.49450001E+02 -0.32681E-01
 0.49500000E+02 -0.50625E-01
 0.49549999E+02 -0.37653E-01
 0.49600002E+02 -0.24751E-01
 0.49650002E+02 -0.90041E-02
 0.49700001E+02 -0.31621E-02
 0.49750000E+02  0.11481E-01
 0.49799999E+02  0.22831E-01
 0.49850002E+02  0.25033E-01
 0.49900002E+02  0.39038E-01
 0.49950001E+02  0.23438E-01
 0.50000000E+02  0.19120E-01
 0.50049999E+02  0.10936E-01
 0.50100002E+02 -0.16078E-02
 0.50150002E+02 -0.20422E-01
 0.50200001E+02 -0.36683E-01
 0.50250000E+02 -0.33548E-01
 0.50299999E+02 -0.31829E-01
 0.50350002E+02 -0.19599E-01
 0.50400002E+02 -0.42693E-02
 0.50450001E+02  0.84092E-02
 0.50500000E+02  0.15806E-01
 0.50549999E+02  0.19242E-01
 0.50600002E+02  0.27374E-01
 0.50650002E+02  0.41996E-01
 0.50700001E+02  0.42947E-01
 0.50750000E+02  0.31430E-01
 0.50799999E+02  0.17785E-01
 0.50850002E+02  0.42471E-02
 0.50900002E+02 -0.48576E-02
 0.50950001E+02 -0.58435E-02
 0.51000000E+02 -0.48113E-02
 0.51049999E+02 -0.28172E-03
 0.51100002E+02  0.21903E-02
 0.51150002E+02  0.13255E-01
 0.51200001E+02  0.17972E-01
 0.51250000E+02  0.11248E-01
 0.51299999E+02  0.62031E-03
 0.51350002E+02 -0.21197E-01
 0.51400002E+02 -0.45794E-01
 0.51450001E+02 -0.70559E-01
 0.51500000E+02 -0.87417E-01
 0.51549999E+02 -0.78198E-01
 0.51600002E+02 -0.58509E-01
 0.51650002E+02 -0.44244E-01
 0.51700001E+02 -0.16191E-01
 0.51750000E+02 -0.11246E-01
 0.51799999E+02 -0.10450E-01
 0.51850002E+02  0.30967E-02
 0.51900002E+02  0.10582E-01
 0.51950001E+02  0.11871E-01
 0.52000000E+02  0.54548E-02
 0.52049999E+02 -0.41718E-02
 0.52100002E+02 -0.10211E-01
 0.52150002E+02 -0.20195E-01
 0.52200001E+02 -0.37326E-01
 0.52250000E+02 -0.36881E-01
 0.52299999E+02 -0.30744E-01
 0.52350002E+02 -0.15351E-01
 0.52400002E+02  0.16792E-02
 0.52450001E+02  0.13684E-01
 0.52500000E+02  0.26076E-01
 0.52549999E+02  0.24219E-01
 0.52600002E+02  0.15655E-01
 0.52650002E+02  0.29422E-02
 0.52700001E+02 -0.82429E-02
 0.52750000E+02 -0.81064E-02
 0.52799999E+02  0.16370E-02
 0.52850002E+02 -0.11413E-03
 0.52900002E+02  0.45689E-02
 0.52950001E+02  0.18147E-01
 0.53000000E+02  0.11716E-01
 0.53049999E+02  0.28537E-02
 0.53100002E+02 -0.34218E-03
 0.53150002E+02  0.82298E-02
 0.53200001E+02  0.95158E-02
 0.53250000E+02  0.45731E-02
 0.53299999E+02  0.66308E-02
 0.53350002E+02  0.14541E-01
 0.53400002E+02  0.26996E-01
 0.53450001E+02  0.26843E-01
 0.53500000E+02  0.23284E-01
 0.53549999E+02  0.18762E-01
 0.53600002E+02  0.20132E-01
 0.53650002E+02  0.24071E-01
 0.53700001E+02  0.17914E-01
 0.53750000E+02  0.10690E-01
 0.53799999E+02 -0.14119E-02
 0.53850002E+02 -0.78543E-02
 0.53900002E+02 -0.17579E-01
 0.53950001E+02 -0.10355E-01
 0.54000000E+02 -0.42667E-02
 0.54049999E+02  0.29956E-03
 0.54100002E+02  0.91301E-02
 0.54150002E+02  0.12241E-01
 0.54200001E+02  0.24559E-01
 0.54250000E+02  0.20277E-01
 0.54299999E+02  0.26259E-01
 0.54350002E+02  0.26769E-01
 0.54400002E+02  0.38787E-01
 0.54450001E+02  0.36286E-01
 0.54500000E+02  0.26600E-01
 0.54549999E+02  0.25370E-01
 0.54600002E+02  0.12822E-01
 0.54650002E+02  0.16446E-01
 0.54700001E+02  0.11911E-01
 0.54750000E+02  0.10693E-01
 0.54799999E+02  0.10447E-01
 0.54850002E+02  0.13506E-01
 0.54900002E+02  0.15647E-01
 0.54950001E+02  0.10536E-01
 0.55000000E+02  0.39436E-02
 0.55049999E+02 -0.68947E-02
 0.55100002E+02 -0.16516E-01
 0.55150002E+02 -0.20520E-01
 0.55200001E+02 -0.17549E-01
 0.55250000E+02 -0.10667E-01
 0.55299999E+02  0.26014E-03
 0.55350002E+02  0.81354E-02
 0.55400002E+02  0.13135E-01
 0.55450001E+02  0.92411E-02
 0.55500000E+02 -0.28277E-02
 0.55549999E+02 -0.22953E-01
 0.55600002E+02 -0.47134E-01
 0.55650002E+02 -0.64138E-01
 0.55700001E+02 -0.69715E-01
 0.55750000E+02 -0.64794E-01
 0.55799999E+02 -0.54402E-01
 0.55850002E+02 -0.37675E-01
 0.55900002E+02 -0.36314E-01
 0.55950001E+02 -0.34183E-01
 0.56000000E+02 -0.22755E-01
 0.56049999E+02 -0.82808E-02
 0.56100002E+02  0.33734E-02
 0.56150002E+02  0.28887E-02
 0.56200001E+02  0.12599E-02
 0.56250000E+02 -0.44829E-02
 0.56299999E+02 -0.87253E-02
 0.56350002E+02 -0.13592E-01
 0.56400002E+02 -0.20241E-01
 0.56450001E+02 -0.25594E-01
 0.56500000E+02 -0.26643E-01
 0.56549999E+02 -0.21314E-01
 0.56600002E+02 -0.89909E-02
 0.56650002E+02  0.27483E-02
 0.56700001E+02  0.11419E-01
 0.56750000E+02  0.14510E-01
 0.56799999E+02  0.12634E-01
 0.56850002E+02  0.15388E-01
 0.56900002E+02  0.16470E-01
 0.56950001E+02  0.16653E-01
 0.57000000E+02  0.10403E-01
 0.57049999E+02  0.44196E-02
 0.57100002E+02  0.10684E-01
 0.57150002E+02  0.14770E-01
 0.57200001E+02  0.27209E-01
 0.57250000E+02  0.45173E-01
 0.57299999E+02  0.43591E-01
 0.57350002E+02  0.32399E-01
 0.57400002E+02  0.22272E-01
 0.57450001E+02  0.13662E-01
 0.57500000E+02  0.88018E-02
 0.57549999E+02  0.38314E-02
 0.57600002E+02  0.12835E-02
 0.57650002E+02  0.12783E-01
 0.57700001E+02  0.27404E-01
 0.57750000E+02  0.29764E-01
 0.57799999E+02  0.27589E-01
 0.57850002E+02  0.29323E-01
 0.57900002E+02  0.26546E-01
 0.57950001E+02  0.28089E-01
 0.58000000E+02  0.25089E-01
 0.58049999E+02  0.25730E-02
 0.58100002E+02 -0.90310E-02
 0.58150002E+02 -0.13224E-01
 0.58200001E+02 -0.20072E-01
 0.58250000E+02 -0.34350E-01
 0.58299999E+02 -0.45010E-01
 0.58350002E+02 -0.45881E-01
 0.58400002E+02 -0.45892E-01
 0.58450001E+02 -0.37157E-01
 0.58500000E+02 -0.35059E-01
 0.58549999E+02 -0.22966E-01
 0.58600002E+02 -0.10146E-01
 0.58650002E+02 -0.36191E-02
 0.58700001E+02  0.36433E-02
 0.58750000E+02  0.49066E-02
 0.58799999E+02  0.28063E-02
 0.58850002E+02 -0.55096E-02
 0.58900002E+02 -0.45570E-02
 0.58950001E+02 -0.39257E-02
 0.59000000E+02 -0.83712E-02
 0.59049999E+02 -0.13390E-01
 0.59100002E+02 -0.15737E-01
 0.59150002E+02 -0.11969E-01
 0.59200001E+02 -0.26690E-02
 0.59250000E+02  0.94561E-02
 0.59299999E+02  0.16350E-01
 0.59350002E+02  0.23020E-01
 0.59400002E+02  0.36277E-01
 0.59450001E+02  0.44926E-01
 0.59500000E+02  0.45289E-01
 0.59549999E+02  0.42145E-01
 0.59600002E+02  0.33434E-01
 0.59650002E+02  0.17002E-01
 0.59700001E+02 -0.47591E-03
 0.59750000E+02 -0.92977E-02
 0.59799999E+02 -0.66085E-02
 0.59850002E+02  0.44498E-02
 0.59900002E+02  0.13112E-01
 0.59950001E+02  0.17722E-01
 0.60000000E+02  0.20509E-01
 0.60049999E+02  0.23249E-01
 0.60100002E+02  0.18225E-01
 0.60150002E+02  0.28681E-02
 0.60200001E+02 -0.12315E-01
 0.60250000E+02 -0.15846E-01
 0.60299999E+02 -0.16333E-01
 0.60350002E+02 -0.27055E-01
 0.60400002E+02 -0.35325E-01
 0.60450001E+02 -0.44602E-01
 0.60500000E+02 -0.42774E-01
 0.60549999E+02 -0.32450E-01
 0.60600002E+02 -0.20438E-01
 0.60650002E+02 -0.75333E-03
 0.60700001E+02  0.10006E-01
 0.60750000E+02  0.22322E-01
 0.60799999E+02  0.33824E-01
 0.60850002E+02  0.36988E-01
 0.60900002E+02  0.35676E-01
 0.60950001E+02  0.26909E-01
 0.61000000E+02  0.15164E-01
 0.61049999E+02  0.59254E-02
 0.61100002E+02 -0.85743E-02
 0.61150002E+02 -0.13053E-01
 0.61200001E+02 -0.23127E-01
 0.61250000E+02 -0.34055E-01
 0.61299999E+02 -0.31637E-01
 0.61350002E+02 -0.29338E-01
 0.61400002E+02 -0.20587E-01
 0.61450001E+02 -0.13957E-01
 0.61500000E+02 -0.20172E-02
 0.61549999E+02  0.38207E-02
 0.61600002E+02  0.36379E-02
 0.61650002E+02  0.33797E-02
 0.61700001E+02  0.49376E-02
 0.61750000E+02  0.61732E-02
 0.61799999E+02  0.31746E-02
 0.61850002E+02 -0.25853E-02
 0.61900002E+02 -0.13015E-01
 0.61950001E+02 -0.17438E-01
 0.62000000E+02 -0.22219E-01
 0.62049999E+02 -0.21331E-01
 0.62100002E+02 -0.24357E-01
 0.62150002E+02 -0.32107E-01
 0.62200001E+02 -0.29134E-01
 0.62250000E+02 -0.26702E-01
 0.62299999E+02 -0.17508E-01
 0.62350002E+02 -0.79504E-02
 0.62400002E+02  0.90958E-03
 0.62450001E+02  0.11176E-01
 0.62500000E+02  0.16122E-01
 0.62549999E+02  0.23273E-01
 0.62600002E+02  0.23499E-01
 0.62650002E+02  0.20260E-01
 0.62700001E+02  0.98234E-02
 0.62750000E+02 -0.89526E-02
 0.62799999E+02 -0.17813E-01
 0.62850002E+02 -0.19239E-01
 0.62900002E+02 -0.13092E-01
 0.62950001E+02 -0.75884E-02
 0.63000000E+02 -0.81299E-02
 0.63049999E+02 -0.57294E-02
 0.63100002E+02 -0.14460E-02
 0.63150002E+02  0.10807E-01
 0.63200001E+02  0.21611E-01
 0.63250000E+02  0.22841E-01
 0.63299999E+02  0.22081E-01
 0.63350002E+02  0.22668E-01
 0.63400002E+02  0.24968E-01
 0.63450001E+02  0.26198E-01
 0.63500000E+02  0.27947E-01
 0.63549999E+02  0.32066E-01
 0.63600002E+02  0.34397E-01
 0.63650002E+02  0.29763E-01
 0.63700001E+02  0.25134E-01
 0.63750000E+02  0.17387E-01
 0.63799999E+02  0.16291E-01
 0.63850002E+02  0.10847E-01
 0.63900002E+02  0.23005E-02
 0.63950001E+02 -0.20321E-03
 0.64000000E+02  0.51497E-02
 0.64050003E+02  0.14403E-01
 0.64099998E+02  0.14943E-01
 0.64150002E+02  0.19377E-01
 0.64200005E+02  0.20912E-01
 0.64250000E+02  0.20732E-01
 0.64300003E+02  0.18223E-01
 0.64349998E+02  0.12552E-01
 0.64400002E+02  0.15301E-02
 0.64450005E+02 -0.14054E-01
 0.64500000E+02 -0.24934E-01
 0.64550003E+02 -0.31240E-01
 0.64599998E+02 -0.27568E-01
 0.64650002E+02 -0.24330E-01
 0.64700005E+02 -0.21540E-01
 0.64750000E+02 -0.19748E-01
 0.64800003E+02 -0.21207E-01
 0.64849998E+02 -0.17413E-01
 0.64900002E+02 -0.19873E-01
 0.64950005E+02 -0.21943E-01
 0.65000000E+02 -0.27070E-01
 0.65050003E+02 -0.24374E-01
 0.65099998E+02 -0.16750E-01
 0.65150002E+02 -0.11354E-01
 0.65200005E+02 -0.42701E-02
 0.65250000E+02 -0.10640E-02
 0.65300003E+02 -0.43899E-02
 0.65349998E+02 -0.10169E-01
 0.65400002E+02 -0.16489E-01
 0.65450005E+02 -0.20360E-01
 0.65500000E+02 -0.20229E-01
 0.65550003E+02 -0.22148E-01
 0.65599998E+02 -0.15818E-01
 0.65650002E+02 -0.98796E-02
 0.65700005E+02 -0.59115E-03
 0.65750000E+02  0.76087E-02
 0.65800003E+02  0.11113E-01
 0.65849998E+02  0.15386E-01
 0.65900002E+02  0.15668E-01
 0.65950005E+02  0.14296E-01
 0.66000000E+02  0.14670E-01
 0.66050003E+02  0.16437E-01
 0.66099998E+02  0.13881E-01
 0.66150002E+02  0.11688E-01
 0.66200005E+02  0.10425E-01
 0.66250000E+02  0.83453E-02
 0.66300003E+02  0.10523E-01
 0.66349998E+02  0.12648E-01
 0.66400002E+02  0.17229E-01
 0.66450005E+02  0.21620E-01
 0.66500000E+02  0.21197E-01
 0.66550003E+02  0.17916E-01
 0.66599998E+02  0.74532E-02
 0.66650002E+02 -0.14197E-02
 0.66700005E+02 -0.80720E-02
 0.66750000E+02 -0.20421E-01
 0.66800003E+02 -0.34161E-01
 0.66849998E+02 -0.35924E-01
 0.66900002E+02 -0.30665E-01
 0.66950005E+02 -0.22386E-01
 0.67000000E+02 -0.83365E-02
 0.67050003E+02 -0.23127E-02
 0.67099998E+02  0.55023E-02
 0.67150002E+02  0.98948E-02
 0.67200005E+02  0.65879E-02
 0.67250000E+02  0.71643E-02
 0.67300003E+02  0.97194E-02
 0.67349998E+02  0.88460E-02
 0.67400002E+02  0.64964E-02
 0.67450005E+02  0.96837E-02
 0.67500000E+02  0.10188E-01
 0.67550003E+02  0.10233E-01
 0.67599998E+02  0.14812E-01
 0.67650002E+02  0.20877E-01
 0.67700005E+02  0.22477E-01
 0.67750000E+02  0.22832E-01
 0.67800003E+02  0.18767E-01
 0.67849998E+02  0.88861E-02
 0.67900002E+02 -0.14274E-03
 0.67950005E+02 -0.94004E-02
 0.68000000E+02 -0.17899E-01
 0.68050003E+02 -0.24966E-01
 0.68099998E+02 -0.29161E-01
 0.68150002E+02 -0.30212E-01
 0.68200005E+02 -0.25146E-01
 0.68250000E+02 -0.19074E-01
 0.68300003E+02 -0.11392E-01
 0.68349998E+02 -0.10106E-01
 0.68400002E+02 -0.11733E-01
 0.68450005E+02 -0.87446E-02
 0.68500000E+02  0.22481E-03
 0.68550003E+02  0.75789E-02
 0.68599998E+02  0.90426E-02
 0.68650002E+02  0.10163E-01
 0.68700005E+02  0.70875E-02
 0.68750000E+02  0.95191E-02
 0.68800003E+02  0.12448E-01
 0.68849998E+02  0.14510E-01
 0.68900002E+02  0.17593E-01
 0.68950005E+02  0.17163E-01
 0.69000000E+02  0.16378E-01
 0.69050003E+02  0.16591E-01
 0.69099998E+02  0.18496E-01
 0.69150002E+02  0.16304E-01
 0.69200005E+02  0.12112E-01
 0.69250000E+02  0.93697E-02
 0.69300003E+02  0.38951E-02
 0.69349998E+02  0.28159E-02
 0.69400002E+02  0.50874E-02
 0.69450005E+02  0.49880E-02
 0.69500000E+02  0.67170E-02
 0.69550003E+02  0.38057E-02
 0.69599998E+02 -0.15952E-02
 0.69650002E+02 -0.12300E-02
 0.69700005E+02 -0.66928E-03
 0.69750000E+02  0.60601E-03
 0.69800003E+02 -0.29408E-02
 0.69849998E+02 -0.79355E-02
 0.69900002E+02 -0.68402E-02
 0.69950005E+02 -0.46424E-02
 0.70000000E+02 -0.39789E-03
 0.70050003E+02 -0.76999E-04
 0.70099998E+02 -0.11662E-04
 0.70150002E+02 -0.97160E-03
 0.70200005E+02 -0.86947E-02
 0.70250000E+02 -0.11170E-01
 0.70300003E+02 -0.14650E-01
 0.70349998E+02 -0.12953E-01
 0.70400002E+02 -0.75681E-02
 0.70450005E+02 -0.10229E-01
 0.70500000E+02 -0.11318E-01
 0.70550003E+02 -0.13512E-01
 0.70599998E+02 -0.13020E-01
 0.70650002E+02 -0.94942E-02
 0.70700005E+02 -0.53353E-02
 0.70750000E+02 -0.42984E-02
 0.70800003E+02 -0.96736E-02
 0.70849998E+02 -0.16920E-01
 0.70900002E+02 -0.22846E-01
 0.70950005E+02 -0.17305E-01
 0.71000000E+02 -0.13216E-01
 0.71050003E+02 -0.12940E-01
 0.71099998E+02 -0.13702E-01
 0.71150002E+02 -0.18003E-01
 0.71200005E+02 -0.17634E-01
 0.71250000E+02 -0.15473E-01
 0.71300003E+02 -0.92462E-02
 0.71349998E+02 -0.91219E-03
 0.71400002E+02  0.31275E-02
 0.71450005E+02  0.49765E-02
 0.71500000E+02  0.79224E-02
 0.71550003E+02  0.81714E-02
 0.71599998E+02  0.47790E-02
 0.71650002E+02 -0.22227E-02
 0.71700005E+02 -0.90555E-02
 0.71750000E+02 -0.12368E-01
 0.71800003E+02 -0.95853E-02
 0.71849998E+02 -0.35034E-02
 0.71900002E+02  0.25183E-03
 0.71950005E+02  0.35195E-02
 0.72000000E+02  0.88326E-02
 0.72050003E+02  0.16282E-01
 0.72099998E+02  0.21845E-01
 0.72150002E+02  0.25337E-01
 0.72200005E+02  0.21849E-01
 0.72250000E+02  0.14783E-01
 0.72300003E+02  0.84270E-02
 0.72349998E+02  0.62415E-02
 0.72400002E+02  0.57013E-02
 0.72450005E+02  0.89735E-03
 0.72500000E+02  0.45348E-03
 0.72550003E+02 -0.91245E-03
 0.72599998E+02 -0.19290E-02
 0.72650002E+02  0.48509E-04
 0.72700005E+02 -0.19006E-03
 0.72750000E+02 -0.44900E-03
 0.72800003E+02 -0.21128E-02
 0.72849998E+02 -0.11907E-02
 0.72900002E+02  0.15176E-02
 0.72950005E+02  0.59619E-02
 0.73000000E+02  0.10310E-01
 0.73050003E+02  0.14681E-01
 0.73099998E+02  0.18266E-01
 0.73150002E+02  0.16926E-01
 0.73200005E+02  0.14098E-01
 0.73250000E+02  0.82805E-02
 0.73300003E+02  0.64103E-02
 0.73349998E+02  0.30743E-02
 0.73400002E+02 -0.21941E-02
 0.73450005E+02 -0.44814E-02
 0.73500000E+02 -0.54612E-02
 0.73550003E+02 -0.29592E-02
 0.73599998E+02  0.99095E-03
 0.73650002E+02  0.32609E-02
 0.73700005E+02  0.29650E-02
 0.73750000E+02  0.12620E-02
 0.73800003E+02 -0.29400E-02
 0.73849998E+02 -0.62762E-02
 0.73900002E+02 -0.87456E-02
 0.73950005E+02 -0.10759E-01
 0.74000000E+02 -0.11512E-01
 0.74050003E+02 -0.93176E-02
 0.74099998E+02 -0.69912E-02
 0.74150002E+02 -0.26066E-02
 0.74200005E+02  0.19426E-02
 0.74250000E+02  0.63735E-02
 0.74300003E+02  0.10445E-01
 0.74349998E+02  0.92243E-02
 0.74400002E+02  0.70843E-02
 0.74450005E+02  0.27697E-02
 0.74500000E+02 -0.12846E-02
 0.74550003E+02 -0.51067E-03
 0.74599998E+02  0.11471E-02
 0.74650002E+02 -0.39836E-03
 0.74700005E+02  0.65710E-03
 0.74750000E+02  0.13590E-02
 0.74800003E+02  0.44198E-03
 0.74849998E+02  0.30401E-02
 0.74900002E+02  0.45093E-02
 0.74950005E+02  0.45414E-02
 0.75000000E+02  0.47531E-02
 0.75050003E+02  0.96384E-02
 0.75099998E+02  0.15913E-01
 0.75150002E+02  0.17193E-01
 0.75200005E+02  0.16514E-01
 0.75250000E+02  0.14021E-01
 0.75300003E+02  0.11993E-01
 0.75349998E+02  0.12991E-01
 0.75400002E+02  0.17077E-01
 0.75450005E+02  0.17667E-01
 0.75500000E+02  0.13160E-01
 0.75550003E+02  0.95453E-02
 0.75599998E+02  0.19574E-02
 0.75650002E+02 -0.67101E-02
 0.75700005E+02 -0.13531E-01
 0.75750000E+02 -0.18336E-01
 0.75800003E+02 -0.17917E-01
 0.75849998E+02 -0.15217E-01
 0.75900002E+02 -0.11172E-01
 0.75950005E+02 -0.10909E-01
 0.76000000E+02 -0.70164E-02
 0.76050003E+02 -0.41714E-02
 0.76099998E+02 -0.78490E-02
 0.76150002E+02 -0.11620E-01
 0.76200005E+02 -0.17873E-01
 0.76250000E+02 -0.18292E-01
 0.76300003E+02 -0.13460E-01
 0.76349998E+02 -0.94149E-02
 0.76400002E+02 -0.94317E-02
 0.76450005E+02 -0.12134E-01
 0.76500000E+02 -0.17512E-01
 0.76550003E+02 -0.20959E-01
 0.76599998E+02 -0.20909E-01
 0.76650002E+02 -0.19757E-01
 0.76700005E+02 -0.11950E-01
 0.76750000E+02 -0.19908E-02
 0.76800003E+02  0.40882E-02
 0.76849998E+02  0.87002E-02
 0.76900002E+02  0.13822E-01
 0.76950005E+02  0.17580E-01
 0.77000000E+02  0.20772E-01
 0.77050003E+02  0.21661E-01
 0.77099998E+02  0.19297E-01
 0.77150002E+02  0.15461E-01
 0.77200005E+02  0.15034E-01
 0.77250000E+02  0.13860E-01
 0.77300003E+02  0.82387E-02
 0.77349998E+02  0.17318E-02
 0.77400002E+02 -0.67683E-02
 0.77450005E+02 -0.15561E-01
 0.77500000E+02 -0.21891E-01
 0.77550003E+02 -0.21967E-01
 0.77599998E+02 -0.19116E-01
 0.77650002E+02 -0.12056E-01
 0.77700005E+02 -0.26252E-02
 0.77750000E+02  0.40836E-02
 0.77800003E+02  0.72655E-02
 0.77849998E+02  0.50087E-02
 0.77900002E+02  0.17853E-02
 0.77950005E+02 -0.44524E-03
 0.78000000E+02 -0.44806E-02
 0.78050003E+02 -0.97698E-02
 0.78099998E+02 -0.12172E-01
 0.78150002E+02 -0.99391E-02
 0.78200005E+02 -0.59896E-02
 0.78250000E+02 -0.56407E-02
 0.78300003E+02 -0.53552E-02
 0.78349998E+02 -0.43042E-02
 0.78400002E+02 -0.34583E-02
 0.78450005E+02 -0.17614E-02
 0.78500000E+02  0.13809E-02
 0.78550003E+02  0.50628E-02
 0.78599998E+02  0.96258E-02
 0.78650002E+02  0.12210E-01
 0.78700005E+02  0.10996E-01
 0.78750000E+02  0.95473E-02
 0.78800003E+02  0.93034E-02
 0.78849998E+02  0.95500E-02
 0.78900002E+02  0.11071E-01
 0.78950005E+02  0.10112E-01
 0.79000000E+02  0.44261E-02
 0.79050003E+02  0.84968E-03
 0.79099998E+02 -0.35118E-02
 0.79150002E+02 -0.66451E-02
 0.79200005E+02 -0.83964E-02
 0.79250000E+02 -0.10490E-01
 0.79300003E+02 -0.13299E-01
 0.79349998E+02 -0.14232E-01
 0.79400002E+02 -0.12194E-01
 0.79450005E+02 -0.97301E-02
 0.79500000E+02 -0.55753E-02
 0.79550003E+02 -0.30696E-02
 0.79599998E+02 -0.36481E-02
 0.79650002E+02 -0.48411E-02
 0.79700005E+02 -0.41137E-02
 0.79750000E+02 -0.47794E-02
 0.79800003E+02 -0.52356E-02
 0.79849998E+02 -0.38359E-02
 0.79900002E+02 -0.14338E-02
 0.79950005E+02 -0.59894E-03
 0.80000000E+02  0.80785E-03
 0.80050003E+02  0.48976E-02
 0.80099998E+02  0.84361E-02
 0.80150002E+02  0.12041E-01
 0.80200005E+02  0.15058E-01
 0.80250000E+02  0.17195E-01
 0.80300003E+02  0.14090E-01
 0.80349998E+02  0.11027E-01
 0.80400002E+02  0.95166E-02
 0.80450005E+02  0.85613E-02
 0.80500000E+02  0.97913E-02
 0.80550003E+02  0.12035E-01
 0.80599998E+02  0.14827E-01
 0.80650002E+02  0.13556E-01
 0.80700005E+02  0.13889E-01
 0.80750000E+02  0.14642E-01
 0.80800003E+02  0.14764E-01
 0.80849998E+02  0.13788E-01
 0.80900002E+02  0.12663E-01
 0.80950005E+02  0.96537E-02
 0.81000000E+02  0.24821E-02
 0.81050003E+02 -0.44106E-02
 0.81099998E+02 -0.89166E-02
 0.81150002E+02 -0.10944E-01
 0.81200005E+02 -0.13246E-01
 0.81250000E+02 -0.15593E-01
 0.81300003E+02 -0.17238E-01
 0.81349998E+02 -0.17307E-01
 0.81400002E+02 -0.15560E-01
 0.81450005E+02 -0.11064E-01
 0.81500000E+02 -0.93754E-02
 0.81550003E+02 -0.74849E-02
 0.81599998E+02 -0.40602E-02
 0.81650002E+02  0.70777E-03
 0.81700005E+02  0.51361E-02
 0.81750000E+02  0.66154E-02
 0.81800003E+02  0.47391E-02
 0.81849998E+02 -0.15403E-03
 0.81900002E+02 -0.14732E-02
 0.81950005E+02 -0.20695E-02
 0.82000000E+02 -0.27312E-02
 0.82050003E+02 -0.58532E-02
 0.82099998E+02 -0.93359E-02
 0.82150002E+02 -0.78409E-02
 0.82200005E+02 -0.40076E-02
 0.82250000E+02  0.45112E-03
 0.82300003E+02  0.15464E-02
 0.82349998E+02 -0.99411E-03
 0.82400002E+02 -0.34866E-02
 0.82450005E+02 -0.47342E-02
 0.82500000E+02 -0.75248E-02
 0.82550003E+02 -0.10532E-01
 0.82599998E+02 -0.12161E-01
 0.82650002E+02 -0.12302E-01
 0.82700005E+02 -0.12528E-01
 0.82750000E+02 -0.13319E-01
 0.82800003E+02 -0.13575E-01
 0.82849998E+02 -0.11743E-01
 0.82900002E+02 -0.77721E-02
 0.82950005E+02 -0.57946E-02
 0.83000000E+02 -0.26047E-02
 0.83050003E+02  0.73149E-03
 0.83099998E+02  0.18910E-02
 0.83150002E+02  0.15832E-02
 0.83200005E+02  0.38243E-04
 0.83250000E+02 -0.80261E-03
 0.83300003E+02 -0.33718E-03
 0.83349998E+02  0.99647E-03
 0.83400002E+02  0.71710E-03
 0.83450005E+02  0.17209E-02
 0.83500000E+02  0.44585E-02
 0.83550003E+02  0.87281E-02
 0.83599998E+02  0.13318E-01
 0.83650002E+02  0.16233E-01
 0.83700005E+02  0.16789E-01
 0.83750000E+02  0.14272E-01
 0.83800003E+02  0.14393E-01
 0.83849998E+02  0.17262E-01
 0.83900002E+02  0.22807E-01
 0.83950005E+02  0.26565E-01
 0.84000000E+02  0.27119E-01
 0.84050003E+02  0.28071E-01
 0.84099998E+02  0.27831E-01
 0.84150002E+02  0.25173E-01
 0.84200005E+02  0.20449E-01
 0.84250000E+02  0.16058E-01
 0.84300003E+02  0.99192E-02
 0.84349998E+02  0.18769E-02
 0.84400002E+02 -0.50211E-02
 0.84450005E+02 -0.90496E-02
 0.84500000E+02 -0.98993E-02
 0.84550003E+02 -0.86811E-02
 0.84599998E+02 -0.71264E-02
 0.84650002E+02 -0.67078E-02
 0.84700005E+02 -0.80552E-02
 0.84750000E+02 -0.10179E-01
 0.84800003E+02 -0.11200E-01
 0.84849998E+02 -0.93745E-02
 0.84900002E+02 -0.74080E-02
 0.84950005E+02 -0.60449E-02
 0.85000000E+02 -0.30463E-02
 0.85050003E+02 -0.11253E-02
 0.85099998E+02  0.62493E-03
 0.85150002E+02 -0.26988E-03
 0.85200005E+02 -0.36990E-02
 0.85250000E+02 -0.60176E-02
 0.85300003E+02 -0.97396E-02
 0.85349998E+02 -0.11377E-01
 0.85400002E+02 -0.12573E-01
 0.85450005E+02 -0.12349E-01
 0.85500000E+02 -0.91856E-02
 0.85550003E+02 -0.54825E-02
 0.85599998E+02 -0.10570E-02
 0.85650002E+02  0.17153E-02
 0.85700005E+02  0.47504E-02
 0.85750000E+02  0.77346E-02
 0.85800003E+02  0.89205E-02
 0.85849998E+02  0.83405E-02
 0.85900002E+02  0.72439E-02
 0.85950005E+02  0.72658E-02
 0.86000000E+02  0.89701E-02
 0.86050003E+02  0.84845E-02
 0.86099998E+02  0.60056E-02
 0.86150002E+02  0.25970E-02
 0.86200005E+02  0.10893E-02
 0.86250000E+02  0.31485E-02
 0.86300003E+02  0.72634E-02
 0.86349998E+02  0.93422E-02
 0.86400002E+02  0.85612E-02
 0.86450005E+02  0.65523E-02
 0.86500000E+02  0.23969E-02
 0.86550003E+02 -0.32369E-03
 0.86599998E+02 -0.32271E-02
 0.86650002E+02 -0.42120E-02
 0.86700005E+02 -0.23112E-02
 0.86750000E+02  0.10819E-02
 0.86800003E+02  0.27593E-02
 0.86849998E+02  0.34300E-02
 0.86900002E+02  0.36964E-02
 0.86950005E+02  0.33576E-02
 0.87000000E+02  0.31976E-02
 0.87050003E+02  0.70172E-03
 0.87099998E+02 -0.14015E-02
 0.87150002E+02 -0.20010E-02
 0.87200005E+02 -0.34021E-02
 0.87250000E+02 -0.80476E-02
 0.87300003E+02 -0.12139E-01
 0.87349998E+02 -0.15509E-01
 0.87400002E+02 -0.20101E-01
 0.87450005E+02 -0.24292E-01
 0.87500000E+02 -0.26377E-01
 0.87550003E+02 -0.23792E-01
 0.87599998E+02 -0.20054E-01
 0.87650002E+02 -0.17458E-01
 0.87700005E+02 -0.14933E-01
 0.87750000E+02 -0.12001E-01
 0.87800003E+02 -0.81712E-02
 0.87849998E+02 -0.49132E-02
 0.87900002E+02 -0.23164E-02
 0.87950005E+02 -0.10362E-02
 0.88000000E+02  0.65572E-03
 0.88050003E+02  0.21086E-02
 0.88099998E+02  0.46396E-02
 0.88150002E+02  0.85325E-02
 0.88200005E+02  0.11876E-01
 0.88250000E+02  0.12270E-01
 0.88300003E+02  0.97616E-02
 0.88349998E+02  0.10006E-01
 0.88400002E+02  0.11196E-01
 0.88450005E+02  0.12399E-01
 0.88500000E+02  0.13548E-01
 0.88550003E+02  0.11870E-01
 0.88599998E+02  0.88468E-02
 0.88650002E+02  0.63805E-02
 0.88700005E+02  0.30796E-02
 0.88750000E+02  0.14688E-02
 0.88800003E+02  0.15757E-02
 0.88849998E+02  0.11112E-02
 0.88900002E+02  0.47705E-03
 0.88950005E+02 -0.10314E-02
 0.89000000E+02 -0.33283E-02
 0.89050003E+02 -0.55102E-02
 0.89099998E+02 -0.63453E-02
 0.89150002E+02 -0.73635E-02
 0.89200005E+02 -0.95152E-02
 0.89250000E+02 -0.12565E-01
 0.89300003E+02 -0.15705E-01
 0.89349998E+02 -0.15730E-01
 0.89400002E+02 -0.12934E-01
 0.89450005E+02 -0.80697E-02
 0.89500000E+02 -0.48179E-02
 0.89550003E+02 -0.30702E-02
 0.89599998E+02  0.33327E-03
 0.89650002E+02  0.30511E-02
 0.89700005E+02  0.50021E-02
 0.89750000E+02  0.54163E-02
 0.89800003E+02  0.57302E-02
 0.89849998E+02  0.71334E-02
 0.89900002E+02  0.88195E-02
 0.89950005E+02  0.88065E-02
 0.90000000E+02  0.71028E-02
 0.90050003E+02  0.50020E-02
 0.90099998E+02  0.78757E-03
 0.90150002E+02 -0.36349E-02
 0.90200005E+02 -0.72211E-02
 0.90250000E+02 -0.81248E-02
 0.90300003E+02 -0.89104E-02
 0.90349998E+02 -0.10130E-01
 0.90400002E+02 -0.92018E-02
 0.90450005E+02 -0.66283E-02
 0.90500000E+02 -0.16642E-02
 0.90550003E+02  0.18362E-02
 0.90599998E+02  0.17676E-02
 0.90650002E+02 -0.10827E-02
 0.90700005E+02 -0.58559E-02
 0.90750000E+02 -0.88622E-02
 0.90800003E+02 -0.75967E-02
 0.90849998E+02 -0.31638E-02
 0.90900002E+02  0.16200E-02
 0.90950005E+02  0.37542E-02
 0.91000000E+02  0.55631E-02
 0.91050003E+02  0.70788E-02
 0.91099998E+02  0.70188E-02
 0.91150002E+02  0.58224E-02
 0.91200005E+02  0.26597E-02
 0.91250000E+02  0.13494E-02
 0.91300003E+02  0.16181E-02
 0.91349998E+02  0.24082E-02
 0.91400002E+02  0.40979E-02
 0.91450005E+02  0.48766E-02
 0.91500000E+02  0.63139E-02
 0.91550003E+02  0.74468E-02
 0.91599998E+02  0.73376E-02
 0.91650002E+02  0.65149E-02
 0.91700005E+02  0.48612E-02
 0.91750000E+02  0.17039E-02
 0.91800003E+02 -0.17504E-02
 0.91849998E+02 -0.47941E-02
 0.91900002E+02 -0.52605E-02
 0.91950005E+02 -0.25861E-02
 0.92000000E+02 -0.17651E-03
 0.92050003E+02  0.22545E-02
 0.92099998E+02  0.21250E-02
 0.92150002E+02  0.89938E-03
 0.92200005E+02 -0.42672E-03
 0.92250000E+02 -0.15324E-02
 0.92300003E+02  0.19006E-02
 0.92349998E+02  0.73024E-02
 0.92400002E+02  0.11961E-01
 0.92450005E+02  0.13401E-01
 0.92500000E+02  0.93152E-02
 0.92550003E+02  0.33424E-02
 0.92599998E+02 -0.21033E-02
 0.92650002E+02 -0.48896E-02
 0.92700005E+02 -0.78724E-02
 0.92750000E+02 -0.94266E-02
 0.92800003E+02 -0.69390E-02
 0.92849998E+02 -0.44178E-02
 0.92900002E+02 -0.92327E-03
 0.92950005E+02  0.23383E-02
 0.93000000E+02  0.41855E-02
 0.93050003E+02  0.47013E-02
 0.93099998E+02  0.57619E-02
 0.93150002E+02  0.73519E-02
 0.93200005E+02  0.66054E-02
 0.93250000E+02  0.46581E-02
 0.93300003E+02  0.22117E-02
 0.93349998E+02 -0.25094E-03
 0.93400002E+02 -0.16297E-02
 0.93450005E+02 -0.34989E-02
 0.93500000E+02 -0.60281E-02
 0.93550003E+02 -0.80471E-02
 0.93599998E+02 -0.89594E-02
 0.93650002E+02 -0.71617E-02
 0.93700005E+02 -0.32754E-02
 0.93750000E+02  0.11418E-02
 0.93800003E+02  0.40742E-02
 0.93849998E+02  0.39669E-02
 0.93900002E+02  0.15453E-02
 0.93950005E+02 -0.13726E-02
 0.94000000E+02 -0.26923E-02
 0.94050003E+02 -0.21910E-02
 0.94099998E+02 -0.12714E-02
 0.94150002E+02 -0.12721E-02
 0.94200005E+02 -0.14325E-02
 0.94250000E+02 -0.10071E-02
 0.94300003E+02  0.24580E-03
 0.94349998E+02  0.82761E-03
 0.94400002E+02  0.24626E-03
 0.94450005E+02 -0.28809E-03
 0.94500000E+02 -0.94586E-03
 0.94550003E+02  0.30139E-03
 0.94599998E+02  0.31047E-02
 0.94650002E+02  0.75813E-02
 0.94700005E+02  0.10818E-01
 0.94750000E+02  0.11051E-01
 0.94800003E+02  0.10344E-01
 0.94849998E+02  0.70010E-02
 0.94900002E+02  0.32312E-02
 0.94950005E+02 -0.21358E-03
 0.95000000E+02 -0.13790E-02
 0.95050003E+02 -0.12151E-02
 0.95099998E+02 -0.19313E-02
 0.95150002E+02 -0.15902E-02
 0.95200005E+02 -0.68315E-03
 0.95250000E+02 -0.18632E-02
 0.95300003E+02 -0.43770E-02
 0.95349998E+02 -0.64491E-02
 0.95400002E+02 -0.93020E-02
 0.95450005E+02 -0.11175E-01
 0.95500000E+02 -0.12115E-01
 0.95550003E+02 -0.12825E-01
 0.95599998E+02 -0.13435E-01
 0.95650002E+02 -0.13519E-01
 0.95700005E+02 -0.12216E-01
 0.95750000E+02 -0.88839E-02
 0.95800003E+02 -0.52031E-02
 0.95849998E+02 -0.28182E-02
 0.95900002E+02 -0.10599E-02
 0.95950005E+02  0.33705E-03
 0.96000000E+02  0.18329E-03
 0.96050003E+02  0.38470E-04
 0.96099998E+02  0.42382E-03
 0.96150002E+02  0.14085E-02
 0.96200005E+02  0.45676E-02
 0.96250000E+02  0.70701E-02
 0.96300003E+02  0.91719E-02
 0.96349998E+02  0.10181E-01
 0.96400002E+02  0.11462E-01
 0.96450005E+02  0.13586E-01
 0.96500000E+02  0.13938E-01
 0.96550003E+02  0.13830E-01
 0.96599998E+02  0.13466E-01
 0.96650002E+02  0.12499E-01
 0.96700005E+02  0.10205E-01
 0.96750000E+02  0.66858E-02
 0.96800003E+02  0.43888E-02
 0.96849998E+02  0.29988E-02
 0.96900002E+02  0.29123E-02
 0.96950005E+02  0.45330E-02
 0.97000000E+02  0.68536E-02
 0.97050003E+02  0.98618E-02
 0.97099998E+02  0.12846E-01
 0.97150002E+02  0.15269E-01
 0.97200005E+02  0.17132E-01
 0.97250000E+02  0.17069E-01
 0.97300003E+02  0.15561E-01
 0.97349998E+02  0.12934E-01
 0.97400002E+02  0.88248E-02
 0.97450005E+02  0.57539E-02
 0.97500000E+02  0.29912E-02
 0.97550003E+02  0.11455E-02
 0.97599998E+02 -0.64688E-03
 0.97650002E+02 -0.19285E-02
 0.97700005E+02 -0.17970E-02
 0.97750000E+02 -0.25803E-02
 0.97800003E+02 -0.44565E-02
 0.97849998E+02 -0.79351E-02
 0.97900002E+02 -0.11625E-01
 0.97950005E+02 -0.14589E-01
 0.98000000E+02 -0.16382E-01
 0.98050003E+02 -0.16890E-01
 0.98099998E+02 -0.15989E-01
 0.98150002E+02 -0.13913E-01
 0.98200005E+02 -0.12240E-01
 0.98250000E+02 -0.11149E-01
 0.98300003E+02 -0.10118E-01
 0.98349998E+02 -0.97074E-02
 0.98400002E+02 -0.10124E-01
 0.98450005E+02 -0.10236E-01
 0.98500000E+02 -0.11204E-01
 0.98550003E+02 -0.11080E-01
 0.98599998E+02 -0.96941E-02
 0.98650002E+02 -0.81399E-02
 0.98700005E+02 -0.66134E-02
 0.98750000E+02 -0.62033E-02
 0.98800003E+02 -0.63341E-02
 0.98849998E+02 -0.64771E-02
 0.98900002E+02 -0.53824E-02
 0.98950005E+02 -0.40542E-02
 0.99000000E+02 -0.21257E-02
 0.99050003E+02 -0.98631E-04
 0.99099998E+02  0.36727E-02
 0.99150002E+02  0.73425E-02
 0.99200005E+02  0.86126E-02
 0.99250000E+02  0.77019E-02
 0.99300003E+02  0.60833E-02
 0.99349998E+02  0.50087E-02
 0.99400002E+02  0.37632E-02
 0.99450005E+02  0.37759E-02
 0.99500000E+02  0.44447E-02
 0.99550003E+02  0.66465E-02
 0.99599998E+02  0.83755E-02
 0.99650002E+02  0.81681E-02
 0.99700005E+02  0.59136E-02
 0.99750000E+02  0.18930E-02
 0.99800003E+02 -0.25898E-02
 0.99849998E+02 -0.57361E-02
 0.99900002E+02 -0.66922E-02
 0.99950005E+02 -0.68708E-02
 0.10000000E+03 -0.73680E-02
 0.10005000E+03 -0.90400E-02
 0.10010000E+03 -0.11021E-01
 0.10015000E+03 -0.12407E-01
 0.10020000E+03 -0.12949E-01
 0.10025000E+03 -0.13578E-01
 0.10030000E+03 -0.14264E-01
 0.10035000E+03 -0.14131E-01
 0.10040000E+03 -0.12741E-01
 0.10045000E+03 -0.11508E-01
 0.10050000E+03 -0.10877E-01
 0.10055000E+03 -0.99248E-02
 0.10060000E+03 -0.85230E-02
 0.10065000E+03 -0.68960E-02
 0.10070000E+03 -0.54065E-02
 0.10075000E+03 -0.29286E-02
 0.10080000E+03 -0.75727E-03
 0.10085000E+03  0.19129E-02
 0.10090000E+03  0.47164E-02
 0.10095000E+03  0.80844E-02
 0.10100000E+03  0.10360E-01
 0.10105000E+03  0.10460E-01
 0.10110000E+03  0.10127E-01
 0.10115000E+03  0.90235E-02
 0.10120000E+03  0.96167E-02
 0.10125000E+03  0.10465E-01
 0.10130000E+03  0.10069E-01
 0.10135000E+03  0.96427E-02
 0.10140000E+03  0.89072E-02
 0.10145000E+03  0.81394E-02
 0.10150000E+03  0.79729E-02
 0.10155000E+03  0.76030E-02
 0.10160000E+03  0.69652E-02
 0.10165000E+03  0.61459E-02
 0.10170000E+03  0.62548E-02
 0.10175000E+03  0.60680E-02
 0.10180000E+03  0.61748E-02
 0.10185000E+03  0.54823E-02
 0.10190000E+03  0.31670E-02
 0.10195000E+03  0.16583E-02
 0.10200000E+03  0.13934E-02
 0.10205000E+03  0.21467E-02
 0.10210000E+03  0.13486E-02
 0.10215000E+03 -0.11285E-03
 0.10220000E+03 -0.27184E-02
 0.10225000E+03 -0.49970E-02
 0.10230000E+03 -0.50546E-02
 0.10235000E+03 -0.39762E-02
 0.10240000E+03 -0.19987E-02
 0.10245000E+03 -0.77549E-03
 0.10250000E+03 -0.66981E-03
 0.10255000E+03 -0.23554E-02
 0.10260000E+03 -0.53641E-02
 0.10265000E+03 -0.82514E-02
 0.10270000E+03 -0.10192E-01
 0.10275000E+03 -0.10157E-01
 0.10280000E+03 -0.91456E-02
 0.10285000E+03 -0.78159E-02
 0.10290000E+03 -0.63366E-02
 0.10295000E+03 -0.71055E-02
 0.10300000E+03 -0.87876E-02
 0.10305000E+03 -0.97720E-02
 0.10310000E+03 -0.10107E-01
 0.10315000E+03 -0.89420E-02
 0.10320000E+03 -0.72031E-02
 0.10325000E+03 -0.47431E-02
 0.10330000E+03 -0.21894E-02
 0.10335000E+03  0.10361E-02
 0.10340000E+03  0.46063E-02
 0.10345000E+03  0.69861E-02
 0.10350000E+03  0.77104E-02
 0.10355000E+03  0.75886E-02
 0.10360000E+03  0.74773E-02
 0.10365000E+03  0.80617E-02
 0.10370000E+03  0.90857E-02
 0.10375000E+03  0.91825E-02
 0.10380000E+03  0.93813E-02
 0.10385000E+03  0.98363E-02
 0.10390000E+03  0.10995E-01
 0.10395000E+03  0.12807E-01
 0.10400000E+03  0.14726E-01
 0.10405000E+03  0.14562E-01
 0.10410000E+03  0.12138E-01
 0.10415000E+03  0.91878E-02
 0.10420000E+03  0.55192E-02
 0.10425000E+03  0.14232E-02
 0.10430000E+03 -0.16858E-02
 0.10435000E+03 -0.43427E-02
 0.10440000E+03 -0.61092E-02
 0.10445000E+03 -0.63460E-02
 0.10450000E+03 -0.49085E-02
 0.10455000E+03 -0.25135E-02
 0.10460000E+03 -0.36246E-03
 0.10465000E+03  0.26540E-02
 0.10470000E+03  0.47510E-02
 0.10475000E+03  0.62975E-02
 0.10480000E+03  0.67386E-02
 0.10485000E+03  0.65901E-02
 0.10490000E+03  0.55736E-02
 0.10495000E+03  0.36732E-02
 0.10500000E+03  0.16811E-02
 0.10505000E+03 -0.11000E-02
 0.10510000E+03 -0.32919E-02
 0.10515000E+03 -0.51293E-02
 0.10520000E+03 -0.57859E-02
 0.10525000E+03 -0.61133E-02
 0.10530000E+03 -0.60096E-02
 0.10535000E+03 -0.52496E-02
 0.10540000E+03 -0.45870E-02
 0.10545000E+03 -0.35925E-02
 0.10550000E+03 -0.27079E-02
 0.10555000E+03 -0.23895E-02
 0.10560000E+03 -0.31020E-02
 0.10565000E+03 -0.49994E-02
 0.10570000E+03 -0.70875E-02
 0.10575000E+03 -0.92068E-02
 0.10580000E+03 -0.10538E-01
 0.10585000E+03 -0.11298E-01
 0.10590000E+03 -0.11320E-01
 0.10595000E+03 -0.10542E-01
 0.10600000E+03 -0.98953E-02
 0.10605000E+03 -0.80162E-02
 0.10610000E+03 -0.56500E-02
 0.10615000E+03 -0.36931E-02
 0.10620000E+03 -0.30472E-02
 0.10625000E+03 -0.22510E-02
 0.10630000E+03 -0.66029E-03
 0.10635000E+03  0.94750E-03
 0.10640000E+03  0.32317E-02
 0.10645000E+03  0.48139E-02
 0.10650000E+03  0.64766E-02
 0.10655000E+03  0.86239E-02
 0.10660000E+03  0.96903E-02
 0.10665000E+03  0.96504E-02
 0.10670000E+03  0.85012E-02
 0.10675000E+03  0.66114E-02
 0.10680000E+03  0.57317E-02
 0.10685000E+03  0.65127E-02
 0.10690000E+03  0.80407E-02
 0.10695000E+03  0.94636E-02
 0.10700000E+03  0.10596E-01
 0.10705000E+03  0.11142E-01
 0.10710000E+03  0.10889E-01
 0.10715000E+03  0.10484E-01
 0.10720000E+03  0.99283E-02
 0.10725000E+03  0.92386E-02
 0.10730000E+03  0.89553E-02
 0.10735000E+03  0.90361E-02
 0.10740000E+03  0.91693E-02
 0.10745000E+03  0.93492E-02
 0.10750000E+03  0.93071E-02
 0.10755000E+03  0.92654E-02
 0.10760000E+03  0.83964E-02
 0.10765000E+03  0.62181E-02
 0.10770000E+03  0.41724E-02
 0.10775000E+03  0.17388E-02
 0.10780000E+03 -0.13644E-02
 0.10785000E+03 -0.50248E-02
 0.10790000E+03 -0.74779E-02
 0.10795000E+03 -0.81571E-02
 0.10800000E+03 -0.77608E-02
 0.10805000E+03 -0.66335E-02
 0.10810000E+03 -0.59281E-02
 0.10815000E+03 -0.51373E-02
 0.10820000E+03 -0.43170E-02
 0.10825000E+03 -0.31167E-02
 0.10830000E+03 -0.19661E-02
 0.10835000E+03 -0.16885E-02
 0.10840000E+03 -0.24488E-02
 0.10845000E+03 -0.37563E-02
 0.10850000E+03 -0.50855E-02
 0.10855000E+03 -0.66470E-02
 0.10860000E+03 -0.79361E-02
 0.10865000E+03 -0.76516E-02
 0.10870000E+03 -0.72109E-02
 0.10875000E+03 -0.72566E-02
 0.10880000E+03 -0.73618E-02
 0.10885000E+03 -0.78390E-02
 0.10890000E+03 -0.77660E-02
 0.10895000E+03 -0.73559E-02
 0.10900000E+03 -0.61560E-02
 0.10905000E+03 -0.50217E-02
 0.10910000E+03 -0.49314E-02
 0.10915000E+03 -0.57648E-02
 0.10920000E+03 -0.68954E-02
 0.10925000E+03 -0.76958E-02
 0.10930000E+03 -0.80549E-02
 0.10935000E+03 -0.73501E-02
 0.10940000E+03 -0.69665E-02
 0.10945000E+03 -0.60170E-02
 0.10950000E+03 -0.43733E-02
 0.10955000E+03 -0.20975E-02
 0.10960000E+03  0.49567E-03
 0.10965000E+03  0.25960E-02
 0.10970000E+03  0.40123E-02
 0.10975000E+03  0.34829E-02
 0.10980000E+03  0.23134E-02
 0.10985000E+03  0.12684E-02
 0.10990000E+03  0.76679E-03
 0.10995000E+03  0.55287E-03
 0.11000000E+03  0.75923E-03
 0.11005000E+03  0.38946E-03
 0.11010000E+03 -0.41211E-03
 0.11015000E+03 -0.76147E-03
 0.11020000E+03  0.20810E-03
 0.11025000E+03  0.19652E-02
 0.11030000E+03  0.35631E-02
 0.11035000E+03  0.59394E-02
 0.11040000E+03  0.83344E-02
 0.11045000E+03  0.93930E-02
 0.11050000E+03  0.81166E-02
 0.11055000E+03  0.60188E-02
 0.11060000E+03  0.47875E-02
 0.11065000E+03  0.52121E-02
 0.11070000E+03  0.63847E-02
 0.11075000E+03  0.73615E-02
 0.11080000E+03  0.81235E-02
 0.11085000E+03  0.83551E-02
 0.11090000E+03  0.82379E-02
 0.11095000E+03  0.73624E-02
 0.11100000E+03  0.46225E-02
 0.11105000E+03  0.94538E-03
 0.11110000E+03 -0.31980E-02
 0.11115000E+03 -0.69173E-02
 0.11120000E+03 -0.96748E-02
 0.11125000E+03 -0.12079E-01
 0.11130000E+03 -0.13625E-01
 0.11135000E+03 -0.15008E-01
 0.11140000E+03 -0.14900E-01
 0.11145000E+03 -0.12926E-01
 0.11150000E+03 -0.10059E-01
 0.11155000E+03 -0.74045E-02
 0.11160000E+03 -0.55609E-02
 0.11165000E+03 -0.37550E-02
 0.11170000E+03 -0.18399E-02
 0.11175000E+03  0.16313E-03
 0.11180000E+03  0.21881E-02
 0.11185000E+03  0.43259E-02
 0.11190000E+03  0.58344E-02
 0.11195000E+03  0.58800E-02
 0.11200000E+03  0.55002E-02
 0.11205000E+03  0.56618E-02
 0.11210000E+03  0.59390E-02
 0.11215000E+03  0.62002E-02
 0.11220000E+03  0.62226E-02
 0.11225000E+03  0.55467E-02
 0.11230000E+03  0.42559E-02
 0.11235000E+03  0.30300E-02
 0.11240000E+03  0.12986E-02
 0.11245000E+03 -0.48522E-03
 0.11250000E+03 -0.23006E-02
 0.11255000E+03 -0.42899E-02
 0.11260000E+03 -0.53272E-02
 0.11265000E+03 -0.59550E-02
 0.11270000E+03 -0.54735E-02
 0.11275000E+03 -0.48397E-02
 0.11280000E+03 -0.55274E-02
 0.11285000E+03 -0.67991E-02
 0.11290000E+03 -0.81137E-02
 0.11295000E+03 -0.80386E-02
 0.11300000E+03 -0.66554E-02
 0.11305000E+03 -0.45993E-02
 0.11310000E+03 -0.28267E-02
 0.11315000E+03 -0.22465E-02
 0.11320000E+03 -0.12866E-02
 0.11325000E+03  0.48146E-04
 0.11330000E+03  0.95725E-03
 0.11335000E+03  0.15436E-02
 0.11340000E+03  0.18695E-02
 0.11345000E+03  0.21711E-02
 0.11350000E+03  0.26980E-02
 0.11355000E+03  0.31483E-02
 0.11360000E+03  0.29035E-02
 0.11365000E+03  0.15785E-02
 0.11370000E+03  0.25778E-03
 0.11375000E+03 -0.11533E-02
 0.11380000E+03 -0.29550E-02
 0.11385000E+03 -0.55185E-02
 0.11390000E+03 -0.82461E-02
 0.11395000E+03 -0.93207E-02
 0.11400000E+03 -0.87782E-02
 0.11405000E+03 -0.67129E-02
 0.11410000E+03 -0.41524E-02
 0.11415000E+03 -0.10786E-02
 0.11420000E+03  0.21464E-02
 0.11425000E+03  0.48456E-02
 0.11430000E+03  0.73218E-02
 0.11435000E+03  0.89138E-02
 0.11440000E+03  0.87421E-02
 0.11445000E+03  0.79703E-02
 0.11450000E+03  0.69783E-02
 0.11455000E+03  0.52023E-02
 0.11460000E+03  0.37051E-02
 0.11465000E+03  0.22150E-02
 0.11470000E+03  0.89231E-03
 0.11475000E+03  0.46266E-03
 0.11480000E+03  0.65480E-03
 0.11485000E+03  0.13778E-02
 0.11490000E+03  0.27569E-02
 0.11495000E+03  0.41459E-02
 0.11500000E+03  0.50004E-02
 0.11505000E+03  0.57475E-02
 0.11510000E+03  0.68265E-02
 0.11515000E+03  0.78109E-02
 0.11520000E+03  0.75859E-02
 0.11525000E+03  0.65508E-02
 0.11530000E+03  0.50743E-02
 0.11535000E+03  0.31821E-02
 0.11540000E+03  0.15777E-02
 0.11545000E+03  0.60120E-03
 0.11550000E+03  0.12774E-03
 0.11555000E+03 -0.34415E-03
 0.11560000E+03 -0.78811E-03
 0.11565000E+03 -0.83154E-03
 0.11570000E+03 -0.71333E-03
 0.11575000E+03 -0.10877E-02
 0.11580000E+03 -0.18540E-02
 0.11585000E+03 -0.27617E-02
 0.11590000E+03 -0.35678E-02
 0.11595000E+03 -0.41025E-02
 0.11600000E+03 -0.40889E-02
 0.11605000E+03 -0.33885E-02
 0.11610000E+03 -0.26205E-02
 0.11615000E+03 -0.20599E-02
 0.11620000E+03 -0.19160E-02
 0.11625000E+03 -0.19259E-02
 0.11630000E+03 -0.21810E-02
 0.11635000E+03 -0.30300E-02
 0.11640000E+03 -0.43831E-02
 0.11645000E+03 -0.62303E-02
 0.11650000E+03 -0.71817E-02
 0.11655000E+03 -0.70903E-02
 0.11660000E+03 -0.62845E-02
 0.11665000E+03 -0.50698E-02
 0.11670000E+03 -0.41271E-02
 0.11675000E+03 -0.35441E-02
 0.11680000E+03 -0.34823E-02
 0.11685000E+03 -0.31823E-02
 0.11690000E+03 -0.25653E-02
 0.11695000E+03 -0.14364E-02
 0.11700000E+03  0.62318E-04
 0.11705000E+03  0.15498E-02
 0.11710000E+03  0.27772E-02
 0.11715000E+03  0.38267E-02
 0.11720000E+03  0.50643E-02
 0.11725000E+03  0.62750E-02
 0.11730000E+03  0.76129E-02
 0.11735000E+03  0.86775E-02
 0.11740000E+03  0.90169E-02
 0.11745000E+03  0.86650E-02
 0.11750000E+03  0.75801E-02
 0.11755000E+03  0.58161E-02
 0.11760000E+03  0.35146E-02
 0.11765000E+03  0.10184E-02
 0.11770000E+03 -0.56520E-03
 0.11775000E+03 -0.12267E-02
 0.11780000E+03 -0.18794E-02
 0.11785000E+03 -0.23857E-02
 0.11790000E+03 -0.31385E-02
 0.11795000E+03 -0.41701E-02
 0.11800000E+03 -0.47992E-02
 0.11805000E+03 -0.52455E-02
 0.11810000E+03 -0.58154E-02
 0.11815000E+03 -0.70828E-02
 0.11820000E+03 -0.88170E-02
 0.11825000E+03 -0.10202E-01
 0.11830000E+03 -0.10540E-01
 0.11835000E+03 -0.99425E-02
 0.11840000E+03 -0.89456E-02
 0.11845000E+03 -0.70275E-02
 0.11850000E+03 -0.46702E-02
 0.11855000E+03 -0.21154E-02
 0.11860000E+03  0.45864E-03
 0.11865000E+03  0.25537E-02
 0.11870000E+03  0.43549E-02
 0.11875000E+03  0.63096E-02
 0.11880000E+03  0.81754E-02
 0.11885000E+03  0.94401E-02
 0.11890000E+03  0.10269E-01
 0.11895000E+03  0.10790E-01
 0.11900000E+03  0.11501E-01
 0.11905000E+03  0.12687E-01
 0.11910000E+03  0.13884E-01
 0.11915000E+03  0.14531E-01
 0.11920000E+03  0.13979E-01
 0.11925000E+03  0.12783E-01
 0.11930000E+03  0.11393E-01
 0.11935000E+03  0.10098E-01
 0.11940000E+03  0.85680E-02
 0.11945000E+03  0.67732E-02
 0.11950000E+03  0.48407E-02
 0.11955000E+03  0.34314E-02
 0.11960000E+03  0.31068E-02
 0.11965000E+03  0.28336E-02
 0.11970000E+03  0.24432E-02
 0.11975000E+03  0.91079E-03
 0.11980000E+03 -0.75108E-03
 0.11985000E+03 -0.23840E-02
 0.11990000E+03 -0.27731E-02
 0.11995000E+03 -0.38086E-02
 0.12000000E+03 -0.25864E-02
