 0.00000000E+00 -0.36606E-03
 0.50000001E-01 -0.94562E-03
 0.10000000E+00 -0.75330E-03
 0.15000001E+00 -0.83863E-03
 0.20000000E+00 -0.74488E-03
 0.25000000E+00 -0.76647E-03
 0.30000001E+00 -0.69893E-03
 0.34999999E+00 -0.69847E-03
 0.40000001E+00 -0.67713E-03
 0.45000002E+00 -0.67883E-03
 0.50000000E+00 -0.65689E-03
 0.55000001E+00 -0.64719E-03
 0.60000002E+00 -0.62608E-03
 0.65000004E+00 -0.60981E-03
 0.69999999E+00 -0.61923E-03
 0.75000000E+00 -0.61610E-03
 0.80000001E+00 -0.63654E-03
 0.85000002E+00 -0.64169E-03
 0.90000004E+00 -0.66546E-03
 0.94999999E+00 -0.66961E-03
 0.10000000E+01 -0.68315E-03
 0.10500001E+01 -0.70414E-03
 0.11000000E+01 -0.73935E-03
 0.11500000E+01 -0.75167E-03
 0.12000000E+01 -0.75517E-03
 0.12500000E+01 -0.77235E-03
 0.13000001E+01 -0.78620E-03
 0.13500000E+01 -0.80751E-03
 0.14000000E+01 -0.83016E-03
 0.14500000E+01 -0.84128E-03
 0.15000000E+01 -0.84309E-03
 0.15500001E+01 -0.83894E-03
 0.16000000E+01 -0.84357E-03
 0.16500000E+01 -0.85249E-03
 0.17000000E+01 -0.86331E-03
 0.17500000E+01 -0.87564E-03
 0.18000001E+01 -0.86885E-03
 0.18500000E+01 -0.85742E-03
 0.19000000E+01 -0.84745E-03
 0.19500000E+01 -0.82707E-03
 0.20000000E+01 -0.80984E-03
 0.20500000E+01 -0.79893E-03
 0.21000001E+01 -0.79092E-03
 0.21500001E+01 -0.78285E-03
 0.22000000E+01 -0.77273E-03
 0.22500000E+01 -0.77065E-03
 0.23000000E+01 -0.77043E-03
 0.23500001E+01 -0.77663E-03
 0.24000001E+01 -0.79205E-03
 0.24500000E+01 -0.79760E-03
 0.25000000E+01 -0.79051E-03
 0.25500000E+01 -0.77340E-03
 0.26000001E+01 -0.75971E-03
 0.26500001E+01 -0.75638E-03
 0.27000000E+01 -0.75564E-03
 0.27500000E+01 -0.75865E-03
 0.28000000E+01 -0.75545E-03
 0.28500001E+01 -0.75006E-03
 0.29000001E+01 -0.74951E-03
 0.29500000E+01 -0.74945E-03
 0.30000000E+01 -0.73905E-03
 0.30500000E+01 -0.74324E-03
 0.31000001E+01 -0.73651E-03
 0.31500001E+01 -0.72393E-03
 0.32000000E+01 -0.72199E-03
 0.32500000E+01 -0.71431E-03
 0.33000000E+01 -0.71368E-03
 0.33500001E+01 -0.69276E-03
 0.34000001E+01 -0.65896E-03
 0.34500000E+01 -0.63853E-03
 0.35000000E+01 -0.64728E-03
 0.35500000E+01 -0.65388E-03
 0.36000001E+01 -0.67142E-03
 0.36500001E+01 -0.68459E-03
 0.37000000E+01 -0.68515E-03
 0.37500000E+01 -0.67671E-03
 0.38000000E+01 -0.65916E-03
 0.38500001E+01 -0.65257E-03
 0.39000001E+01 -0.64650E-03
 0.39500000E+01 -0.64328E-03
 0.40000000E+01 -0.62801E-03
 0.40500002E+01 -0.60826E-03
 0.40999999E+01 -0.59939E-03
 0.41500001E+01 -0.60472E-03
 0.42000003E+01 -0.62183E-03
 0.42500000E+01 -0.64125E-03
 0.43000002E+01 -0.64412E-03
 0.43499999E+01 -0.64168E-03
 0.44000001E+01 -0.65359E-03
 0.44500003E+01 -0.69275E-03
 0.45000000E+01 -0.74349E-03
 0.45500002E+01 -0.76690E-03
 0.45999999E+01 -0.77844E-03
 0.46500001E+01 -0.80037E-03
 0.47000003E+01 -0.83427E-03
 0.47500000E+01 -0.87663E-03
 0.48000002E+01 -0.91082E-03
 0.48499999E+01 -0.94409E-03
 0.49000001E+01 -0.97038E-03
 0.49500003E+01 -0.98994E-03
 0.50000000E+01 -0.99877E-03
 0.50500002E+01 -0.99312E-03
 0.50999999E+01 -0.99760E-03
 0.51500001E+01 -0.98963E-03
 0.52000003E+01 -0.97940E-03
 0.52500000E+01 -0.97016E-03
 0.53000002E+01 -0.95845E-03
 0.53499999E+01 -0.96701E-03
 0.54000001E+01 -0.97648E-03
 0.54500003E+01 -0.98961E-03
 0.55000000E+01 -0.10047E-02
 0.55500002E+01 -0.10086E-02
 0.55999999E+01 -0.10199E-02
 0.56500001E+01 -0.10372E-02
 0.57000003E+01 -0.10516E-02
 0.57500000E+01 -0.10572E-02
 0.58000002E+01 -0.10416E-02
 0.58499999E+01 -0.10160E-02
 0.59000001E+01 -0.99478E-03
 0.59500003E+01 -0.98720E-03
 0.60000000E+01 -0.97910E-03
 0.60500002E+01 -0.97460E-03
 0.60999999E+01 -0.97026E-03
 0.61500001E+01 -0.96302E-03
 0.62000003E+01 -0.95837E-03
 0.62500000E+01 -0.95646E-03
 0.63000002E+01 -0.96269E-03
 0.63499999E+01 -0.96701E-03
 0.64000001E+01 -0.97280E-03
 0.64500003E+01 -0.96293E-03
 0.65000000E+01 -0.96286E-03
 0.65500002E+01 -0.96646E-03
 0.65999999E+01 -0.95184E-03
 0.66500001E+01 -0.93410E-03
 0.67000003E+01 -0.90838E-03
 0.67500000E+01 -0.88678E-03
 0.68000002E+01 -0.87274E-03
 0.68499999E+01 -0.85908E-03
 0.69000001E+01 -0.83977E-03
 0.69500003E+01 -0.81083E-03
 0.70000000E+01 -0.78091E-03
 0.70500002E+01 -0.75225E-03
 0.70999999E+01 -0.72528E-03
 0.71500001E+01 -0.71318E-03
 0.72000003E+01 -0.69727E-03
 0.72500000E+01 -0.68164E-03
 0.73000002E+01 -0.65991E-03
 0.73499999E+01 -0.62900E-03
 0.74000001E+01 -0.61479E-03
 0.74500003E+01 -0.59001E-03
 0.75000000E+01 -0.55483E-03
 0.75500002E+01 -0.51818E-03
 0.75999999E+01 -0.48856E-03
 0.76500001E+01 -0.48749E-03
 0.77000003E+01 -0.48933E-03
 0.77500000E+01 -0.48670E-03
 0.78000002E+01 -0.48935E-03
 0.78499999E+01 -0.48984E-03
 0.79000001E+01 -0.49157E-03
 0.79500003E+01 -0.50121E-03
 0.80000000E+01 -0.53475E-03
 0.80500002E+01 -0.57164E-03
 0.81000004E+01 -0.58556E-03
 0.81500006E+01 -0.60474E-03
 0.81999998E+01 -0.62631E-03
 0.82500000E+01 -0.65967E-03
 0.83000002E+01 -0.69695E-03
 0.83500004E+01 -0.72472E-03
 0.84000006E+01 -0.75777E-03
 0.84499998E+01 -0.79220E-03
 0.85000000E+01 -0.83506E-03
 0.85500002E+01 -0.88761E-03
 0.86000004E+01 -0.93673E-03
 0.86500006E+01 -0.97905E-03
 0.86999998E+01 -0.10227E-02
 0.87500000E+01 -0.10512E-02
 0.88000002E+01 -0.10884E-02
 0.88500004E+01 -0.11405E-02
 0.89000006E+01 -0.11975E-02
 0.89499998E+01 -0.12418E-02
 0.90000000E+01 -0.12501E-02
 0.90500002E+01 -0.12506E-02
 0.91000004E+01 -0.12669E-02
 0.91500006E+01 -0.12886E-02
 0.91999998E+01 -0.12894E-02
 0.92500000E+01 -0.12827E-02
 0.93000002E+01 -0.12516E-02
 0.93500004E+01 -0.12255E-02
 0.94000006E+01 -0.12257E-02
 0.94499998E+01 -0.12360E-02
 0.95000000E+01 -0.12533E-02
 0.95500002E+01 -0.12471E-02
 0.96000004E+01 -0.12437E-02
 0.96500006E+01 -0.12518E-02
 0.96999998E+01 -0.12626E-02
 0.97500000E+01 -0.12771E-02
 0.98000002E+01 -0.12737E-02
 0.98500004E+01 -0.12650E-02
 0.99000006E+01 -0.12569E-02
 0.99499998E+01 -0.12507E-02
 0.10000000E+02 -0.12566E-02
 0.10050000E+02 -0.12585E-02
 0.10100000E+02 -0.12606E-02
 0.10150001E+02 -0.12574E-02
 0.10200000E+02 -0.12279E-02
 0.10250000E+02 -0.11711E-02
 0.10300000E+02 -0.11024E-02
 0.10350000E+02 -0.10132E-02
 0.10400001E+02 -0.99299E-03
 0.10450000E+02 -0.12003E-02
 0.10500000E+02 -0.92425E-03
 0.10550000E+02 -0.12030E-02
 0.10600000E+02 -0.18540E-02
 0.10650001E+02 -0.17430E-02
 0.10700000E+02 -0.17183E-02
 0.10750000E+02 -0.10568E-02
 0.10800000E+02 -0.15011E-02
 0.10850000E+02 -0.13737E-02
 0.10900001E+02 -0.12098E-02
 0.10950000E+02  0.14692E-03
 0.11000000E+02  0.50299E-03
 0.11050000E+02 -0.38008E-04
 0.11100000E+02 -0.53337E-03
 0.11150001E+02 -0.50701E-03
 0.11200000E+02  0.29393E-03
 0.11250000E+02 -0.11839E-03
 0.11300000E+02  0.37733E-02
 0.11350000E+02  0.13440E-01
 0.11400001E+02  0.32496E-01
 0.11450000E+02  0.69930E-01
 0.11500000E+02  0.99475E-01
 0.11550000E+02  0.92809E-01
 0.11600000E+02  0.17791E+00
 0.11650001E+02  0.17308E+00
 0.11700000E+02  0.48038E-01
 0.11750000E+02  0.13102E-02
 0.11800000E+02 -0.32049E-01
 0.11850000E+02  0.47742E-02
 0.11900001E+02 -0.75480E-01
 0.11950000E+02 -0.20274E+00
 0.12000000E+02 -0.21649E+00
 0.12050000E+02 -0.59738E-01
 0.12100000E+02  0.94546E-01
 0.12150001E+02  0.48081E-01
 0.12200000E+02 -0.36316E-01
 0.12250000E+02  0.25889E-01
 0.12300000E+02  0.12245E+00
 0.12350000E+02  0.13585E+00
 0.12400001E+02  0.18552E+00
 0.12450000E+02  0.14150E+00
 0.12500000E+02  0.25027E+00
 0.12550000E+02  0.22464E+00
 0.12600000E+02 -0.53655E-01
 0.12650001E+02 -0.26935E+00
 0.12700000E+02 -0.14467E+00
 0.12750000E+02 -0.74095E-01
 0.12800000E+02 -0.28797E+00
 0.12850000E+02 -0.32776E+00
 0.12900001E+02 -0.38373E+00
 0.12950000E+02 -0.14282E+00
 0.13000000E+02  0.62030E-01
 0.13050000E+02  0.13293E+00
 0.13100000E+02  0.12838E+00
 0.13150001E+02  0.11428E+00
 0.13200000E+02  0.11298E+00
 0.13250000E+02  0.19871E-01
 0.13300000E+02 -0.54752E-01
 0.13350000E+02 -0.41310E-01
 0.13400001E+02 -0.12180E-02
 0.13450000E+02 -0.24146E-01
 0.13500000E+02  0.87736E-01
 0.13550000E+02  0.28778E-01
 0.13600000E+02  0.61325E-01
 0.13650001E+02 -0.12372E+00
 0.13700000E+02 -0.18475E+00
 0.13750000E+02  0.48992E-01
 0.13800000E+02  0.11114E+00
 0.13850000E+02  0.27210E-01
 0.13900001E+02 -0.67818E-01
 0.13950000E+02 -0.50576E-01
 0.14000000E+02  0.54785E-01
 0.14050000E+02  0.85294E-01
 0.14100000E+02 -0.10710E-01
 0.14150001E+02  0.85977E-01
 0.14200000E+02  0.13181E+00
 0.14250000E+02  0.95232E-01
 0.14300000E+02 -0.79428E-01
 0.14350000E+02 -0.84919E-01
 0.14400001E+02  0.81643E-01
 0.14450000E+02  0.14127E+00
 0.14500000E+02  0.23921E+00
 0.14550000E+02  0.11535E+00
 0.14600000E+02 -0.76910E-01
 0.14650001E+02  0.88658E-01
 0.14700000E+02  0.47129E-01
 0.14750000E+02 -0.22937E+00
 0.14800000E+02 -0.34768E+00
 0.14850000E+02 -0.23679E+00
 0.14900001E+02  0.31658E-01
 0.14950000E+02  0.33278E-01
 0.15000000E+02 -0.65497E-01
 0.15050000E+02 -0.50623E-01
 0.15100000E+02  0.67900E-01
 0.15150001E+02  0.15411E+00
 0.15200000E+02  0.11688E+00
 0.15250000E+02 -0.36716E-02
 0.15300000E+02  0.60752E-01
 0.15350000E+02  0.22377E+00
 0.15400001E+02  0.23953E+00
 0.15450000E+02  0.12225E+00
 0.15500000E+02 -0.15895E+00
 0.15550000E+02 -0.75217E-01
 0.15600000E+02  0.52349E-01
 0.15650001E+02 -0.13635E+00
 0.15700000E+02 -0.15689E+00
 0.15750000E+02 -0.12811E+00
 0.15800000E+02 -0.14217E+00
 0.15850000E+02 -0.10018E+00
 0.15900001E+02 -0.49876E-02
 0.15950000E+02  0.11447E+00
 0.16000000E+02  0.10998E+00
 0.16050001E+02  0.71747E-01
 0.16100000E+02  0.56025E-01
 0.16150000E+02 -0.65174E-02
 0.16200001E+02  0.54807E-01
 0.16250000E+02  0.87444E-01
 0.16300001E+02  0.40157E-01
 0.16350000E+02 -0.62844E-01
 0.16400000E+02 -0.11211E+00
 0.16450001E+02 -0.30197E-01
 0.16500000E+02 -0.34136E-01
 0.16550001E+02 -0.16679E+00
 0.16600000E+02 -0.15694E+00
 0.16650000E+02  0.87010E-01
 0.16700001E+02  0.19431E+00
 0.16750000E+02  0.35352E+00
 0.16800001E+02  0.41567E+00
 0.16850000E+02  0.16879E+00
 0.16900000E+02 -0.49043E-01
 0.16950001E+02 -0.86427E-01
 0.17000000E+02 -0.14193E+00
 0.17050001E+02 -0.13500E+00
 0.17100000E+02  0.28548E-01
 0.17150000E+02 -0.17063E-01
 0.17200001E+02 -0.20713E+00
 0.17250000E+02 -0.21796E+00
 0.17300001E+02 -0.12914E+00
 0.17350000E+02 -0.36600E-02
 0.17400000E+02  0.76733E-01
 0.17450001E+02  0.38342E-01
 0.17500000E+02  0.10351E+00
 0.17550001E+02  0.21790E+00
 0.17600000E+02  0.27354E+00
 0.17650000E+02  0.25282E+00
 0.17700001E+02  0.10242E+00
 0.17750000E+02 -0.47790E-01
 0.17800001E+02 -0.10927E+00
 0.17850000E+02 -0.31035E+00
 0.17900000E+02 -0.37375E+00
 0.17950001E+02 -0.32060E+00
 0.18000000E+02 -0.14300E+00
 0.18050001E+02  0.92638E-01
 0.18100000E+02  0.22221E-02
 0.18150000E+02 -0.13771E+00
 0.18200001E+02 -0.18727E+00
 0.18250000E+02 -0.73393E-01
 0.18300001E+02  0.59252E-01
 0.18350000E+02  0.18906E+00
 0.18400000E+02  0.10140E+00
 0.18450001E+02  0.30441E-01
 0.18500000E+02  0.99356E-01
 0.18550001E+02  0.64096E-01
 0.18600000E+02  0.51987E-01
 0.18650000E+02  0.44170E-01
 0.18700001E+02 -0.29934E-01
 0.18750000E+02 -0.83623E-01
 0.18800001E+02  0.98769E-01
 0.18850000E+02  0.20207E+00
 0.18900000E+02  0.28742E+00
 0.18950001E+02  0.11323E+00
 0.19000000E+02 -0.13918E+00
 0.19050001E+02 -0.14571E+00
 0.19100000E+02  0.36071E-01
 0.19150000E+02  0.36021E+00
 0.19200001E+02  0.12104E+00
 0.19250000E+02 -0.56381E+00
 0.19300001E+02 -0.83829E+00
 0.19350000E+02 -0.44881E+00
 0.19400000E+02  0.18128E+00
 0.19450001E+02  0.32098E+00
 0.19500000E+02  0.17650E+00
 0.19550001E+02  0.15096E+00
 0.19600000E+02  0.28024E+00
 0.19650000E+02  0.62710E+00
 0.19700001E+02  0.86269E+00
 0.19750000E+02  0.49459E+00
 0.19800001E+02 -0.44195E-01
 0.19850000E+02  0.15088E+00
 0.19900000E+02  0.13391E+00
 0.19950001E+02 -0.36594E+00
 0.20000000E+02 -0.73104E+00
 0.20050001E+02 -0.94438E+00
 0.20100000E+02 -0.99751E+00
 0.20150000E+02 -0.10000E+01
 0.20200001E+02 -0.66550E+00
 0.20250000E+02  0.12351E+00
 0.20300001E+02  0.74461E+00
 0.20350000E+02  0.74366E+00
 0.20400000E+02  0.36927E-01
 0.20450001E+02 -0.15014E+00
 0.20500000E+02  0.63118E+00
 0.20550001E+02  0.69575E+00
 0.20600000E+02 -0.72917E-01
 0.20650000E+02 -0.39149E+00
 0.20700001E+02 -0.48018E+00
 0.20750000E+02 -0.79983E+00
 0.20800001E+02 -0.71424E+00
 0.20850000E+02 -0.74474E+00
 0.20900000E+02 -0.94244E+00
 0.20950001E+02 -0.41924E+00
 0.21000000E+02  0.56528E+00
 0.21050001E+02  0.88718E+00
 0.21100000E+02  0.43679E+00
 0.21150000E+02  0.13344E+00
 0.21200001E+02  0.14234E+00
 0.21250000E+02  0.25952E+00
 0.21300001E+02  0.43531E+00
 0.21350000E+02  0.21540E+00
 0.21400000E+02 -0.25720E+00
 0.21450001E+02 -0.15900E-01
 0.21500000E+02  0.40400E+00
 0.21550001E+02  0.42362E+00
 0.21600000E+02  0.31640E+00
 0.21650000E+02  0.20458E+00
 0.21700001E+02  0.19968E+00
 0.21750000E+02  0.18339E+00
 0.21800001E+02  0.92618E-01
 0.21850000E+02 -0.55678E-01
 0.21900000E+02 -0.25666E+00
 0.21950001E+02 -0.44882E+00
 0.22000000E+02 -0.29012E+00
 0.22050001E+02 -0.70659E-01
 0.22100000E+02 -0.14582E+00
 0.22150000E+02 -0.20354E+00
 0.22200001E+02 -0.33484E-01
 0.22250000E+02  0.17940E+00
 0.22300001E+02 -0.19900E-01
 0.22350000E+02 -0.20252E+00
 0.22400000E+02 -0.96968E-01
 0.22450001E+02 -0.21648E+00
 0.22500000E+02 -0.28053E+00
 0.22550001E+02 -0.74935E-01
 0.22600000E+02  0.11120E+00
 0.22650000E+02  0.28259E+00
 0.22700001E+02  0.37976E+00
 0.22750000E+02  0.24739E+00
 0.22800001E+02 -0.26211E-01
 0.22850000E+02 -0.58419E-01
 0.22900000E+02  0.11277E+00
 0.22950001E+02 -0.12954E+00
 0.23000000E+02 -0.38635E+00
 0.23050001E+02 -0.21360E+00
 0.23100000E+02  0.73391E-02
 0.23150000E+02  0.12641E+00
 0.23200001E+02  0.16984E+00
 0.23250000E+02  0.13583E+00
 0.23300001E+02  0.24923E-01
 0.23350000E+02  0.10869E+00
 0.23400000E+02  0.19508E+00
 0.23450001E+02  0.14832E+00
 0.23500000E+02  0.20497E+00
 0.23550001E+02  0.26561E+00
 0.23600000E+02  0.13072E+00
 0.23650000E+02 -0.10216E+00
 0.23700001E+02 -0.25515E+00
 0.23750000E+02 -0.36905E+00
 0.23800001E+02 -0.34116E+00
 0.23850000E+02 -0.30602E+00
 0.23900000E+02 -0.38958E+00
 0.23950001E+02 -0.47022E+00
 0.24000000E+02 -0.24840E+00
 0.24050001E+02  0.16342E+00
 0.24100000E+02  0.21858E+00
 0.24150000E+02  0.33552E-01
 0.24200001E+02  0.12244E+00
 0.24250000E+02  0.42119E+00
 0.24300001E+02  0.41017E+00
 0.24350000E+02  0.24671E+00
 0.24400000E+02  0.23708E+00
 0.24450001E+02  0.74289E-01
 0.24500000E+02  0.69801E-01
 0.24550001E+02  0.12326E+00
 0.24600000E+02 -0.43611E-01
 0.24650000E+02 -0.77028E-01
 0.24700001E+02 -0.19369E+00
 0.24750000E+02 -0.10368E+00
 0.24800001E+02 -0.18134E+00
 0.24850000E+02 -0.37743E+00
 0.24900000E+02 -0.22412E+00
 0.24950001E+02 -0.12204E+00
 0.25000000E+02  0.31270E-02
 0.25050001E+02  0.97894E-01
 0.25100000E+02  0.13006E+00
 0.25150000E+02  0.13204E+00
 0.25200001E+02  0.20260E+00
 0.25250000E+02  0.35743E+00
 0.25300001E+02  0.15123E+00
 0.25350000E+02  0.18634E-01
 0.25400000E+02  0.41327E-01
 0.25450001E+02 -0.11729E+00
 0.25500000E+02 -0.15385E+00
 0.25550001E+02 -0.25606E+00
 0.25600000E+02 -0.17386E+00
 0.25650000E+02 -0.62780E-01
 0.25700001E+02 -0.16145E+00
 0.25750000E+02 -0.72803E-01
 0.25800001E+02  0.24670E+00
 0.25850000E+02  0.40814E+00
 0.25900000E+02  0.44164E+00
 0.25950001E+02  0.29141E+00
 0.26000000E+02  0.53722E-01
 0.26050001E+02 -0.71546E-02
 0.26100000E+02 -0.13708E+00
 0.26150000E+02 -0.10941E+00
 0.26200001E+02 -0.17244E+00
 0.26250000E+02 -0.24935E+00
 0.26300001E+02 -0.29668E+00
 0.26350000E+02 -0.58190E+00
 0.26400000E+02 -0.42707E+00
 0.26450001E+02 -0.19158E-01
 0.26500000E+02  0.12956E+00
 0.26550001E+02  0.25831E+00
 0.26600000E+02  0.21508E+00
 0.26650000E+02  0.92046E-01
 0.26700001E+02  0.13988E+00
 0.26750000E+02  0.24076E+00
 0.26800001E+02  0.31540E+00
 0.26850000E+02  0.34943E+00
 0.26900000E+02  0.36784E+00
 0.26950001E+02  0.30485E+00
 0.27000000E+02  0.42704E-01
 0.27050001E+02 -0.20798E+00
 0.27100000E+02 -0.38317E+00
 0.27150000E+02 -0.44182E+00
 0.27200001E+02 -0.22793E+00
 0.27250000E+02 -0.72929E-01
 0.27300001E+02 -0.98972E-01
 0.27350000E+02 -0.12801E+00
 0.27400000E+02  0.84836E-02
 0.27450001E+02  0.15519E+00
 0.27500000E+02  0.18738E+00
 0.27550001E+02  0.23678E+00
 0.27600000E+02  0.37394E+00
 0.27650000E+02  0.45008E+00
 0.27700001E+02  0.31804E+00
 0.27750000E+02  0.88157E-01
 0.27800001E+02 -0.68889E-01
 0.27850000E+02 -0.15768E+00
 0.27900000E+02 -0.28737E+00
 0.27950001E+02 -0.35006E+00
 0.28000000E+02 -0.44303E+00
 0.28050001E+02 -0.46717E+00
 0.28100000E+02 -0.28352E+00
 0.28150000E+02 -0.68973E-01
 0.28200001E+02  0.83992E-01
 0.28250000E+02  0.87190E-01
 0.28300001E+02  0.77238E-01
 0.28350000E+02  0.22958E+00
 0.28400000E+02  0.26358E+00
 0.28450001E+02  0.27911E+00
 0.28500000E+02  0.16151E+00
 0.28550001E+02 -0.82346E-01
 0.28600000E+02 -0.19898E+00
 0.28650000E+02 -0.30675E+00
 0.28700001E+02 -0.11146E+00
 0.28750000E+02  0.43632E-01
 0.28800001E+02  0.15061E+00
 0.28850000E+02  0.13662E+00
 0.28900000E+02 -0.60911E-01
 0.28950001E+02 -0.51479E-01
 0.29000000E+02 -0.11020E+00
 0.29050001E+02 -0.13813E+00
 0.29100000E+02 -0.11953E+00
 0.29150000E+02 -0.97516E-01
 0.29200001E+02 -0.11471E+00
 0.29250000E+02 -0.23287E+00
 0.29300001E+02 -0.94858E-01
 0.29350000E+02  0.83968E-01
 0.29400000E+02  0.32761E-01
 0.29450001E+02  0.14910E-01
 0.29500000E+02 -0.41646E-01
 0.29550001E+02  0.76917E-01
 0.29600000E+02  0.25238E+00
 0.29650000E+02  0.19328E+00
 0.29700001E+02  0.10145E+00
 0.29750000E+02  0.51803E-02
 0.29800001E+02  0.81576E-02
 0.29850000E+02  0.60359E-01
 0.29900000E+02  0.32481E-01
 0.29950001E+02 -0.43828E-01
 0.30000000E+02 -0.39615E-01
 0.30050001E+02 -0.87318E-01
 0.30100000E+02 -0.15674E+00
 0.30150000E+02 -0.28977E+00
 0.30200001E+02 -0.40405E+00
 0.30250000E+02 -0.33318E+00
 0.30300001E+02 -0.30394E+00
 0.30350000E+02  0.93962E-02
 0.30400000E+02  0.23439E+00
 0.30450001E+02  0.26610E+00
 0.30500000E+02  0.42305E+00
 0.30550001E+02  0.38578E+00
 0.30600000E+02  0.33858E+00
 0.30650000E+02  0.32162E+00
 0.30700001E+02  0.28584E+00
 0.30750000E+02  0.79791E-01
 0.30800001E+02 -0.18626E+00
 0.30850000E+02 -0.14893E+00
 0.30900000E+02 -0.16793E-01
 0.30950001E+02  0.13379E+00
 0.31000000E+02  0.14934E+00
 0.31050001E+02 -0.83316E-01
 0.31100000E+02 -0.58753E-01
 0.31150000E+02  0.14275E+00
 0.31200001E+02  0.23205E+00
 0.31250000E+02  0.12329E+00
 0.31300001E+02 -0.21730E-01
 0.31350000E+02  0.64254E-01
 0.31400000E+02  0.19515E+00
 0.31450001E+02  0.23224E+00
 0.31500000E+02  0.14328E+00
 0.31550001E+02 -0.10948E+00
 0.31600000E+02 -0.27253E+00
 0.31650000E+02 -0.31060E+00
 0.31700001E+02 -0.36352E+00
 0.31750000E+02 -0.29974E+00
 0.31800001E+02 -0.28606E+00
 0.31850000E+02 -0.28936E+00
 0.31900000E+02 -0.20435E+00
 0.31950001E+02 -0.13622E+00
 0.32000000E+02 -0.11763E+00
 0.32049999E+02 -0.16392E+00
 0.32100002E+02 -0.11376E+00
 0.32150002E+02  0.96642E-02
 0.32200001E+02  0.92552E-01
 0.32250000E+02  0.20427E+00
 0.32299999E+02  0.17383E+00
 0.32350002E+02  0.15163E+00
 0.32400002E+02  0.29652E+00
 0.32450001E+02  0.38810E+00
 0.32500000E+02  0.28463E+00
 0.32549999E+02  0.84124E-01
 0.32600002E+02 -0.65792E-01
 0.32650002E+02 -0.21337E+00
 0.32700001E+02 -0.22549E+00
 0.32750000E+02 -0.21661E+00
 0.32799999E+02 -0.29437E+00
 0.32850002E+02 -0.33310E+00
 0.32900002E+02 -0.22534E+00
 0.32950001E+02  0.41206E-01
 0.33000000E+02  0.24445E+00
 0.33049999E+02  0.24548E+00
 0.33100002E+02  0.11619E+00
 0.33150002E+02  0.73353E-01
 0.33200001E+02  0.40665E-01
 0.33250000E+02  0.11730E-02
 0.33299999E+02 -0.40125E-01
 0.33350002E+02 -0.95993E-01
 0.33400002E+02  0.13932E-01
 0.33450001E+02  0.54945E-01
 0.33500000E+02  0.10439E+00
 0.33549999E+02  0.18271E+00
 0.33600002E+02  0.22628E+00
 0.33650002E+02  0.24001E+00
 0.33700001E+02  0.10215E+00
 0.33750000E+02 -0.50428E-01
 0.33799999E+02 -0.15910E+00
 0.33850002E+02 -0.86353E-01
 0.33900002E+02  0.52927E-01
 0.33950001E+02 -0.18824E-01
 0.34000000E+02 -0.10317E+00
 0.34049999E+02  0.34471E-01
 0.34100002E+02  0.24028E+00
 0.34150002E+02  0.30264E+00
 0.34200001E+02  0.15185E+00
 0.34250000E+02 -0.40558E-01
 0.34299999E+02 -0.10094E+00
 0.34350002E+02 -0.10370E+00
 0.34400002E+02 -0.12139E+00
 0.34450001E+02 -0.11319E+00
 0.34500000E+02 -0.11651E+00
 0.34549999E+02 -0.77336E-01
 0.34600002E+02 -0.21361E-01
 0.34650002E+02 -0.24251E-01
 0.34700001E+02 -0.25871E-02
 0.34750000E+02 -0.72169E-02
 0.34799999E+02  0.57180E-01
 0.34850002E+02  0.19342E+00
 0.34900002E+02  0.18841E+00
 0.34950001E+02  0.13477E+00
 0.35000000E+02  0.82118E-01
 0.35049999E+02 -0.16892E-01
 0.35100002E+02 -0.72593E-01
 0.35150002E+02 -0.77422E-01
 0.35200001E+02 -0.13073E+00
 0.35250000E+02 -0.19151E+00
 0.35299999E+02 -0.21030E+00
 0.35350002E+02 -0.22244E+00
 0.35400002E+02 -0.18801E+00
 0.35450001E+02 -0.19551E+00
 0.35500000E+02 -0.19856E+00
 0.35549999E+02 -0.22929E+00
 0.35600002E+02 -0.24447E+00
 0.35650002E+02 -0.12598E+00
 0.35700001E+02 -0.24052E-01
 0.35750000E+02  0.10859E+00
 0.35799999E+02  0.19471E+00
 0.35850002E+02  0.55706E-01
 0.35900002E+02 -0.25955E-01
 0.35950001E+02  0.11760E+00
 0.36000000E+02  0.27330E+00
 0.36049999E+02  0.32922E+00
 0.36100002E+02  0.21547E+00
 0.36150002E+02  0.12926E+00
 0.36200001E+02  0.11509E+00
 0.36250000E+02  0.16151E+00
 0.36299999E+02  0.26340E+00
 0.36350002E+02  0.21211E+00
 0.36400002E+02  0.59487E-01
 0.36450001E+02 -0.89135E-01
 0.36500000E+02 -0.22997E+00
 0.36549999E+02 -0.23808E+00
 0.36600002E+02 -0.80627E-01
 0.36650002E+02 -0.49128E-01
 0.36700001E+02 -0.14438E-01
 0.36750000E+02  0.44510E-01
 0.36799999E+02  0.34689E-01
 0.36850002E+02  0.19240E-02
 0.36900002E+02 -0.66800E-01
 0.36950001E+02 -0.69817E-01
 0.37000000E+02 -0.87514E-01
 0.37049999E+02 -0.85660E-01
 0.37100002E+02 -0.14337E+00
 0.37150002E+02 -0.21411E+00
 0.37200001E+02 -0.13333E+00
 0.37250000E+02 -0.37118E-01
 0.37299999E+02 -0.35689E-01
 0.37350002E+02 -0.97316E-01
 0.37400002E+02 -0.11200E+00
 0.37450001E+02 -0.54008E-01
 0.37500000E+02  0.75628E-01
 0.37549999E+02  0.14944E+00
 0.37600002E+02  0.13268E+00
 0.37650002E+02  0.11934E+00
 0.37700001E+02  0.77184E-01
 0.37750000E+02  0.79751E-01
 0.37799999E+02  0.73278E-01
 0.37850002E+02  0.10047E+00
 0.37900002E+02  0.81246E-01
 0.37950001E+02 -0.33684E-01
 0.38000000E+02 -0.87405E-01
 0.38049999E+02 -0.76752E-01
 0.38100002E+02  0.13967E-01
 0.38150002E+02  0.95444E-03
 0.38200001E+02 -0.54025E-02
 0.38250000E+02  0.23240E-01
 0.38299999E+02  0.27283E-01
 0.38350002E+02  0.29303E-01
 0.38400002E+02  0.82469E-01
 0.38450001E+02  0.17421E+00
 0.38500000E+02  0.17886E+00
 0.38549999E+02  0.17386E+00
 0.38600002E+02  0.67617E-01
 0.38650002E+02 -0.67431E-01
 0.38700001E+02 -0.12247E+00
 0.38750000E+02 -0.10277E+00
 0.38799999E+02 -0.14954E-01
 0.38850002E+02  0.93872E-01
 0.38900002E+02  0.12779E+00
 0.38950001E+02  0.12625E+00
 0.39000000E+02  0.88315E-01
 0.39049999E+02  0.10273E-01
 0.39100002E+02  0.53184E-02
 0.39150002E+02 -0.11528E-01
 0.39200001E+02 -0.66182E-01
 0.39250000E+02 -0.92563E-01
 0.39299999E+02 -0.65538E-01
 0.39350002E+02 -0.67409E-01
 0.39400002E+02 -0.93499E-01
 0.39450001E+02 -0.11788E+00
 0.39500000E+02 -0.15080E+00
 0.39549999E+02 -0.15136E+00
 0.39600002E+02 -0.11412E+00
 0.39650002E+02 -0.91570E-01
 0.39700001E+02 -0.61126E-01
 0.39750000E+02  0.86037E-02
 0.39799999E+02  0.80376E-01
 0.39850002E+02  0.14585E+00
 0.39900002E+02  0.12514E+00
 0.39950001E+02  0.74943E-01
 0.40000000E+02  0.24422E-01
 0.40049999E+02  0.73284E-04
 0.40100002E+02  0.44455E-01
 0.40150002E+02  0.72595E-01
 0.40200001E+02  0.71641E-01
 0.40250000E+02  0.31935E-01
 0.40299999E+02 -0.12828E-01
 0.40350002E+02 -0.56859E-01
 0.40400002E+02 -0.12803E+00
 0.40450001E+02 -0.13046E+00
 0.40500000E+02 -0.43898E-01
 0.40549999E+02  0.47787E-02
 0.40600002E+02 -0.17386E-01
 0.40650002E+02 -0.76501E-01
 0.40700001E+02 -0.13401E+00
 0.40750000E+02 -0.11835E+00
 0.40799999E+02 -0.91229E-01
 0.40850002E+02 -0.15076E+00
 0.40900002E+02 -0.20321E+00
 0.40950001E+02 -0.14192E+00
 0.41000000E+02 -0.52515E-01
 0.41049999E+02  0.14732E-01
 0.41100002E+02  0.11221E+00
 0.41150002E+02  0.15802E+00
 0.41200001E+02  0.14665E+00
 0.41250000E+02  0.12642E+00
 0.41299999E+02  0.12391E+00
 0.41350002E+02  0.17465E+00
 0.41400002E+02  0.15138E+00
 0.41450001E+02  0.51545E-01
 0.41500000E+02 -0.10904E-01
 0.41549999E+02 -0.32725E-01
 0.41600002E+02 -0.69087E-01
 0.41650002E+02 -0.13507E+00
 0.41700001E+02 -0.16446E+00
 0.41750000E+02 -0.14136E+00
 0.41799999E+02 -0.66251E-01
 0.41850002E+02  0.10339E-01
 0.41900002E+02  0.16868E-01
 0.41950001E+02  0.16385E-01
 0.42000000E+02  0.35485E-01
 0.42049999E+02  0.98342E-01
 0.42100002E+02  0.16344E+00
 0.42150002E+02  0.16938E+00
 0.42200001E+02  0.81529E-01
 0.42250000E+02 -0.24455E-01
 0.42299999E+02 -0.28919E-01
 0.42350002E+02  0.26102E-02
 0.42400002E+02  0.65917E-02
 0.42450001E+02 -0.22712E-01
 0.42500000E+02  0.15844E-01
 0.42549999E+02  0.11601E+00
 0.42600002E+02  0.20622E+00
 0.42650002E+02  0.19753E+00
 0.42700001E+02  0.10248E+00
 0.42750000E+02  0.74288E-01
 0.42799999E+02  0.83302E-01
 0.42850002E+02  0.69457E-01
 0.42900002E+02  0.31662E-01
 0.42950001E+02  0.13711E-01
 0.43000000E+02 -0.36248E-01
 0.43049999E+02 -0.87898E-01
 0.43100002E+02 -0.51218E-01
 0.43150002E+02 -0.32310E-01
 0.43200001E+02 -0.23398E-01
 0.43250000E+02 -0.19421E-01
 0.43299999E+02  0.14420E-01
 0.43350002E+02  0.18985E-01
 0.43400002E+02 -0.27606E-01
 0.43450001E+02 -0.45502E-01
 0.43500000E+02 -0.78712E-01
 0.43549999E+02 -0.67782E-01
 0.43600002E+02 -0.44257E-01
 0.43650002E+02  0.17290E-01
 0.43700001E+02  0.60917E-01
 0.43750000E+02  0.48386E-01
 0.43799999E+02  0.22771E-01
 0.43850002E+02  0.15848E-01
 0.43900002E+02  0.38127E-01
 0.43950001E+02 -0.21935E-01
 0.44000000E+02 -0.65534E-01
 0.44049999E+02 -0.12277E+00
 0.44100002E+02 -0.21402E+00
 0.44150002E+02 -0.23777E+00
 0.44200001E+02 -0.13811E+00
 0.44250000E+02 -0.23958E-01
 0.44299999E+02  0.45244E-02
 0.44350002E+02  0.16338E-03
 0.44400002E+02 -0.26794E-01
 0.44450001E+02  0.20119E-01
 0.44500000E+02  0.38987E-01
 0.44549999E+02  0.24731E-01
 0.44600002E+02  0.27601E-01
 0.44650002E+02  0.53380E-01
 0.44700001E+02  0.96221E-01
 0.44750000E+02  0.40998E-01
 0.44799999E+02 -0.47664E-01
 0.44850002E+02 -0.89432E-01
 0.44900002E+02 -0.61254E-01
 0.44950001E+02 -0.28724E-02
 0.45000000E+02  0.42396E-01
 0.45049999E+02  0.25718E-01
 0.45100002E+02 -0.15270E-01
 0.45150002E+02  0.43976E-02
 0.45200001E+02  0.29229E-01
 0.45250000E+02  0.65642E-01
 0.45299999E+02  0.88133E-01
 0.45350002E+02  0.69927E-01
 0.45400002E+02  0.67847E-01
 0.45450001E+02  0.58389E-01
 0.45500000E+02  0.28433E-01
 0.45549999E+02 -0.39735E-01
 0.45600002E+02 -0.10411E+00
 0.45650002E+02 -0.83952E-01
 0.45700001E+02 -0.54715E-01
 0.45750000E+02 -0.60834E-01
 0.45799999E+02 -0.10301E+00
 0.45850002E+02 -0.14306E+00
 0.45900002E+02 -0.93270E-01
 0.45950001E+02 -0.14614E-02
 0.46000000E+02  0.92130E-01
 0.46049999E+02  0.13976E+00
 0.46100002E+02  0.13897E+00
 0.46150002E+02  0.11387E+00
 0.46200001E+02  0.60445E-01
 0.46250000E+02  0.58196E-01
 0.46299999E+02  0.75687E-01
 0.46350002E+02  0.17446E-01
 0.46400002E+02 -0.34619E-01
 0.46450001E+02 -0.26031E-01
 0.46500000E+02 -0.62130E-02
 0.46549999E+02  0.41048E-01
 0.46600002E+02  0.84216E-01
 0.46650002E+02  0.87908E-01
 0.46700001E+02  0.63951E-01
 0.46750000E+02  0.38339E-01
 0.46799999E+02 -0.44417E-03
 0.46850002E+02 -0.82573E-01
 0.46900002E+02 -0.12565E+00
 0.46950001E+02 -0.76060E-01
 0.47000000E+02  0.38306E-01
 0.47049999E+02  0.13240E+00
 0.47100002E+02  0.11730E+00
 0.47150002E+02  0.47743E-01
 0.47200001E+02  0.24107E-01
 0.47250000E+02  0.31812E-01
 0.47299999E+02  0.49708E-01
 0.47350002E+02  0.43592E-01
 0.47400002E+02 -0.12521E-01
 0.47450001E+02 -0.42456E-01
 0.47500000E+02 -0.37284E-01
 0.47549999E+02 -0.30409E-01
 0.47600002E+02 -0.42204E-01
 0.47650002E+02 -0.72799E-01
 0.47700001E+02 -0.70112E-01
 0.47750000E+02 -0.25073E-01
 0.47799999E+02 -0.19498E-01
 0.47850002E+02 -0.66750E-01
 0.47900002E+02 -0.10190E+00
 0.47950001E+02 -0.11224E+00
 0.48000000E+02 -0.12677E+00
 0.48049999E+02 -0.14310E+00
 0.48100002E+02 -0.10912E+00
 0.48150002E+02 -0.60391E-01
 0.48200001E+02 -0.34030E-01
 0.48250000E+02 -0.36286E-01
 0.48299999E+02 -0.41802E-01
 0.48350002E+02  0.26282E-01
 0.48400002E+02  0.12012E+00
 0.48450001E+02  0.16375E+00
 0.48500000E+02  0.12913E+00
 0.48549999E+02  0.68743E-01
 0.48600002E+02  0.24272E-01
 0.48650002E+02 -0.14511E-01
 0.48700001E+02 -0.25171E-01
 0.48750000E+02 -0.17390E-01
 0.48799999E+02 -0.25987E-01
 0.48850002E+02 -0.38406E-01
 0.48900002E+02 -0.47554E-01
 0.48950001E+02 -0.43467E-01
 0.49000000E+02  0.56460E-04
 0.49049999E+02  0.51257E-01
 0.49100002E+02  0.10624E+00
 0.49150002E+02  0.14384E+00
 0.49200001E+02  0.12921E+00
 0.49250000E+02  0.47115E-01
 0.49299999E+02 -0.41715E-01
 0.49350002E+02 -0.69032E-01
 0.49400002E+02 -0.44834E-01
 0.49450001E+02  0.19067E-01
 0.49500000E+02  0.42415E-01
 0.49549999E+02  0.28294E-02
 0.49600002E+02 -0.13327E-01
 0.49650002E+02  0.62998E-02
 0.49700001E+02  0.45715E-01
 0.49750000E+02  0.69087E-01
 0.49799999E+02  0.65398E-01
 0.49850002E+02  0.51645E-01
 0.49900002E+02  0.32728E-01
 0.49950001E+02  0.39570E-01
 0.50000000E+02  0.86518E-02
 0.50049999E+02 -0.17016E-01
 0.50100002E+02 -0.47475E-02
 0.50150002E+02 -0.17939E-01
 0.50200001E+02 -0.42679E-01
 0.50250000E+02 -0.71845E-01
 0.50299999E+02 -0.56093E-01
 0.50350002E+02 -0.31897E-01
 0.50400002E+02 -0.27321E-01
 0.50450001E+02 -0.54536E-01
 0.50500000E+02 -0.95813E-01
 0.50549999E+02 -0.63263E-01
 0.50600002E+02 -0.38450E-01
 0.50650002E+02 -0.37395E-01
 0.50700001E+02 -0.32582E-01
 0.50750000E+02 -0.12015E-01
 0.50799999E+02  0.38277E-01
 0.50850002E+02  0.68362E-01
 0.50900002E+02  0.83027E-01
 0.50950001E+02  0.87753E-01
 0.51000000E+02  0.91057E-01
 0.51049999E+02  0.88762E-01
 0.51100002E+02  0.57731E-01
 0.51150002E+02  0.91537E-02
 0.51200001E+02 -0.11569E-01
 0.51250000E+02 -0.25410E-01
 0.51299999E+02 -0.43134E-01
 0.51350002E+02 -0.67964E-01
 0.51400002E+02 -0.90888E-01
 0.51450001E+02 -0.88006E-01
 0.51500000E+02 -0.90556E-01
 0.51549999E+02 -0.74791E-01
 0.51600002E+02 -0.73073E-01
 0.51650002E+02 -0.80576E-01
 0.51700001E+02 -0.55294E-01
 0.51750000E+02 -0.56527E-01
 0.51799999E+02 -0.44909E-01
 0.51850002E+02  0.22222E-03
 0.51900002E+02  0.40545E-01
 0.51950001E+02  0.65142E-01
 0.52000000E+02  0.78635E-01
 0.52049999E+02  0.12078E+00
 0.52100002E+02  0.13178E+00
 0.52150002E+02  0.11838E+00
 0.52200001E+02  0.10439E+00
 0.52250000E+02  0.78142E-01
 0.52299999E+02  0.66849E-01
 0.52350002E+02  0.64615E-01
 0.52400002E+02  0.56920E-01
 0.52450001E+02  0.33244E-01
 0.52500000E+02 -0.11855E-01
 0.52549999E+02 -0.58962E-01
 0.52600002E+02 -0.61647E-01
 0.52650002E+02 -0.55728E-01
 0.52700001E+02 -0.62205E-01
 0.52750000E+02 -0.96305E-01
 0.52799999E+02 -0.12581E+00
 0.52850002E+02 -0.90621E-01
 0.52900002E+02 -0.49124E-01
 0.52950001E+02 -0.28095E-01
 0.53000000E+02 -0.19677E-01
 0.53049999E+02 -0.42819E-01
 0.53100002E+02 -0.48243E-01
 0.53150002E+02 -0.25196E-01
 0.53200001E+02 -0.14879E-01
 0.53250000E+02 -0.40581E-03
 0.53299999E+02  0.26857E-01
 0.53350002E+02  0.53641E-01
 0.53400002E+02  0.65068E-01
 0.53450001E+02  0.80287E-01
 0.53500000E+02  0.84579E-01
 0.53549999E+02  0.10039E+00
 0.53600002E+02  0.92461E-01
 0.53650002E+02  0.10377E-01
 0.53700001E+02 -0.70520E-01
 0.53750000E+02 -0.11329E+00
 0.53799999E+02 -0.99672E-01
 0.53850002E+02 -0.70048E-01
 0.53900002E+02 -0.67339E-01
 0.53950001E+02 -0.62353E-01
 0.54000000E+02 -0.19246E-01
 0.54049999E+02  0.44831E-01
 0.54100002E+02  0.72838E-01
 0.54150002E+02  0.76355E-01
 0.54200001E+02  0.83497E-01
 0.54250000E+02  0.80130E-01
 0.54299999E+02  0.76296E-01
 0.54350002E+02  0.77695E-01
 0.54400002E+02  0.78254E-01
 0.54450001E+02  0.67246E-01
 0.54500000E+02  0.30385E-01
 0.54549999E+02 -0.18550E-01
 0.54600002E+02 -0.54524E-01
 0.54650002E+02 -0.84952E-01
 0.54700001E+02 -0.84135E-01
 0.54750000E+02 -0.39818E-01
 0.54799999E+02 -0.90071E-02
 0.54850002E+02 -0.11291E-02
 0.54900002E+02 -0.38507E-02
 0.54950001E+02 -0.31673E-02
 0.55000000E+02 -0.14415E-01
 0.55049999E+02 -0.19814E-01
 0.55100002E+02  0.10252E-01
 0.55150002E+02  0.55680E-01
 0.55200001E+02  0.89546E-01
 0.55250000E+02  0.90222E-01
 0.55299999E+02  0.56024E-01
 0.55350002E+02  0.17776E-01
 0.55400002E+02  0.85274E-02
 0.55450001E+02  0.43538E-02
 0.55500000E+02  0.10989E-01
 0.55549999E+02  0.62049E-02
 0.55600002E+02 -0.11412E-01
 0.55650002E+02 -0.88228E-02
 0.55700001E+02 -0.12531E-01
 0.55750000E+02 -0.20715E-01
 0.55799999E+02 -0.32633E-01
 0.55850002E+02 -0.56453E-01
 0.55900002E+02 -0.76801E-01
 0.55950001E+02 -0.72207E-01
 0.56000000E+02 -0.62829E-01
 0.56049999E+02 -0.57656E-01
 0.56100002E+02 -0.58626E-01
 0.56150002E+02 -0.59774E-01
 0.56200001E+02 -0.45875E-01
 0.56250000E+02 -0.36209E-01
 0.56299999E+02 -0.32856E-01
 0.56350002E+02 -0.28622E-01
 0.56400002E+02  0.64441E-03
 0.56450001E+02  0.32697E-01
 0.56500000E+02  0.35886E-01
 0.56549999E+02  0.23921E-01
 0.56600002E+02  0.24265E-01
 0.56650002E+02  0.30394E-01
 0.56700001E+02  0.25582E-01
 0.56750000E+02  0.10521E-01
 0.56799999E+02 -0.17897E-01
 0.56850002E+02 -0.23359E-01
 0.56900002E+02 -0.19298E-01
 0.56950001E+02 -0.39793E-01
 0.57000000E+02 -0.54135E-01
 0.57049999E+02 -0.34854E-01
 0.57100002E+02  0.13685E-01
 0.57150002E+02  0.57475E-01
 0.57200001E+02  0.69480E-01
 0.57250000E+02  0.77182E-01
 0.57299999E+02  0.93883E-01
 0.57350002E+02  0.89092E-01
 0.57400002E+02  0.66116E-01
 0.57450001E+02  0.39502E-01
 0.57500000E+02  0.20364E-01
 0.57549999E+02  0.46261E-02
 0.57600002E+02 -0.33331E-01
 0.57650002E+02 -0.39743E-01
 0.57700001E+02 -0.18250E-01
 0.57750000E+02  0.24001E-02
 0.57799999E+02  0.24323E-01
 0.57850002E+02  0.19903E-01
 0.57900002E+02 -0.20345E-02
 0.57950001E+02 -0.88651E-02
 0.58000000E+02  0.74894E-02
 0.58049999E+02  0.38865E-01
 0.58100002E+02  0.86912E-01
 0.58150002E+02  0.91802E-01
 0.58200001E+02  0.57166E-01
 0.58250000E+02  0.21189E-01
 0.58299999E+02 -0.99599E-02
 0.58350002E+02 -0.23802E-01
 0.58400002E+02 -0.47319E-01
 0.58450001E+02 -0.74191E-01
 0.58500000E+02 -0.81892E-01
 0.58549999E+02 -0.80447E-01
 0.58600002E+02 -0.76046E-01
 0.58650002E+02 -0.78978E-01
 0.58700001E+02 -0.84471E-01
 0.58750000E+02 -0.86542E-01
 0.58799999E+02 -0.92781E-01
 0.58850002E+02 -0.91168E-01
 0.58900002E+02 -0.75524E-01
 0.58950001E+02 -0.37600E-01
 0.59000000E+02  0.16898E-02
 0.59049999E+02  0.19454E-01
 0.59100002E+02  0.12888E-01
 0.59150002E+02  0.11370E-01
 0.59200001E+02  0.38403E-01
 0.59250000E+02  0.63290E-01
 0.59299999E+02  0.70213E-01
 0.59350002E+02  0.60662E-01
 0.59400002E+02  0.68371E-01
 0.59450001E+02  0.93737E-01
 0.59500000E+02  0.12029E+00
 0.59549999E+02  0.13031E+00
 0.59600002E+02  0.99646E-01
 0.59650002E+02  0.59301E-01
 0.59700001E+02  0.16585E-01
 0.59750000E+02 -0.24042E-01
 0.59799999E+02 -0.47235E-01
 0.59850002E+02 -0.56208E-01
 0.59900002E+02 -0.56052E-01
 0.59950001E+02 -0.66007E-01
 0.60000000E+02 -0.60604E-01
 0.60049999E+02 -0.33808E-01
 0.60100002E+02 -0.79580E-02
 0.60150002E+02  0.18902E-01
 0.60200001E+02  0.26579E-01
 0.60250000E+02  0.37241E-01
 0.60299999E+02  0.44271E-01
 0.60350002E+02  0.53304E-01
 0.60400002E+02  0.59029E-01
 0.60450001E+02  0.38386E-01
 0.60500000E+02  0.43602E-01
 0.60549999E+02  0.56890E-01
 0.60600002E+02  0.72177E-01
 0.60650002E+02  0.66480E-01
 0.60700001E+02  0.22722E-01
 0.60750000E+02 -0.18666E-01
 0.60799999E+02 -0.39571E-01
 0.60850002E+02 -0.19609E-01
 0.60900002E+02 -0.10526E-01
 0.60950001E+02 -0.16876E-01
 0.61000000E+02 -0.95767E-02
 0.61049999E+02 -0.19386E-01
 0.61100002E+02 -0.45122E-01
 0.61150002E+02 -0.68947E-01
 0.61200001E+02 -0.83541E-01
 0.61250000E+02 -0.84579E-01
 0.61299999E+02 -0.63453E-01
 0.61350002E+02 -0.50494E-01
 0.61400002E+02 -0.51438E-01
 0.61450001E+02 -0.30753E-01
 0.61500000E+02 -0.41196E-02
 0.61549999E+02  0.40928E-02
 0.61600002E+02 -0.15598E-01
 0.61650002E+02 -0.30908E-01
 0.61700001E+02 -0.28026E-01
 0.61750000E+02 -0.14922E-01
 0.61799999E+02 -0.32434E-03
 0.61850002E+02 -0.14110E-01
 0.61900002E+02 -0.30890E-01
 0.61950001E+02 -0.32702E-01
 0.62000000E+02 -0.13772E-01
 0.62049999E+02  0.42484E-02
 0.62100002E+02  0.11422E-01
 0.62150002E+02  0.24534E-01
 0.62200001E+02  0.44499E-01
 0.62250000E+02  0.86860E-01
 0.62299999E+02  0.12645E+00
 0.62350002E+02  0.13744E+00
 0.62400002E+02  0.12189E+00
 0.62450001E+02  0.92562E-01
 0.62500000E+02  0.59739E-01
 0.62549999E+02  0.29884E-01
 0.62600002E+02  0.14191E-01
 0.62650002E+02 -0.88761E-04
 0.62700001E+02 -0.19284E-01
 0.62750000E+02 -0.34203E-01
 0.62799999E+02 -0.53498E-01
 0.62850002E+02 -0.74855E-01
 0.62900002E+02 -0.82648E-01
 0.62950001E+02 -0.85833E-01
 0.63000000E+02 -0.86173E-01
 0.63049999E+02 -0.73655E-01
 0.63100002E+02 -0.60466E-01
 0.63150002E+02 -0.51979E-01
 0.63200001E+02 -0.59191E-01
 0.63250000E+02 -0.58992E-01
 0.63299999E+02 -0.61956E-02
 0.63350002E+02  0.60204E-01
 0.63400002E+02  0.10191E+00
 0.63450001E+02  0.11130E+00
 0.63500000E+02  0.92558E-01
 0.63549999E+02  0.69733E-01
 0.63600002E+02  0.49078E-01
 0.63650002E+02  0.44092E-01
 0.63700001E+02  0.39309E-01
 0.63750000E+02  0.18901E-01
 0.63799999E+02 -0.21794E-02
 0.63850002E+02 -0.15725E-01
 0.63900002E+02 -0.23357E-01
 0.63950001E+02 -0.29483E-01
 0.64000000E+02 -0.41020E-01
 0.64050003E+02 -0.45453E-01
 0.64099998E+02 -0.43168E-01
 0.64150002E+02 -0.45586E-01
 0.64200005E+02 -0.37427E-01
 0.64250000E+02 -0.14887E-01
 0.64300003E+02  0.24472E-01
 0.64349998E+02  0.52772E-01
 0.64400002E+02  0.68866E-01
 0.64450005E+02  0.70100E-01
 0.64500000E+02  0.61433E-01
 0.64550003E+02  0.71863E-01
 0.64599998E+02  0.73591E-01
 0.64650002E+02  0.52769E-01
 0.64700005E+02  0.14364E-01
 0.64750000E+02 -0.21985E-01
 0.64800003E+02 -0.49482E-01
 0.64849998E+02 -0.67782E-01
 0.64900002E+02 -0.83126E-01
 0.64950005E+02 -0.93249E-01
 0.65000000E+02 -0.87644E-01
 0.65050003E+02 -0.86442E-01
 0.65099998E+02 -0.74433E-01
 0.65150002E+02 -0.58998E-01
 0.65200005E+02 -0.42413E-01
 0.65250000E+02 -0.23822E-01
 0.65300003E+02 -0.51630E-02
 0.65349998E+02  0.29348E-01
 0.65400002E+02  0.62000E-01
 0.65450005E+02  0.75085E-01
 0.65500000E+02  0.60712E-01
 0.65550003E+02  0.37066E-01
 0.65599998E+02  0.17723E-01
 0.65650002E+02  0.41368E-02
 0.65700005E+02 -0.76775E-02
 0.65750000E+02 -0.23630E-01
 0.65800003E+02 -0.24955E-01
 0.65849998E+02 -0.15431E-01
 0.65900002E+02  0.70435E-02
 0.65950005E+02  0.33294E-01
 0.66000000E+02  0.40152E-01
 0.66050003E+02  0.46975E-01
 0.66099998E+02  0.43288E-01
 0.66150002E+02  0.35443E-01
 0.66200005E+02  0.30035E-01
 0.66250000E+02  0.19511E-01
 0.66300003E+02  0.10460E-01
 0.66349998E+02  0.45200E-02
 0.66400002E+02  0.10977E-01
 0.66450005E+02  0.75200E-02
 0.66500000E+02 -0.19174E-02
 0.66550003E+02  0.24839E-02
 0.66599998E+02  0.66336E-04
 0.66650002E+02  0.16603E-02
 0.66700005E+02  0.19428E-01
 0.66750000E+02  0.27835E-01
 0.66800003E+02  0.22917E-01
 0.66849998E+02  0.14531E-01
 0.66900002E+02  0.12054E-01
 0.66950005E+02  0.14077E-01
 0.67000000E+02  0.14754E-01
 0.67050003E+02  0.56254E-02
 0.67099998E+02 -0.17458E-01
 0.67150002E+02 -0.40718E-01
 0.67200005E+02 -0.56671E-01
 0.67250000E+02 -0.49361E-01
 0.67300003E+02 -0.25569E-01
 0.67349998E+02 -0.17143E-01
 0.67400002E+02 -0.20743E-01
 0.67450005E+02 -0.12727E-01
 0.67500000E+02  0.50610E-02
 0.67550003E+02  0.68724E-02
 0.67599998E+02 -0.12044E-01
 0.67650002E+02 -0.22968E-01
 0.67700005E+02 -0.21826E-01
 0.67750000E+02 -0.26260E-01
 0.67800003E+02 -0.26201E-01
 0.67849998E+02 -0.23081E-01
 0.67900002E+02 -0.20685E-01
 0.67950005E+02 -0.12213E-01
 0.68000000E+02 -0.81676E-02
 0.68050003E+02 -0.16042E-01
 0.68099998E+02 -0.26393E-01
 0.68150002E+02 -0.26350E-01
 0.68200005E+02 -0.93232E-02
 0.68250000E+02  0.16540E-01
 0.68300003E+02  0.38070E-01
 0.68349998E+02  0.40893E-01
 0.68400002E+02  0.33951E-01
 0.68450005E+02  0.36067E-01
 0.68500000E+02  0.41470E-01
 0.68550003E+02  0.42255E-01
 0.68599998E+02  0.23508E-01
 0.68650002E+02  0.54267E-02
 0.68700005E+02  0.43361E-03
 0.68750000E+02 -0.46022E-02
 0.68800003E+02 -0.51727E-02
 0.68849998E+02 -0.12692E-02
 0.68900002E+02  0.16514E-01
 0.68950005E+02  0.37317E-01
 0.69000000E+02  0.44008E-01
 0.69050003E+02  0.33289E-01
 0.69099998E+02  0.12659E-01
 0.69150002E+02  0.13188E-01
 0.69200005E+02  0.33789E-01
 0.69250000E+02  0.41929E-01
 0.69300003E+02  0.35879E-01
 0.69349998E+02  0.26564E-01
 0.69400002E+02  0.22449E-01
 0.69450005E+02  0.26482E-01
 0.69500000E+02  0.24615E-01
 0.69550003E+02  0.18140E-01
 0.69599998E+02  0.10230E-01
 0.69650002E+02 -0.14680E-01
 0.69700005E+02 -0.51725E-01
 0.69750000E+02 -0.79904E-01
 0.69800003E+02 -0.91771E-01
 0.69849998E+02 -0.89512E-01
 0.69900002E+02 -0.84828E-01
 0.69950005E+02 -0.69484E-01
 0.70000000E+02 -0.42295E-01
 0.70050003E+02 -0.24690E-01
 0.70099998E+02 -0.15048E-01
 0.70150002E+02 -0.52939E-02
 0.70200005E+02  0.10181E-01
 0.70250000E+02  0.22914E-01
 0.70300003E+02  0.13357E-01
 0.70349998E+02 -0.69295E-02
 0.70400002E+02 -0.75866E-02
 0.70450005E+02  0.62864E-02
 0.70500000E+02  0.15076E-01
 0.70550003E+02  0.19576E-01
 0.70599998E+02  0.53988E-02
 0.70650002E+02 -0.15413E-01
 0.70700005E+02 -0.13818E-01
 0.70750000E+02 -0.87396E-03
 0.70800003E+02  0.53106E-02
 0.70849998E+02 -0.36116E-03
 0.70900002E+02 -0.10985E-01
 0.70950005E+02 -0.13197E-01
 0.71000000E+02  0.33624E-02
 0.71050003E+02  0.21252E-01
 0.71099998E+02  0.17550E-01
 0.71150002E+02  0.15048E-02
 0.71200005E+02 -0.75665E-02
 0.71250000E+02 -0.22310E-01
 0.71300003E+02 -0.40815E-01
 0.71349998E+02 -0.37590E-01
 0.71400002E+02 -0.96980E-02
 0.71450005E+02  0.25635E-01
 0.71500000E+02  0.49718E-01
 0.71550003E+02  0.55433E-01
 0.71599998E+02  0.44091E-01
 0.71650002E+02  0.37065E-01
 0.71700005E+02  0.32396E-01
 0.71750000E+02  0.30778E-01
 0.71800003E+02  0.35341E-01
 0.71849998E+02  0.30615E-01
 0.71900002E+02  0.21740E-01
 0.71950005E+02  0.21612E-01
 0.72000000E+02  0.28266E-01
 0.72050003E+02  0.33914E-01
 0.72099998E+02  0.38030E-01
 0.72150002E+02  0.29342E-01
 0.72200005E+02  0.35254E-02
 0.72250000E+02 -0.28046E-01
 0.72300003E+02 -0.44639E-01
 0.72349998E+02 -0.47529E-01
 0.72400002E+02 -0.52589E-01
 0.72450005E+02 -0.61222E-01
 0.72500000E+02 -0.83425E-01
 0.72550003E+02 -0.98197E-01
 0.72599998E+02 -0.82934E-01
 0.72650002E+02 -0.37148E-01
 0.72700005E+02  0.22172E-01
 0.72750000E+02  0.48778E-01
 0.72800003E+02  0.40238E-01
 0.72849998E+02  0.32518E-01
 0.72900002E+02  0.44517E-01
 0.72950005E+02  0.59056E-01
 0.73000000E+02  0.62081E-01
 0.73050003E+02  0.59014E-01
 0.73099998E+02  0.38178E-01
 0.73150002E+02  0.11210E-01
 0.73200005E+02  0.40443E-02
 0.73250000E+02  0.13084E-01
 0.73300003E+02  0.23690E-01
 0.73349998E+02  0.13105E-01
 0.73400002E+02 -0.84338E-02
 0.73450005E+02 -0.22650E-01
 0.73500000E+02 -0.23919E-01
 0.73550003E+02 -0.13459E-01
 0.73599998E+02 -0.97995E-02
 0.73650002E+02 -0.17488E-01
 0.73700005E+02 -0.28906E-01
 0.73750000E+02 -0.24840E-01
 0.73800003E+02 -0.13635E-01
 0.73849998E+02 -0.77882E-02
 0.73900002E+02 -0.17525E-02
 0.73950005E+02  0.35660E-02
 0.74000000E+02  0.64040E-02
 0.74050003E+02  0.53587E-02
 0.74099998E+02 -0.30929E-02
 0.74150002E+02 -0.17602E-01
 0.74200005E+02 -0.20776E-01
 0.74250000E+02 -0.18893E-01
 0.74300003E+02 -0.20064E-01
 0.74349998E+02 -0.16920E-01
 0.74400002E+02 -0.12598E-01
 0.74450005E+02 -0.84896E-02
 0.74500000E+02 -0.62340E-02
 0.74550003E+02  0.41118E-02
 0.74599998E+02  0.25285E-01
 0.74650002E+02  0.36941E-01
 0.74700005E+02  0.43588E-01
 0.74750000E+02  0.48297E-01
 0.74800003E+02  0.49290E-01
 0.74849998E+02  0.45404E-01
 0.74900002E+02  0.19675E-01
 0.74950005E+02 -0.16335E-01
 0.75000000E+02 -0.40988E-01
 0.75050003E+02 -0.48759E-01
 0.75099998E+02 -0.43485E-01
 0.75150002E+02 -0.35531E-01
 0.75200005E+02 -0.26062E-01
 0.75250000E+02 -0.15119E-01
 0.75300003E+02 -0.19446E-02
 0.75349998E+02  0.78014E-02
 0.75400002E+02  0.60457E-02
 0.75450005E+02  0.76516E-02
 0.75500000E+02  0.12575E-01
 0.75550003E+02  0.14287E-01
 0.75599998E+02  0.15666E-01
 0.75650002E+02  0.19427E-01
 0.75700005E+02  0.21185E-01
 0.75750000E+02  0.23546E-01
 0.75800003E+02  0.28034E-01
 0.75849998E+02  0.27436E-01
 0.75900002E+02  0.26694E-01
 0.75950005E+02  0.19109E-01
 0.76000000E+02  0.20931E-02
 0.76050003E+02 -0.87165E-02
 0.76099998E+02 -0.37013E-02
 0.76150002E+02 -0.14413E-02
 0.76200005E+02 -0.11629E-01
 0.76250000E+02 -0.21605E-01
 0.76300003E+02 -0.23124E-01
 0.76349998E+02 -0.23207E-01
 0.76400002E+02 -0.31425E-01
 0.76450005E+02 -0.38845E-01
 0.76500000E+02 -0.38641E-01
 0.76550003E+02 -0.29013E-01
 0.76599998E+02 -0.14200E-01
 0.76650002E+02  0.18135E-03
 0.76700005E+02  0.75037E-02
 0.76750000E+02  0.90314E-02
 0.76800003E+02  0.10811E-01
 0.76849998E+02  0.17382E-01
 0.76900002E+02  0.25400E-01
 0.76950005E+02  0.26211E-01
 0.77000000E+02  0.23100E-01
 0.77050003E+02  0.13122E-01
 0.77099998E+02 -0.40782E-03
 0.77150002E+02 -0.12909E-01
 0.77200005E+02 -0.22951E-01
 0.77250000E+02 -0.24209E-01
 0.77300003E+02 -0.12344E-01
 0.77349998E+02  0.27204E-02
 0.77400002E+02  0.11269E-01
 0.77450005E+02  0.99509E-02
 0.77500000E+02  0.47138E-02
 0.77550003E+02  0.92916E-02
 0.77599998E+02  0.15808E-01
 0.77650002E+02  0.13470E-01
 0.77700005E+02  0.30627E-02
 0.77750000E+02 -0.46235E-02
 0.77800003E+02 -0.32996E-02
 0.77849998E+02 -0.20372E-02
 0.77900002E+02 -0.77561E-02
 0.77950005E+02 -0.10489E-01
 0.78000000E+02 -0.16817E-02
 0.78050003E+02  0.16313E-01
 0.78099998E+02  0.37933E-01
 0.78150002E+02  0.48393E-01
 0.78200005E+02  0.50016E-01
 0.78250000E+02  0.44693E-01
 0.78300003E+02  0.29086E-01
 0.78349998E+02  0.12083E-01
 0.78400002E+02 -0.50262E-03
 0.78450005E+02 -0.39216E-02
 0.78500000E+02 -0.67496E-02
 0.78550003E+02 -0.12744E-01
 0.78599998E+02 -0.23107E-01
 0.78650002E+02 -0.39862E-01
 0.78700005E+02 -0.45042E-01
 0.78750000E+02 -0.37623E-01
 0.78800003E+02 -0.29829E-01
 0.78849998E+02 -0.24869E-01
 0.78900002E+02 -0.17627E-01
 0.78950005E+02 -0.22228E-02
 0.79000000E+02  0.78454E-02
 0.79050003E+02  0.10922E-01
 0.79099998E+02  0.72828E-02
 0.79150002E+02  0.63282E-02
 0.79200005E+02  0.11446E-01
 0.79250000E+02  0.70645E-02
 0.79300003E+02 -0.50654E-02
 0.79349998E+02 -0.23711E-01
 0.79400002E+02 -0.33311E-01
 0.79450005E+02 -0.30200E-01
 0.79500000E+02 -0.19234E-01
 0.79550003E+02 -0.25593E-02
 0.79599998E+02  0.96305E-02
 0.79650002E+02  0.15876E-01
 0.79700005E+02  0.13987E-01
 0.79750000E+02  0.86782E-02
 0.79800003E+02  0.11839E-01
 0.79849998E+02  0.26470E-01
 0.79900002E+02  0.40251E-01
 0.79950005E+02  0.47815E-01
 0.80000000E+02  0.43941E-01
 0.80050003E+02  0.23161E-01
 0.80099998E+02  0.10013E-02
 0.80150002E+02 -0.66926E-02
 0.80200005E+02 -0.51086E-02
 0.80250000E+02 -0.52318E-02
 0.80300003E+02 -0.10247E-01
 0.80349998E+02 -0.20568E-01
 0.80400002E+02 -0.26476E-01
 0.80450005E+02 -0.22320E-01
 0.80500000E+02 -0.15212E-01
 0.80550003E+02 -0.13089E-01
 0.80599998E+02 -0.13006E-01
 0.80650002E+02 -0.13153E-01
 0.80700005E+02 -0.92301E-02
 0.80750000E+02  0.19762E-02
 0.80800003E+02  0.97463E-02
 0.80849998E+02  0.91081E-02
 0.80900002E+02  0.28167E-02
 0.80950005E+02 -0.21923E-02
 0.81000000E+02 -0.92045E-02
 0.81050003E+02 -0.17765E-01
 0.81099998E+02 -0.24796E-01
 0.81150002E+02 -0.24172E-01
 0.81200005E+02 -0.14329E-01
 0.81250000E+02 -0.39392E-02
 0.81300003E+02  0.82992E-02
 0.81349998E+02  0.14045E-01
 0.81400002E+02  0.83069E-02
 0.81450005E+02 -0.54830E-03
 0.81500000E+02  0.11956E-03
 0.81550003E+02  0.24177E-02
 0.81599998E+02  0.53141E-03
 0.81650002E+02  0.13666E-02
 0.81700005E+02 -0.47806E-03
 0.81750000E+02  0.45099E-02
 0.81800003E+02  0.15252E-01
 0.81849998E+02  0.24587E-01
 0.81900002E+02  0.32631E-01
 0.81950005E+02  0.33841E-01
 0.82000000E+02  0.30288E-01
 0.82050003E+02  0.22584E-01
 0.82099998E+02  0.16198E-01
 0.82150002E+02  0.13462E-01
 0.82200005E+02  0.12384E-01
 0.82250000E+02  0.70618E-02
 0.82300003E+02 -0.57078E-02
 0.82349998E+02 -0.17849E-01
 0.82400002E+02 -0.30873E-01
 0.82450005E+02 -0.37531E-01
 0.82500000E+02 -0.38723E-01
 0.82550003E+02 -0.44039E-01
 0.82599998E+02 -0.42009E-01
 0.82650002E+02 -0.24399E-01
 0.82700005E+02 -0.30331E-02
 0.82750000E+02  0.98431E-02
 0.82800003E+02  0.12644E-01
 0.82849998E+02  0.45453E-02
 0.82900002E+02 -0.17722E-02
 0.82950005E+02 -0.11468E-02
 0.83000000E+02  0.10680E-02
 0.83050003E+02  0.47069E-02
 0.83099998E+02  0.20123E-02
 0.83150002E+02 -0.31459E-03
 0.83200005E+02  0.71129E-02
 0.83250000E+02  0.15224E-01
 0.83300003E+02  0.20434E-01
 0.83349998E+02  0.24383E-01
 0.83400002E+02  0.28875E-01
 0.83450005E+02  0.36630E-01
 0.83500000E+02  0.36962E-01
 0.83550003E+02  0.26980E-01
 0.83599998E+02  0.15454E-01
 0.83650002E+02  0.11642E-01
 0.83700005E+02  0.12515E-01
 0.83750000E+02  0.66123E-02
 0.83800003E+02 -0.23871E-02
 0.83849998E+02 -0.13166E-01
 0.83900002E+02 -0.21522E-01
 0.83950005E+02 -0.22086E-01
 0.84000000E+02 -0.20342E-01
 0.84050003E+02 -0.18087E-01
 0.84099998E+02 -0.97874E-02
 0.84150002E+02  0.12701E-02
 0.84200005E+02  0.47598E-02
 0.84250000E+02 -0.47003E-04
 0.84300003E+02 -0.88860E-02
 0.84349998E+02 -0.11575E-01
 0.84400002E+02 -0.93963E-02
 0.84450005E+02 -0.99730E-02
 0.84500000E+02 -0.10813E-01
 0.84550003E+02 -0.88606E-02
 0.84599998E+02  0.76292E-04
 0.84650002E+02  0.71453E-02
 0.84700005E+02  0.24284E-02
 0.84750000E+02 -0.94693E-02
 0.84800003E+02 -0.14715E-01
 0.84849998E+02 -0.83336E-02
 0.84900002E+02  0.48234E-02
 0.84950005E+02  0.19781E-01
 0.85000000E+02  0.28409E-01
 0.85050003E+02  0.34378E-01
 0.85099998E+02  0.32083E-01
 0.85150002E+02  0.21652E-01
 0.85200005E+02  0.95920E-02
 0.85250000E+02 -0.39730E-02
 0.85300003E+02 -0.82259E-02
 0.85349998E+02 -0.10858E-01
 0.85400002E+02 -0.93297E-02
 0.85450005E+02 -0.57736E-02
 0.85500000E+02 -0.62226E-02
 0.85550003E+02 -0.42016E-02
 0.85599998E+02 -0.20452E-02
 0.85650002E+02  0.45390E-02
 0.85700005E+02  0.92598E-02
 0.85750000E+02  0.10807E-01
 0.85800003E+02  0.10103E-01
 0.85849998E+02  0.25529E-02
 0.85900002E+02 -0.37155E-02
 0.85950005E+02 -0.12780E-02
 0.86000000E+02  0.46900E-02
 0.86050003E+02  0.89153E-02
 0.86099998E+02  0.99918E-02
 0.86150002E+02  0.49187E-02
 0.86200005E+02 -0.58912E-02
 0.86250000E+02 -0.16615E-01
 0.86300003E+02 -0.16928E-01
 0.86349998E+02 -0.11011E-01
 0.86400002E+02 -0.11775E-01
 0.86450005E+02 -0.21183E-01
 0.86500000E+02 -0.30613E-01
 0.86550003E+02 -0.28685E-01
 0.86599998E+02 -0.16543E-01
 0.86650002E+02 -0.35484E-02
 0.86700005E+02  0.71023E-02
 0.86750000E+02  0.11123E-01
 0.86800003E+02  0.10833E-01
 0.86849998E+02  0.11293E-01
 0.86900002E+02  0.95496E-02
 0.86950005E+02  0.11925E-01
 0.87000000E+02  0.16001E-01
 0.87050003E+02  0.18278E-01
 0.87099998E+02  0.11537E-01
 0.87150002E+02 -0.78070E-02
 0.87200005E+02 -0.21085E-01
 0.87250000E+02 -0.25967E-01
 0.87300003E+02 -0.24759E-01
 0.87349998E+02 -0.17106E-01
 0.87400002E+02 -0.73380E-02
 0.87450005E+02  0.22702E-02
 0.87500000E+02  0.33422E-02
 0.87550003E+02 -0.14162E-02
 0.87599998E+02 -0.32845E-02
 0.87650002E+02 -0.67267E-02
 0.87700005E+02 -0.10057E-01
 0.87750000E+02 -0.85850E-02
 0.87800003E+02 -0.92448E-02
 0.87849998E+02 -0.14181E-01
 0.87900002E+02 -0.17327E-01
 0.87950005E+02 -0.15179E-01
 0.88000000E+02 -0.38268E-02
 0.88050003E+02  0.98840E-02
 0.88099998E+02  0.17708E-01
 0.88150002E+02  0.21619E-01
 0.88200005E+02  0.22568E-01
 0.88250000E+02  0.18587E-01
 0.88300003E+02  0.96701E-02
 0.88349998E+02  0.52275E-02
 0.88400002E+02  0.35950E-02
 0.88450005E+02  0.19061E-02
 0.88500000E+02 -0.20266E-03
 0.88550003E+02 -0.35307E-02
 0.88599998E+02 -0.41750E-02
 0.88650002E+02 -0.85204E-03
 0.88700005E+02  0.10654E-01
 0.88750000E+02  0.22272E-01
 0.88800003E+02  0.27799E-01
 0.88849998E+02  0.25735E-01
 0.88900002E+02  0.14959E-01
 0.88950005E+02  0.30268E-02
 0.89000000E+02 -0.65858E-02
 0.89050003E+02 -0.81285E-02
 0.89099998E+02 -0.11539E-02
 0.89150002E+02  0.14181E-02
 0.89200005E+02 -0.55850E-02
 0.89250000E+02 -0.12069E-01
 0.89300003E+02 -0.10364E-01
 0.89349998E+02 -0.72263E-02
 0.89400002E+02 -0.91245E-02
 0.89450005E+02 -0.13609E-01
 0.89500000E+02 -0.15137E-01
 0.89550003E+02 -0.10787E-01
 0.89599998E+02 -0.27228E-02
 0.89650002E+02  0.18447E-02
 0.89700005E+02 -0.22827E-03
 0.89750000E+02 -0.37264E-02
 0.89800003E+02 -0.57880E-02
 0.89849998E+02 -0.68565E-02
 0.89900002E+02 -0.11930E-01
 0.89950005E+02 -0.21538E-01
 0.90000000E+02 -0.22527E-01
 0.90050003E+02 -0.82433E-02
 0.90099998E+02  0.94024E-02
 0.90150002E+02  0.20685E-01
 0.90200005E+02  0.26530E-01
 0.90250000E+02  0.25273E-01
 0.90300003E+02  0.16012E-01
 0.90349998E+02  0.63217E-02
 0.90400002E+02  0.49710E-02
 0.90450005E+02  0.14388E-01
 0.90500000E+02  0.24609E-01
 0.90550003E+02  0.25153E-01
 0.90599998E+02  0.17912E-01
 0.90650002E+02  0.13403E-01
 0.90700005E+02  0.13826E-01
 0.90750000E+02  0.16152E-01
 0.90800003E+02  0.15034E-01
 0.90849998E+02  0.33177E-02
 0.90900002E+02 -0.13822E-01
 0.90950005E+02 -0.26807E-01
 0.91000000E+02 -0.28921E-01
 0.91050003E+02 -0.27179E-01
 0.91099998E+02 -0.26468E-01
 0.91150002E+02 -0.23529E-01
 0.91200005E+02 -0.16064E-01
 0.91250000E+02 -0.67216E-02
 0.91300003E+02  0.20876E-02
 0.91349998E+02  0.80428E-02
 0.91400002E+02  0.79463E-02
 0.91450005E+02  0.97379E-02
 0.91500000E+02  0.11723E-01
 0.91550003E+02  0.11271E-01
 0.91599998E+02  0.13290E-01
 0.91650002E+02  0.15534E-01
 0.91700005E+02  0.11054E-01
 0.91750000E+02  0.23877E-03
 0.91800003E+02 -0.64616E-02
 0.91849998E+02 -0.52882E-02
 0.91900002E+02  0.32354E-02
 0.91950005E+02  0.13875E-01
 0.92000000E+02  0.17177E-01
 0.92050003E+02  0.18293E-01
 0.92099998E+02  0.24951E-01
 0.92150002E+02  0.34583E-01
 0.92200005E+02  0.41461E-01
 0.92250000E+02  0.41800E-01
 0.92300003E+02  0.33918E-01
 0.92349998E+02  0.17965E-01
 0.92400002E+02 -0.21155E-02
 0.92450005E+02 -0.22076E-01
 0.92500000E+02 -0.36125E-01
 0.92550003E+02 -0.42187E-01
 0.92599998E+02 -0.46471E-01
 0.92650002E+02 -0.49537E-01
 0.92700005E+02 -0.48110E-01
 0.92750000E+02 -0.47846E-01
 0.92800003E+02 -0.48284E-01
 0.92849998E+02 -0.41506E-01
 0.92900002E+02 -0.26979E-01
 0.92950005E+02 -0.11603E-01
 0.93000000E+02 -0.47177E-02
 0.93050003E+02 -0.59618E-02
 0.93099998E+02 -0.84162E-02
 0.93150002E+02 -0.79863E-02
 0.93200005E+02 -0.42905E-02
 0.93250000E+02  0.13441E-02
 0.93300003E+02  0.88372E-02
 0.93349998E+02  0.18267E-01
 0.93400002E+02  0.24345E-01
 0.93450005E+02  0.21005E-01
 0.93500000E+02  0.16550E-01
 0.93550003E+02  0.15747E-01
 0.93599998E+02  0.14103E-01
 0.93650002E+02  0.10473E-01
 0.93700005E+02  0.30164E-02
 0.93750000E+02  0.20811E-03
 0.93800003E+02  0.56528E-02
 0.93849998E+02  0.10906E-01
 0.93900002E+02  0.14598E-01
 0.93950005E+02  0.15772E-01
 0.94000000E+02  0.11663E-01
 0.94050003E+02  0.40334E-02
 0.94099998E+02  0.21154E-02
 0.94150002E+02  0.46832E-02
 0.94200005E+02  0.37235E-02
 0.94250000E+02 -0.90326E-03
 0.94300003E+02 -0.96810E-02
 0.94349998E+02 -0.15977E-01
 0.94400002E+02 -0.15678E-01
 0.94450005E+02 -0.13655E-01
 0.94500000E+02 -0.92604E-02
 0.94550003E+02 -0.29174E-02
 0.94599998E+02  0.61544E-02
 0.94650002E+02  0.15719E-01
 0.94700005E+02  0.17055E-01
 0.94750000E+02  0.14093E-01
 0.94800003E+02  0.13050E-01
 0.94849998E+02  0.12467E-01
 0.94900002E+02  0.73492E-02
 0.94950005E+02  0.88961E-04
 0.95000000E+02 -0.26376E-02
 0.95050003E+02 -0.49037E-02
 0.95099998E+02 -0.86617E-02
 0.95150002E+02 -0.82811E-02
 0.95200005E+02 -0.67681E-02
 0.95250000E+02 -0.10880E-01
 0.95300003E+02 -0.15993E-01
 0.95349998E+02 -0.16049E-01
 0.95400002E+02 -0.12934E-01
 0.95450005E+02 -0.68955E-02
 0.95500000E+02  0.13612E-02
 0.95550003E+02  0.55540E-02
 0.95599998E+02  0.84838E-02
 0.95650002E+02  0.11797E-01
 0.95700005E+02  0.14217E-01
 0.95750000E+02  0.18543E-01
 0.95800003E+02  0.18777E-01
 0.95849998E+02  0.13926E-01
 0.95900002E+02  0.70721E-02
 0.95950005E+02  0.96642E-04
 0.96000000E+02 -0.67847E-03
 0.96050003E+02  0.26977E-02
 0.96099998E+02  0.21737E-02
 0.96150002E+02 -0.28391E-02
 0.96200005E+02 -0.85254E-02
 0.96250000E+02 -0.12014E-01
 0.96300003E+02 -0.12831E-01
 0.96349998E+02 -0.11070E-01
 0.96400002E+02 -0.81852E-02
 0.96450005E+02 -0.61135E-02
 0.96500000E+02 -0.41413E-02
 0.96550003E+02 -0.26322E-02
 0.96599998E+02  0.77551E-04
 0.96650002E+02  0.18494E-02
 0.96700005E+02  0.13620E-02
 0.96750000E+02  0.32170E-02
 0.96800003E+02  0.10232E-01
 0.96849998E+02  0.17329E-01
 0.96900002E+02  0.16802E-01
 0.96950005E+02  0.11840E-01
 0.97000000E+02  0.56201E-02
 0.97050003E+02  0.70979E-03
 0.97099998E+02  0.13822E-02
 0.97150002E+02 -0.33668E-03
 0.97200005E+02 -0.77381E-02
 0.97250000E+02 -0.15501E-01
 0.97300003E+02 -0.21937E-01
 0.97349998E+02 -0.24048E-01
 0.97400002E+02 -0.22208E-01
 0.97450005E+02 -0.18513E-01
 0.97500000E+02 -0.13061E-01
 0.97550003E+02 -0.75199E-02
 0.97599998E+02 -0.30419E-02
 0.97650002E+02 -0.13588E-02
 0.97700005E+02 -0.44905E-02
 0.97750000E+02 -0.52602E-02
 0.97800003E+02 -0.20609E-02
 0.97849998E+02  0.19308E-02
 0.97900002E+02  0.36710E-02
 0.97950005E+02  0.50933E-03
 0.98000000E+02  0.98861E-03
 0.98050003E+02  0.36311E-02
 0.98099998E+02  0.28282E-02
 0.98150002E+02 -0.36376E-02
 0.98200005E+02 -0.11909E-01
 0.98250000E+02 -0.15160E-01
 0.98300003E+02 -0.14615E-01
 0.98349998E+02 -0.11388E-01
 0.98400002E+02 -0.10265E-01
 0.98450005E+02 -0.12139E-01
 0.98500000E+02 -0.14334E-01
 0.98550003E+02 -0.13685E-01
 0.98599998E+02 -0.12944E-01
 0.98650002E+02 -0.12699E-01
 0.98700005E+02 -0.89145E-02
 0.98750000E+02 -0.37758E-02
 0.98800003E+02  0.27985E-02
 0.98849998E+02  0.99197E-02
 0.98900002E+02  0.19474E-01
 0.98950005E+02  0.28746E-01
 0.99000000E+02  0.33957E-01
 0.99050003E+02  0.34317E-01
 0.99099998E+02  0.31587E-01
 0.99150002E+02  0.30680E-01
 0.99200005E+02  0.27592E-01
 0.99250000E+02  0.23930E-01
 0.99300003E+02  0.20070E-01
 0.99349998E+02  0.12095E-01
 0.99400002E+02  0.63802E-02
 0.99450005E+02  0.87571E-02
 0.99500000E+02  0.13786E-01
 0.99550003E+02  0.15681E-01
 0.99599998E+02  0.14268E-01
 0.99650002E+02  0.11203E-01
 0.99700005E+02  0.56030E-02
 0.99750000E+02 -0.15553E-02
 0.99800003E+02 -0.67673E-02
 0.99849998E+02 -0.11460E-01
 0.99900002E+02 -0.17406E-01
 0.99950005E+02 -0.25615E-01
 0.10000000E+03 -0.30650E-01
 0.10005000E+03 -0.26361E-01
 0.10010000E+03 -0.17172E-01
 0.10015000E+03 -0.12232E-01
 0.10020000E+03 -0.11532E-01
 0.10025000E+03 -0.97970E-02
 0.10030000E+03 -0.51569E-02
 0.10035000E+03  0.13697E-02
 0.10040000E+03  0.10296E-01
 0.10045000E+03  0.19227E-01
 0.10050000E+03  0.26883E-01
 0.10055000E+03  0.32510E-01
 0.10060000E+03  0.32004E-01
 0.10065000E+03  0.30828E-01
 0.10070000E+03  0.29167E-01
 0.10075000E+03  0.23098E-01
 0.10080000E+03  0.16043E-01
 0.10085000E+03  0.11220E-01
 0.10090000E+03  0.78265E-02
 0.10095000E+03  0.18833E-02
 0.10100000E+03 -0.80729E-02
 0.10105000E+03 -0.17987E-01
 0.10110000E+03 -0.23777E-01
 0.10115000E+03 -0.24770E-01
 0.10120000E+03 -0.24335E-01
 0.10125000E+03 -0.25858E-01
 0.10130000E+03 -0.29997E-01
 0.10135000E+03 -0.34497E-01
 0.10140000E+03 -0.32417E-01
 0.10145000E+03 -0.24719E-01
 0.10150000E+03 -0.20167E-01
 0.10155000E+03 -0.20583E-01
 0.10160000E+03 -0.23395E-01
 0.10165000E+03 -0.21909E-01
 0.10170000E+03 -0.12092E-01
 0.10175000E+03 -0.37542E-02
 0.10180000E+03  0.18123E-02
 0.10185000E+03  0.79071E-02
 0.10190000E+03  0.13073E-01
 0.10195000E+03  0.15828E-01
 0.10200000E+03  0.13236E-01
 0.10205000E+03  0.73884E-02
 0.10210000E+03  0.30546E-02
 0.10215000E+03  0.27855E-02
 0.10220000E+03  0.27363E-02
 0.10225000E+03  0.19744E-02
 0.10230000E+03  0.12482E-02
 0.10235000E+03  0.13344E-02
 0.10240000E+03  0.94147E-03
 0.10245000E+03 -0.32290E-03
 0.10250000E+03  0.83731E-03
 0.10255000E+03  0.26304E-02
 0.10260000E+03  0.62010E-02
 0.10265000E+03  0.10069E-01
 0.10270000E+03  0.12695E-01
 0.10275000E+03  0.15209E-01
 0.10280000E+03  0.15152E-01
 0.10285000E+03  0.15155E-01
 0.10290000E+03  0.15500E-01
 0.10295000E+03  0.13883E-01
 0.10300000E+03  0.99841E-02
 0.10305000E+03  0.22491E-02
 0.10310000E+03 -0.54523E-02
 0.10315000E+03 -0.12592E-01
 0.10320000E+03 -0.18742E-01
 0.10325000E+03 -0.21645E-01
 0.10330000E+03 -0.21180E-01
 0.10335000E+03 -0.15685E-01
 0.10340000E+03 -0.87968E-02
 0.10345000E+03 -0.45103E-02
 0.10350000E+03 -0.45492E-02
 0.10355000E+03 -0.66747E-02
 0.10360000E+03 -0.68535E-02
 0.10365000E+03 -0.44418E-02
 0.10370000E+03  0.78020E-04
 0.10375000E+03  0.46392E-02
 0.10380000E+03  0.93841E-02
 0.10385000E+03  0.15688E-01
 0.10390000E+03  0.20650E-01
 0.10395000E+03  0.24078E-01
 0.10400000E+03  0.25380E-01
 0.10405000E+03  0.21815E-01
 0.10410000E+03  0.15091E-01
 0.10415000E+03  0.67723E-02
 0.10420000E+03 -0.15255E-02
 0.10425000E+03 -0.65073E-02
 0.10430000E+03 -0.77674E-02
 0.10435000E+03 -0.71685E-02
 0.10440000E+03 -0.62921E-02
 0.10445000E+03 -0.69681E-02
 0.10450000E+03 -0.92830E-02
 0.10455000E+03 -0.11685E-01
 0.10460000E+03 -0.12774E-01
 0.10465000E+03 -0.12943E-01
 0.10470000E+03 -0.11994E-01
 0.10475000E+03 -0.88538E-02
 0.10480000E+03 -0.73924E-02
 0.10485000E+03 -0.88565E-02
 0.10490000E+03 -0.10197E-01
 0.10495000E+03 -0.11351E-01
 0.10500000E+03 -0.94761E-02
 0.10505000E+03 -0.61712E-02
 0.10510000E+03 -0.41905E-02
 0.10515000E+03 -0.18913E-02
 0.10520000E+03  0.62704E-04
 0.10525000E+03  0.10373E-02
 0.10530000E+03  0.34698E-02
 0.10535000E+03  0.75838E-02
 0.10540000E+03  0.91911E-02
 0.10545000E+03  0.73033E-02
 0.10550000E+03  0.46261E-02
 0.10555000E+03  0.33100E-02
 0.10560000E+03  0.13281E-02
 0.10565000E+03 -0.39386E-02
 0.10570000E+03 -0.11972E-01
 0.10575000E+03 -0.19974E-01
 0.10580000E+03 -0.23671E-01
 0.10585000E+03 -0.20177E-01
 0.10590000E+03 -0.12963E-01
 0.10595000E+03 -0.50847E-02
 0.10600000E+03  0.20608E-02
 0.10605000E+03  0.70998E-02
 0.10610000E+03  0.83256E-02
 0.10615000E+03  0.78058E-02
 0.10620000E+03  0.90851E-02
 0.10625000E+03  0.80507E-02
 0.10630000E+03  0.55804E-02
 0.10635000E+03  0.45302E-02
 0.10640000E+03  0.29357E-02
 0.10645000E+03  0.24170E-02
 0.10650000E+03  0.22073E-02
 0.10655000E+03 -0.18302E-03
 0.10660000E+03 -0.29674E-02
 0.10665000E+03 -0.35122E-02
 0.10670000E+03 -0.12591E-02
 0.10675000E+03  0.14449E-02
 0.10680000E+03  0.39624E-02
 0.10685000E+03  0.48869E-02
 0.10690000E+03  0.20577E-02
 0.10695000E+03 -0.16578E-02
 0.10700000E+03 -0.29653E-02
 0.10705000E+03 -0.22485E-02
 0.10710000E+03  0.19198E-02
 0.10715000E+03  0.59661E-02
 0.10720000E+03  0.69954E-02
 0.10725000E+03  0.73256E-02
 0.10730000E+03  0.49231E-02
 0.10735000E+03 -0.59739E-04
 0.10740000E+03 -0.55066E-02
 0.10745000E+03 -0.67326E-02
 0.10750000E+03 -0.30230E-02
 0.10755000E+03  0.29792E-02
 0.10760000E+03  0.89183E-02
 0.10765000E+03  0.10726E-01
 0.10770000E+03  0.10869E-01
 0.10775000E+03  0.11481E-01
 0.10780000E+03  0.10638E-01
 0.10785000E+03  0.79722E-02
 0.10790000E+03  0.50771E-02
 0.10795000E+03 -0.15620E-03
 0.10800000E+03 -0.81048E-02
 0.10805000E+03 -0.14815E-01
 0.10810000E+03 -0.18027E-01
 0.10815000E+03 -0.18965E-01
 0.10820000E+03 -0.18978E-01
 0.10825000E+03 -0.16184E-01
 0.10830000E+03 -0.11079E-01
 0.10835000E+03 -0.60737E-02
 0.10840000E+03 -0.43966E-02
 0.10845000E+03 -0.45712E-02
 0.10850000E+03 -0.34653E-02
 0.10855000E+03 -0.28117E-03
 0.10860000E+03  0.42675E-02
 0.10865000E+03  0.85099E-02
 0.10870000E+03  0.85290E-02
 0.10875000E+03  0.45733E-02
 0.10880000E+03  0.14656E-02
 0.10885000E+03 -0.40839E-03
 0.10890000E+03 -0.79554E-03
 0.10895000E+03 -0.18619E-02
 0.10900000E+03 -0.34045E-02
 0.10905000E+03 -0.18958E-02
 0.10910000E+03  0.26170E-02
 0.10915000E+03  0.78169E-02
 0.10920000E+03  0.11254E-01
 0.10925000E+03  0.11247E-01
 0.10930000E+03  0.11146E-01
 0.10935000E+03  0.10521E-01
 0.10940000E+03  0.81084E-02
 0.10945000E+03  0.48309E-02
 0.10950000E+03 -0.10531E-02
 0.10955000E+03 -0.48313E-02
 0.10960000E+03 -0.54042E-02
 0.10965000E+03 -0.42725E-02
 0.10970000E+03 -0.40259E-02
 0.10975000E+03 -0.73564E-02
 0.10980000E+03 -0.11549E-01
 0.10985000E+03 -0.13150E-01
 0.10990000E+03 -0.10296E-01
 0.10995000E+03 -0.59702E-02
 0.11000000E+03 -0.31606E-02
 0.11005000E+03 -0.11825E-02
 0.11010000E+03  0.30347E-02
 0.11015000E+03  0.82033E-02
 0.11020000E+03  0.11004E-01
 0.11025000E+03  0.11437E-01
 0.11030000E+03  0.92765E-02
 0.11035000E+03  0.55712E-02
 0.11040000E+03  0.30990E-02
 0.11045000E+03  0.24815E-02
 0.11050000E+03  0.17139E-02
 0.11055000E+03  0.79950E-05
 0.11060000E+03 -0.41231E-02
 0.11065000E+03 -0.10701E-01
 0.11070000E+03 -0.15724E-01
 0.11075000E+03 -0.18005E-01
 0.11080000E+03 -0.17946E-01
 0.11085000E+03 -0.15625E-01
 0.11090000E+03 -0.11713E-01
 0.11095000E+03 -0.61906E-02
 0.11100000E+03  0.10899E-04
 0.11105000E+03  0.43634E-02
 0.11110000E+03  0.54256E-02
 0.11115000E+03  0.32341E-02
 0.11120000E+03  0.75565E-03
 0.11125000E+03  0.75066E-03
 0.11130000E+03  0.11050E-02
 0.11135000E+03 -0.27467E-03
 0.11140000E+03 -0.19902E-02
 0.11145000E+03 -0.28793E-02
 0.11150000E+03 -0.34862E-02
 0.11155000E+03 -0.30616E-02
 0.11160000E+03 -0.31165E-02
 0.11165000E+03 -0.37354E-02
 0.11170000E+03 -0.40891E-02
 0.11175000E+03 -0.32408E-02
 0.11180000E+03  0.11346E-02
 0.11185000E+03  0.65311E-02
 0.11190000E+03  0.98046E-02
 0.11195000E+03  0.10439E-01
 0.11200000E+03  0.95964E-02
 0.11205000E+03  0.91627E-02
 0.11210000E+03  0.85217E-02
 0.11215000E+03  0.67336E-02
 0.11220000E+03  0.41003E-02
 0.11225000E+03  0.56420E-03
 0.11230000E+03 -0.41927E-03
 0.11235000E+03  0.62810E-03
 0.11240000E+03  0.87576E-04
 0.11245000E+03 -0.32189E-03
 0.11250000E+03 -0.11718E-02
 0.11255000E+03 -0.30019E-02
 0.11260000E+03 -0.50514E-02
 0.11265000E+03 -0.83308E-02
 0.11270000E+03 -0.11366E-01
 0.11275000E+03 -0.12041E-01
 0.11280000E+03 -0.97856E-02
 0.11285000E+03 -0.62231E-02
 0.11290000E+03 -0.28095E-02
 0.11295000E+03  0.11321E-02
 0.11300000E+03  0.62162E-02
 0.11305000E+03  0.10041E-01
 0.11310000E+03  0.11292E-01
 0.11315000E+03  0.11823E-01
 0.11320000E+03  0.10312E-01
 0.11325000E+03  0.63281E-02
 0.11330000E+03  0.10056E-02
 0.11335000E+03 -0.51508E-02
 0.11340000E+03 -0.10724E-01
 0.11345000E+03 -0.14589E-01
 0.11350000E+03 -0.15555E-01
 0.11355000E+03 -0.14632E-01
 0.11360000E+03 -0.12792E-01
 0.11365000E+03 -0.10878E-01
 0.11370000E+03 -0.90507E-02
 0.11375000E+03 -0.68179E-02
 0.11380000E+03 -0.58184E-02
 0.11385000E+03 -0.54755E-02
 0.11390000E+03 -0.45276E-02
 0.11395000E+03 -0.36668E-02
 0.11400000E+03 -0.22537E-02
 0.11405000E+03  0.11094E-02
 0.11410000E+03  0.63359E-02
 0.11415000E+03  0.10880E-01
 0.11420000E+03  0.11777E-01
 0.11425000E+03  0.10361E-01
 0.11430000E+03  0.89066E-02
 0.11435000E+03  0.87574E-02
 0.11440000E+03  0.85525E-02
 0.11445000E+03  0.62146E-02
 0.11450000E+03  0.36206E-02
 0.11455000E+03  0.32163E-02
 0.11460000E+03  0.47900E-02
 0.11465000E+03  0.72064E-02
 0.11470000E+03  0.10045E-01
 0.11475000E+03  0.11525E-01
 0.11480000E+03  0.11100E-01
 0.11485000E+03  0.88297E-02
 0.11490000E+03  0.49917E-02
 0.11495000E+03  0.23902E-02
 0.11500000E+03  0.69574E-03
 0.11505000E+03 -0.19923E-02
 0.11510000E+03 -0.56262E-02
 0.11515000E+03 -0.84612E-02
 0.11520000E+03 -0.87515E-02
 0.11525000E+03 -0.81768E-02
 0.11530000E+03 -0.80289E-02
 0.11535000E+03 -0.88340E-02
 0.11540000E+03 -0.10508E-01
 0.11545000E+03 -0.12276E-01
 0.11550000E+03 -0.14616E-01
 0.11555000E+03 -0.17166E-01
 0.11560000E+03 -0.17690E-01
 0.11565000E+03 -0.17195E-01
 0.11570000E+03 -0.15717E-01
 0.11575000E+03 -0.11798E-01
 0.11580000E+03 -0.79013E-02
 0.11585000E+03 -0.47433E-02
 0.11590000E+03 -0.24119E-02
 0.11595000E+03 -0.91777E-03
 0.11600000E+03 -0.18522E-02
 0.11605000E+03 -0.33106E-02
 0.11610000E+03 -0.22675E-02
 0.11615000E+03 -0.74226E-03
 0.11620000E+03  0.34727E-03
 0.11625000E+03  0.11263E-02
 0.11630000E+03  0.20795E-02
 0.11635000E+03  0.28376E-02
 0.11640000E+03  0.27646E-02
 0.11645000E+03  0.16664E-02
 0.11650000E+03  0.36348E-03
 0.11655000E+03 -0.12339E-02
 0.11660000E+03 -0.34699E-02
 0.11665000E+03 -0.52243E-02
 0.11670000E+03 -0.66407E-02
 0.11675000E+03 -0.70218E-02
 0.11680000E+03 -0.74331E-02
 0.11685000E+03 -0.83506E-02
 0.11690000E+03 -0.68737E-02
 0.11695000E+03 -0.10993E-02
 0.11700000E+03  0.74572E-02
 0.11705000E+03  0.12939E-01
 0.11710000E+03  0.13365E-01
 0.11715000E+03  0.11147E-01
 0.11720000E+03  0.10443E-01
 0.11725000E+03  0.11396E-01
 0.11730000E+03  0.10470E-01
 0.11735000E+03  0.86808E-02
 0.11740000E+03  0.79677E-02
 0.11745000E+03  0.10146E-01
 0.11750000E+03  0.12995E-01
 0.11755000E+03  0.12179E-01
 0.11760000E+03  0.84201E-02
 0.11765000E+03  0.32987E-02
 0.11770000E+03 -0.79290E-03
 0.11775000E+03 -0.18042E-02
 0.11780000E+03 -0.21640E-02
 0.11785000E+03 -0.56643E-02
 0.11790000E+03 -0.10162E-01
 0.11795000E+03 -0.12165E-01
 0.11800000E+03 -0.11751E-01
 0.11805000E+03 -0.84681E-02
 0.11810000E+03 -0.48225E-02
 0.11815000E+03 -0.25858E-02
 0.11820000E+03 -0.22548E-02
 0.11825000E+03 -0.40813E-02
 0.11830000E+03 -0.67874E-02
 0.11835000E+03 -0.10187E-01
 0.11840000E+03 -0.12341E-01
 0.11845000E+03 -0.12254E-01
 0.11850000E+03 -0.11230E-01
 0.11855000E+03 -0.10082E-01
 0.11860000E+03 -0.91111E-02
 0.11865000E+03 -0.77699E-02
 0.11870000E+03 -0.57757E-02
 0.11875000E+03 -0.24262E-02
 0.11880000E+03  0.15188E-02
 0.11885000E+03  0.44222E-02
 0.11890000E+03  0.63888E-02
 0.11895000E+03  0.77792E-02
 0.11900000E+03  0.11383E-01
 0.11905000E+03  0.15396E-01
 0.11910000E+03  0.17220E-01
 0.11915000E+03  0.16755E-01
 0.11920000E+03  0.13622E-01
 0.11925000E+03  0.84406E-02
 0.11930000E+03  0.23487E-02
 0.11935000E+03 -0.38162E-02
 0.11940000E+03 -0.92848E-02
 0.11945000E+03 -0.14866E-01
 0.11950000E+03 -0.18848E-01
 0.11955000E+03 -0.19771E-01
 0.11960000E+03 -0.17800E-01
 0.11965000E+03 -0.13062E-01
 0.11970000E+03 -0.81631E-02
 0.11975000E+03 -0.30576E-02
 0.11980000E+03 -0.20613E-03
 0.11985000E+03  0.50350E-02
 0.11990000E+03  0.87202E-02
 0.11995000E+03  0.15493E-01
 0.12000000E+03  0.85392E-02
