 0.00000000E+00 -0.37761E-04
 0.50000001E-01 -0.95070E-04
 0.10000000E+00 -0.79156E-04
 0.15000001E+00 -0.84584E-04
 0.20000000E+00 -0.80102E-04
 0.25000000E+00 -0.91005E-04
 0.30000001E+00 -0.85366E-04
 0.34999999E+00 -0.88888E-04
 0.40000001E+00 -0.90426E-04
 0.45000002E+00 -0.90747E-04
 0.50000000E+00 -0.93589E-04
 0.55000001E+00 -0.94931E-04
 0.60000002E+00 -0.96032E-04
 0.65000004E+00 -0.97415E-04
 0.69999999E+00 -0.90897E-04
 0.75000000E+00 -0.87748E-04
 0.80000001E+00 -0.88081E-04
 0.85000002E+00 -0.76466E-04
 0.90000004E+00 -0.67024E-04
 0.94999999E+00 -0.53683E-04
 0.10000000E+01 -0.42386E-04
 0.10500001E+01 -0.32308E-04
 0.11000000E+01 -0.22225E-04
 0.11500000E+01 -0.19291E-04
 0.12000000E+01 -0.82338E-05
 0.12500000E+01 -0.32755E-05
 0.13000001E+01  0.27222E-05
 0.13500000E+01  0.59090E-05
 0.14000000E+01  0.15184E-05
 0.14500000E+01  0.19457E-06
 0.15000000E+01 -0.94083E-05
 0.15500001E+01 -0.14898E-04
 0.16000000E+01 -0.19604E-04
 0.16500000E+01 -0.24818E-04
 0.17000000E+01 -0.28888E-04
 0.17500000E+01 -0.33901E-04
 0.18000001E+01 -0.35474E-04
 0.18500000E+01 -0.27937E-04
 0.19000000E+01 -0.25139E-04
 0.19500000E+01 -0.20826E-04
 0.20000000E+01 -0.19458E-04
 0.20500000E+01 -0.17580E-04
 0.21000001E+01 -0.16406E-04
 0.21500001E+01 -0.21053E-04
 0.22000000E+01 -0.17186E-04
 0.22500000E+01 -0.20734E-04
 0.23000000E+01 -0.23118E-04
 0.23500001E+01 -0.31028E-04
 0.24000001E+01 -0.45450E-04
 0.24500000E+01 -0.51750E-04
 0.25000000E+01 -0.56656E-04
 0.25500000E+01 -0.60420E-04
 0.26000001E+01 -0.64249E-04
 0.26500001E+01 -0.71080E-04
 0.27000000E+01 -0.73334E-04
 0.27500000E+01 -0.74490E-04
 0.28000000E+01 -0.79408E-04
 0.28500001E+01 -0.81219E-04
 0.29000001E+01 -0.82601E-04
 0.29500000E+01 -0.88319E-04
 0.30000000E+01 -0.93075E-04
 0.30500000E+01 -0.94310E-04
 0.31000001E+01 -0.94472E-04
 0.31500001E+01 -0.94768E-04
 0.32000000E+01 -0.91299E-04
 0.32500000E+01 -0.79846E-04
 0.33000000E+01 -0.72295E-04
 0.33500001E+01 -0.59845E-04
 0.34000001E+01 -0.43721E-04
 0.34500000E+01 -0.31012E-04
 0.35000000E+01 -0.20494E-04
 0.35500000E+01 -0.97210E-05
 0.36000001E+01  0.56600E-05
 0.36500001E+01  0.18925E-04
 0.37000000E+01  0.34571E-04
 0.37500000E+01  0.47774E-04
 0.38000000E+01  0.54857E-04
 0.38500001E+01  0.62626E-04
 0.39000001E+01  0.69934E-04
 0.39500000E+01  0.72799E-04
 0.40000000E+01  0.79049E-04
 0.40500002E+01  0.84643E-04
 0.40999999E+01  0.88349E-04
 0.41500001E+01  0.94079E-04
 0.42000003E+01  0.10114E-03
 0.42500000E+01  0.10709E-03
 0.43000002E+01  0.11073E-03
 0.43499999E+01  0.11678E-03
 0.44000001E+01  0.12054E-03
 0.44500003E+01  0.12686E-03
 0.45000000E+01  0.12797E-03
 0.45500002E+01  0.12787E-03
 0.45999999E+01  0.12648E-03
 0.46500001E+01  0.12455E-03
 0.47000003E+01  0.12628E-03
 0.47500000E+01  0.12437E-03
 0.48000002E+01  0.12219E-03
 0.48499999E+01  0.11322E-03
 0.49000001E+01  0.10797E-03
 0.49500003E+01  0.96533E-04
 0.50000000E+01  0.85502E-04
 0.50500002E+01  0.77597E-04
 0.50999999E+01  0.65308E-04
 0.51500001E+01  0.54540E-04
 0.52000003E+01  0.40506E-04
 0.52500000E+01  0.22937E-04
 0.53000002E+01  0.46907E-05
 0.53499999E+01 -0.11258E-04
 0.54000001E+01 -0.30654E-04
 0.54500003E+01 -0.54470E-04
 0.55000000E+01 -0.77630E-04
 0.55500002E+01 -0.10147E-03
 0.55999999E+01 -0.12845E-03
 0.56500001E+01 -0.14796E-03
 0.57000003E+01 -0.17458E-03
 0.57500000E+01 -0.19251E-03
 0.58000002E+01 -0.21162E-03
 0.58499999E+01 -0.23094E-03
 0.59000001E+01 -0.24108E-03
 0.59500003E+01 -0.25488E-03
 0.60000000E+01 -0.26094E-03
 0.60500002E+01 -0.26557E-03
 0.60999999E+01 -0.26665E-03
 0.61500001E+01 -0.26415E-03
 0.62000003E+01 -0.25789E-03
 0.62500000E+01 -0.25346E-03
 0.63000002E+01 -0.24273E-03
 0.63499999E+01 -0.23331E-03
 0.64000001E+01 -0.21994E-03
 0.64500003E+01 -0.21028E-03
 0.65000000E+01 -0.20391E-03
 0.65500002E+01 -0.19339E-03
 0.65999999E+01 -0.18521E-03
 0.66500001E+01 -0.16617E-03
 0.67000003E+01 -0.15299E-03
 0.67500000E+01 -0.13874E-03
 0.68000002E+01 -0.11710E-03
 0.68499999E+01 -0.10220E-03
 0.69000001E+01 -0.79870E-04
 0.69500003E+01 -0.54887E-04
 0.70000000E+01 -0.30824E-04
 0.70500002E+01 -0.30594E-05
 0.70999999E+01  0.17969E-04
 0.71500001E+01  0.43950E-04
 0.72000003E+01  0.69091E-04
 0.72500000E+01  0.91217E-04
 0.73000002E+01  0.11331E-03
 0.73499999E+01  0.13201E-03
 0.74000001E+01  0.15208E-03
 0.74500003E+01  0.17287E-03
 0.75000000E+01  0.19076E-03
 0.75500002E+01  0.20622E-03
 0.75999999E+01  0.21841E-03
 0.76500001E+01  0.22544E-03
 0.77000003E+01  0.22969E-03
 0.77500000E+01  0.22970E-03
 0.78000002E+01  0.22575E-03
 0.78499999E+01  0.21624E-03
 0.79000001E+01  0.20539E-03
 0.79500003E+01  0.18716E-03
 0.80000000E+01  0.16699E-03
 0.80500002E+01  0.15080E-03
 0.81000004E+01  0.12930E-03
 0.81500006E+01  0.10798E-03
 0.81999998E+01  0.88460E-04
 0.82500000E+01  0.66924E-04
 0.83000002E+01  0.47269E-04
 0.83500004E+01  0.33132E-04
 0.84000006E+01  0.19760E-04
 0.84499998E+01  0.95282E-05
 0.85000000E+01 -0.32392E-06
 0.85500002E+01 -0.98689E-05
 0.86000004E+01 -0.17543E-04
 0.86500006E+01 -0.25036E-04
 0.86999998E+01 -0.30472E-04
 0.87500000E+01 -0.33364E-04
 0.88000002E+01 -0.49291E-04
 0.88500004E+01 -0.62064E-04
 0.89000006E+01 -0.71387E-04
 0.89499998E+01 -0.84336E-04
 0.90000000E+01 -0.91240E-04
 0.90500002E+01 -0.10023E-03
 0.91000004E+01 -0.10792E-03
 0.91500006E+01 -0.11545E-03
 0.91999998E+01 -0.12257E-03
 0.92500000E+01 -0.12896E-03
 0.93000002E+01 -0.13007E-03
 0.93500004E+01 -0.13390E-03
 0.94000006E+01 -0.14010E-03
 0.94499998E+01 -0.14673E-03
 0.95000000E+01 -0.15216E-03
 0.95500002E+01 -0.16251E-03
 0.96000004E+01 -0.16137E-03
 0.96500006E+01 -0.15639E-03
 0.96999998E+01 -0.15506E-03
 0.97500000E+01 -0.14662E-03
 0.98000002E+01 -0.14127E-03
 0.98500004E+01 -0.13560E-03
 0.99000006E+01 -0.12721E-03
 0.99499998E+01 -0.11626E-03
 0.10000000E+02 -0.10535E-03
 0.10050000E+02 -0.95644E-04
 0.10100000E+02 -0.89904E-04
 0.10150001E+02 -0.86749E-04
 0.10200000E+02 -0.88723E-04
 0.10250000E+02 -0.87248E-04
 0.10300000E+02 -0.86815E-04
 0.10350000E+02 -0.83563E-04
 0.10400001E+02 -0.81420E-04
 0.10450000E+02 -0.79721E-04
 0.10500000E+02 -0.78892E-04
 0.10550000E+02 -0.82259E-04
 0.10600000E+02 -0.79533E-04
 0.10650001E+02 -0.78682E-04
 0.10700000E+02 -0.79418E-04
 0.10750000E+02 -0.10142E-03
 0.10800000E+02 -0.11954E-03
 0.10850000E+02 -0.18345E-03
 0.10900001E+02 -0.30435E-03
 0.10950000E+02 -0.28570E-03
 0.11000000E+02 -0.21006E-04
 0.11050000E+02  0.31730E-03
 0.11100000E+02  0.74215E-03
 0.11150001E+02  0.10044E-02
 0.11200000E+02  0.93479E-03
 0.11250000E+02  0.46423E-03
 0.11300000E+02  0.50259E-03
 0.11350000E+02 -0.15795E-03
 0.11400001E+02  0.12164E-03
 0.11450000E+02 -0.45940E-03
 0.11500000E+02  0.20121E-04
 0.11550000E+02 -0.82426E-03
 0.11600000E+02  0.18945E-03
 0.11650001E+02 -0.79404E-03
 0.11700000E+02 -0.21559E-03
 0.11750000E+02 -0.11258E-02
 0.11800000E+02 -0.28626E-02
 0.11850000E+02 -0.94268E-02
 0.11900001E+02 -0.20024E-01
 0.11950000E+02 -0.49179E-01
 0.12000000E+02 -0.11352E+00
 0.12050000E+02 -0.16557E+00
 0.12100000E+02 -0.18788E+00
 0.12150001E+02 -0.16096E+00
 0.12200000E+02 -0.94389E-01
 0.12250000E+02  0.11545E-01
 0.12300000E+02  0.54000E-01
 0.12350000E+02  0.64984E-01
 0.12400001E+02  0.88422E-01
 0.12450000E+02  0.66108E-01
 0.12500000E+02  0.65839E-01
 0.12550000E+02  0.75961E-01
 0.12600000E+02  0.52313E-01
 0.12650001E+02  0.30743E-01
 0.12700000E+02  0.63164E-01
 0.12750000E+02  0.33660E-01
 0.12800000E+02 -0.42449E-01
 0.12850000E+02 -0.15565E+00
 0.12900001E+02 -0.27557E+00
 0.12950000E+02 -0.26404E+00
 0.13000000E+02 -0.21868E+00
 0.13050000E+02 -0.77247E-01
 0.13100000E+02  0.46401E-01
 0.13150001E+02  0.73846E-01
 0.13200000E+02  0.75200E-01
 0.13250000E+02  0.80105E-01
 0.13300000E+02  0.12209E+00
 0.13350000E+02  0.77009E-01
 0.13400001E+02  0.10511E+00
 0.13450000E+02  0.11757E+00
 0.13500000E+02  0.14679E+00
 0.13550000E+02  0.14244E+00
 0.13600000E+02  0.91020E-01
 0.13650001E+02 -0.50934E-02
 0.13700000E+02 -0.20426E+00
 0.13750000E+02 -0.26074E+00
 0.13800000E+02 -0.23077E+00
 0.13850000E+02 -0.13105E+00
 0.13900001E+02 -0.55219E-01
 0.13950000E+02 -0.31646E-01
 0.14000000E+02 -0.78100E-02
 0.14050000E+02  0.12761E-01
 0.14100000E+02  0.42373E-01
 0.14150001E+02  0.64837E-01
 0.14200000E+02  0.87253E-01
 0.14250000E+02  0.17243E+00
 0.14300000E+02  0.16865E+00
 0.14350000E+02  0.12945E+00
 0.14400001E+02  0.34101E-01
 0.14450000E+02 -0.35683E-01
 0.14500000E+02 -0.53535E-01
 0.14550000E+02 -0.11515E+00
 0.14600000E+02 -0.18110E+00
 0.14650001E+02 -0.20272E+00
 0.14700000E+02 -0.81881E-01
 0.14750000E+02 -0.31475E-01
 0.14800000E+02  0.33600E-01
 0.14850000E+02  0.22533E-01
 0.14900001E+02 -0.12083E-01
 0.14950000E+02  0.61935E-02
 0.15000000E+02  0.52094E-01
 0.15050000E+02  0.86778E-01
 0.15100000E+02  0.94413E-01
 0.15150001E+02  0.11255E+00
 0.15200000E+02  0.85505E-01
 0.15250000E+02  0.18418E-01
 0.15300000E+02 -0.62757E-01
 0.15350000E+02 -0.82155E-01
 0.15400001E+02 -0.62741E-01
 0.15450000E+02 -0.72930E-01
 0.15500000E+02 -0.41588E-01
 0.15550000E+02  0.22435E-01
 0.15600000E+02 -0.25202E-02
 0.15650001E+02  0.99315E-02
 0.15700000E+02  0.33991E-02
 0.15750000E+02  0.10763E-01
 0.15800000E+02  0.74049E-01
 0.15850000E+02  0.46102E-01
 0.15900001E+02  0.46811E-02
 0.15950000E+02  0.25598E-01
 0.16000000E+02  0.59704E-02
 0.16050001E+02 -0.11142E-02
 0.16100000E+02 -0.40830E-01
 0.16150000E+02 -0.86171E-01
 0.16200001E+02 -0.61749E-01
 0.16250000E+02 -0.25649E-01
 0.16300001E+02 -0.17511E-01
 0.16350000E+02  0.31536E-01
 0.16400000E+02  0.35501E-01
 0.16450001E+02 -0.20084E-01
 0.16500000E+02 -0.13880E-02
 0.16550001E+02  0.12176E-01
 0.16600000E+02  0.13237E-01
 0.16650000E+02  0.23949E-01
 0.16700001E+02  0.31152E-01
 0.16750000E+02 -0.93623E-03
 0.16800001E+02 -0.17234E-01
 0.16850000E+02 -0.29281E-02
 0.16900000E+02 -0.25488E-01
 0.16950001E+02 -0.55118E-01
 0.17000000E+02 -0.46836E-01
 0.17050001E+02 -0.73496E-01
 0.17100000E+02 -0.98546E-01
 0.17150000E+02 -0.11600E+00
 0.17200001E+02 -0.28014E-01
 0.17250000E+02  0.44913E-01
 0.17300001E+02  0.20694E-01
 0.17350000E+02  0.21489E-01
 0.17400000E+02  0.57184E-01
 0.17450001E+02  0.16226E-01
 0.17500000E+02 -0.35442E-01
 0.17550001E+02 -0.48149E-01
 0.17600000E+02 -0.97785E-01
 0.17650000E+02 -0.11146E+00
 0.17700001E+02 -0.13470E+00
 0.17750000E+02 -0.10070E+00
 0.17800001E+02 -0.29687E-01
 0.17850000E+02  0.43693E-01
 0.17900000E+02  0.58259E-01
 0.17950001E+02 -0.39253E-03
 0.18000000E+02 -0.54083E-01
 0.18050001E+02 -0.53332E-01
 0.18100000E+02 -0.34970E-01
 0.18150000E+02 -0.12798E-02
 0.18200001E+02  0.65875E-01
 0.18250000E+02  0.31457E-01
 0.18300001E+02  0.17743E-01
 0.18350000E+02  0.25274E-01
 0.18400000E+02 -0.81055E-02
 0.18450001E+02 -0.27925E-01
 0.18500000E+02 -0.38225E-01
 0.18550001E+02  0.37495E-02
 0.18600000E+02 -0.10765E-01
 0.18650000E+02 -0.11936E-01
 0.18700001E+02  0.12422E-01
 0.18750000E+02  0.39738E-01
 0.18800001E+02  0.69718E-01
 0.18850000E+02  0.80199E-02
 0.18900000E+02  0.34415E-01
 0.18950001E+02  0.19679E-01
 0.19000000E+02 -0.57260E-04
 0.19050001E+02 -0.43611E-02
 0.19100000E+02 -0.21713E-01
 0.19150000E+02  0.76168E-02
 0.19200001E+02  0.11075E-01
 0.19250000E+02  0.71784E-01
 0.19300001E+02  0.12135E+00
 0.19350000E+02  0.17214E+00
 0.19400000E+02  0.13569E+00
 0.19450001E+02  0.89650E-01
 0.19500000E+02  0.51210E-01
 0.19550001E+02  0.30587E-01
 0.19600000E+02  0.21490E-01
 0.19650000E+02  0.26233E-01
 0.19700001E+02 -0.53346E-01
 0.19750000E+02 -0.10920E+00
 0.19800001E+02 -0.76254E-01
 0.19850000E+02 -0.18696E-01
 0.19900000E+02  0.87212E-01
 0.19950001E+02  0.80199E-01
 0.20000000E+02  0.12889E+00
 0.20050001E+02  0.15193E+00
 0.20100000E+02  0.15074E+00
 0.20150000E+02  0.13850E+00
 0.20200001E+02  0.16380E+00
 0.20250000E+02  0.17635E+00
 0.20300001E+02  0.20052E+00
 0.20350000E+02  0.16065E+00
 0.20400000E+02  0.20342E-01
 0.20450001E+02 -0.83855E-01
 0.20500000E+02 -0.10390E+00
 0.20550001E+02  0.25859E-01
 0.20600000E+02  0.10018E+00
 0.20650000E+02  0.20300E+00
 0.20700001E+02  0.15170E+00
 0.20750000E+02  0.14325E+00
 0.20800001E+02  0.22512E+00
 0.20850000E+02  0.18498E+00
 0.20900000E+02  0.16129E+00
 0.20950001E+02 -0.36375E-01
 0.21000000E+02 -0.24765E+00
 0.21050001E+02 -0.24978E+00
 0.21100000E+02 -0.12227E+00
 0.21150000E+02 -0.57642E-01
 0.21200001E+02  0.51475E-01
 0.21250000E+02  0.15085E+00
 0.21300001E+02 -0.15497E-01
 0.21350000E+02 -0.21144E+00
 0.21400000E+02  0.61063E-01
 0.21450001E+02  0.40179E+00
 0.21500000E+02  0.15562E+00
 0.21550001E+02 -0.28953E+00
 0.21600000E+02 -0.71014E+00
 0.21650000E+02 -0.10000E+01
 0.21700001E+02 -0.84411E+00
 0.21750000E+02 -0.36711E+00
 0.21800001E+02  0.16738E-01
 0.21850000E+02  0.16598E+00
 0.21900000E+02  0.92103E-01
 0.21950001E+02  0.84972E-01
 0.22000000E+02  0.18651E+00
 0.22050001E+02  0.51412E+00
 0.22100000E+02  0.72247E+00
 0.22150000E+02  0.35232E+00
 0.22200001E+02 -0.24395E-02
 0.22250000E+02 -0.31689E+00
 0.22300001E+02 -0.37269E+00
 0.22350000E+02 -0.11406E+00
 0.22400000E+02  0.12138E+00
 0.22450001E+02  0.39102E+00
 0.22500000E+02  0.34360E+00
 0.22550001E+02  0.21206E+00
 0.22600000E+02  0.16840E+00
 0.22650000E+02  0.29444E+00
 0.22700001E+02  0.53285E+00
 0.22750000E+02  0.33250E+00
 0.22800001E+02  0.11668E+00
 0.22850000E+02 -0.69173E-01
 0.22900000E+02 -0.15127E+00
 0.22950001E+02 -0.40496E-01
 0.23000000E+02 -0.35582E-01
 0.23050001E+02 -0.10508E+00
 0.23100000E+02 -0.50830E-02
 0.23150000E+02  0.29356E-01
 0.23200001E+02 -0.88290E-01
 0.23250000E+02  0.86577E-01
 0.23300001E+02  0.94863E-01
 0.23350000E+02  0.18699E-01
 0.23400000E+02  0.11483E+00
 0.23450001E+02  0.13399E+00
 0.23500000E+02 -0.95616E-01
 0.23550001E+02 -0.34145E+00
 0.23600000E+02 -0.45169E+00
 0.23650000E+02 -0.35929E+00
 0.23700001E+02 -0.12462E+00
 0.23750000E+02 -0.33492E-01
 0.23800001E+02  0.71038E-01
 0.23850000E+02  0.97087E-01
 0.23900000E+02  0.15447E+00
 0.23950001E+02  0.21001E+00
 0.24000000E+02  0.20143E+00
 0.24050001E+02  0.16722E+00
 0.24100000E+02 -0.16478E-01
 0.24150000E+02 -0.26292E+00
 0.24200001E+02 -0.26523E+00
 0.24250000E+02 -0.11423E+00
 0.24300001E+02 -0.43358E-01
 0.24350000E+02  0.98907E-01
 0.24400000E+02  0.16030E+00
 0.24450001E+02  0.74310E-01
 0.24500000E+02  0.13748E-01
 0.24550001E+02 -0.99073E-02
 0.24600000E+02 -0.12772E+00
 0.24650000E+02 -0.16226E+00
 0.24700001E+02 -0.54611E-01
 0.24750000E+02 -0.31952E-01
 0.24800001E+02 -0.13052E+00
 0.24850000E+02 -0.93362E-01
 0.24900000E+02  0.27478E-01
 0.24950001E+02  0.91856E-01
 0.25000000E+02  0.49139E-01
 0.25050001E+02 -0.36942E-01
 0.25100000E+02 -0.68998E-01
 0.25150000E+02 -0.13124E+00
 0.25200001E+02 -0.48659E-01
 0.25250000E+02 -0.72201E-01
 0.25300001E+02 -0.63292E-01
 0.25350000E+02  0.36254E-01
 0.25400000E+02 -0.68829E-01
 0.25450001E+02 -0.18521E+00
 0.25500000E+02 -0.19454E+00
 0.25550001E+02 -0.27976E-01
 0.25600000E+02  0.13248E+00
 0.25650000E+02  0.19159E+00
 0.25700001E+02  0.15122E+00
 0.25750000E+02  0.13993E+00
 0.25800001E+02  0.11397E+00
 0.25850000E+02 -0.24094E-01
 0.25900000E+02 -0.12649E-01
 0.25950001E+02 -0.42258E-01
 0.26000000E+02 -0.54346E-01
 0.26050001E+02 -0.91624E-02
 0.26100000E+02  0.63298E-01
 0.26150000E+02  0.79584E-02
 0.26200001E+02 -0.11184E+00
 0.26250000E+02 -0.10518E+00
 0.26300001E+02 -0.29059E-01
 0.26350000E+02  0.10157E-01
 0.26400000E+02  0.34238E-02
 0.26450001E+02  0.17112E+00
 0.26500000E+02  0.15710E+00
 0.26550001E+02  0.47084E-01
 0.26600000E+02 -0.14291E-02
 0.26650000E+02  0.80124E-03
 0.26700001E+02  0.51827E-01
 0.26750000E+02  0.72750E-01
 0.26800001E+02  0.67705E-02
 0.26850000E+02 -0.13864E+00
 0.26900000E+02 -0.19406E+00
 0.26950001E+02 -0.11779E+00
 0.27000000E+02 -0.68474E-01
 0.27050001E+02 -0.97839E-01
 0.27100000E+02 -0.15421E+00
 0.27150000E+02 -0.20310E+00
 0.27200001E+02 -0.17446E+00
 0.27250000E+02 -0.11066E+00
 0.27300001E+02  0.90129E-02
 0.27350000E+02  0.10027E+00
 0.27400000E+02  0.13223E+00
 0.27450001E+02  0.12119E+00
 0.27500000E+02  0.10208E+00
 0.27550001E+02  0.86829E-01
 0.27600000E+02 -0.15960E-01
 0.27650000E+02 -0.88987E-01
 0.27700001E+02 -0.12030E+00
 0.27750000E+02 -0.16808E+00
 0.27800001E+02 -0.97858E-01
 0.27850000E+02 -0.62851E-01
 0.27900000E+02 -0.48362E-01
 0.27950001E+02 -0.20731E-01
 0.28000000E+02 -0.45856E-01
 0.28050001E+02 -0.18092E-01
 0.28100000E+02  0.12111E-01
 0.28150000E+02  0.35400E-01
 0.28200001E+02  0.28744E-01
 0.28250000E+02  0.21174E-02
 0.28300001E+02  0.18029E-01
 0.28350000E+02  0.28660E-01
 0.28400000E+02  0.40074E-01
 0.28450001E+02  0.59488E-01
 0.28500000E+02  0.74507E-01
 0.28550001E+02  0.12651E+00
 0.28600000E+02  0.66908E-01
 0.28650000E+02 -0.30666E-02
 0.28700001E+02 -0.53193E-01
 0.28750000E+02 -0.12898E+00
 0.28800001E+02 -0.15148E+00
 0.28850000E+02 -0.11314E+00
 0.28900000E+02 -0.64396E-01
 0.28950001E+02 -0.81526E-01
 0.29000000E+02 -0.63703E-01
 0.29050001E+02  0.74477E-03
 0.29100000E+02  0.34307E-01
 0.29150000E+02  0.92731E-02
 0.29200001E+02 -0.11561E-01
 0.29250000E+02  0.91079E-02
 0.29300001E+02  0.68547E-01
 0.29350000E+02  0.12657E+00
 0.29400000E+02  0.12591E+00
 0.29450001E+02  0.14638E-01
 0.29500000E+02 -0.86130E-01
 0.29550001E+02 -0.12871E+00
 0.29600000E+02 -0.12834E+00
 0.29650000E+02 -0.55673E-01
 0.29700001E+02  0.40970E-01
 0.29750000E+02  0.12123E+00
 0.29800001E+02  0.18436E+00
 0.29850000E+02  0.14917E+00
 0.29900000E+02  0.11154E+00
 0.29950001E+02  0.34484E-01
 0.30000000E+02  0.14154E-02
 0.30050001E+02  0.20878E-01
 0.30100000E+02 -0.21227E-01
 0.30150000E+02 -0.35684E-01
 0.30200001E+02 -0.84418E-01
 0.30250000E+02 -0.63285E-01
 0.30300001E+02 -0.28125E-01
 0.30350000E+02  0.21397E-01
 0.30400000E+02  0.56425E-01
 0.30450001E+02  0.29549E-01
 0.30500000E+02  0.41399E-01
 0.30550001E+02  0.73552E-01
 0.30600000E+02  0.99679E-01
 0.30650000E+02  0.13651E+00
 0.30700001E+02  0.98371E-01
 0.30750000E+02  0.53367E-01
 0.30800001E+02  0.42221E-01
 0.30850000E+02  0.14345E-01
 0.30900000E+02 -0.13329E-01
 0.30950001E+02 -0.81643E-01
 0.31000000E+02 -0.44493E-01
 0.31050001E+02 -0.12389E-01
 0.31100000E+02 -0.50160E-02
 0.31150000E+02  0.19368E-02
 0.31200001E+02 -0.44426E-01
 0.31250000E+02 -0.56945E-01
 0.31300001E+02 -0.69577E-01
 0.31350000E+02 -0.25760E-01
 0.31400000E+02 -0.27944E-02
 0.31450001E+02  0.32880E-01
 0.31500000E+02  0.62042E-01
 0.31550001E+02  0.86781E-01
 0.31600000E+02  0.94555E-01
 0.31650000E+02  0.19596E-01
 0.31700001E+02 -0.33192E-01
 0.31750000E+02 -0.90428E-01
 0.31800001E+02 -0.86995E-01
 0.31850000E+02 -0.10570E+00
 0.31900000E+02 -0.72451E-01
 0.31950001E+02 -0.42710E-01
 0.32000000E+02 -0.56613E-01
 0.32049999E+02  0.44315E-02
 0.32100002E+02  0.24107E-01
 0.32150002E+02  0.58277E-01
 0.32200001E+02  0.62466E-01
 0.32250000E+02  0.64266E-01
 0.32299999E+02  0.12776E-01
 0.32350002E+02 -0.69959E-01
 0.32400002E+02 -0.44273E-01
 0.32450001E+02 -0.36438E-01
 0.32500000E+02 -0.19341E-01
 0.32549999E+02  0.71704E-02
 0.32600002E+02  0.47255E-02
 0.32650002E+02  0.53942E-01
 0.32700001E+02  0.13013E+00
 0.32750000E+02  0.19241E+00
 0.32799999E+02  0.20345E+00
 0.32850002E+02  0.13732E+00
 0.32900002E+02  0.24082E-01
 0.32950001E+02 -0.50819E-01
 0.33000000E+02 -0.11242E+00
 0.33049999E+02 -0.14364E+00
 0.33100002E+02 -0.93386E-01
 0.33150002E+02 -0.54388E-01
 0.33200001E+02 -0.52534E-01
 0.33250000E+02 -0.58688E-01
 0.33299999E+02 -0.60160E-01
 0.33350002E+02 -0.28654E-01
 0.33400002E+02  0.48798E-01
 0.33450001E+02  0.11640E+00
 0.33500000E+02  0.15273E+00
 0.33549999E+02  0.10732E+00
 0.33600002E+02  0.43411E-02
 0.33650002E+02 -0.43175E-01
 0.33700001E+02 -0.38248E-01
 0.33750000E+02 -0.15483E-01
 0.33799999E+02  0.41772E-02
 0.33850002E+02 -0.23164E-01
 0.33900002E+02 -0.74416E-01
 0.33950001E+02 -0.10630E+00
 0.34000000E+02 -0.12109E+00
 0.34049999E+02 -0.65239E-01
 0.34100002E+02  0.18155E-02
 0.34150002E+02  0.33834E-01
 0.34200001E+02  0.43892E-01
 0.34250000E+02  0.62142E-01
 0.34299999E+02  0.11423E+00
 0.34350002E+02  0.14610E+00
 0.34400002E+02  0.11339E+00
 0.34450001E+02  0.33156E-01
 0.34500000E+02 -0.17745E-01
 0.34549999E+02 -0.21466E-01
 0.34600002E+02  0.23927E-01
 0.34650002E+02  0.55141E-01
 0.34700001E+02  0.52732E-01
 0.34750000E+02  0.28495E-01
 0.34799999E+02 -0.24284E-01
 0.34850002E+02 -0.53073E-01
 0.34900002E+02 -0.92197E-01
 0.34950001E+02 -0.11081E+00
 0.35000000E+02 -0.84094E-01
 0.35049999E+02 -0.74929E-01
 0.35100002E+02 -0.57147E-01
 0.35150002E+02 -0.25913E-01
 0.35200001E+02 -0.10406E-01
 0.35250000E+02 -0.23907E-01
 0.35299999E+02 -0.59038E-01
 0.35350002E+02 -0.50929E-01
 0.35400002E+02 -0.21768E-01
 0.35450001E+02  0.52845E-02
 0.35500000E+02  0.23746E-01
 0.35549999E+02 -0.71822E-02
 0.35600002E+02 -0.42987E-01
 0.35650002E+02 -0.29152E-01
 0.35700001E+02  0.18893E-01
 0.35750000E+02  0.52548E-01
 0.35799999E+02  0.88429E-01
 0.35850002E+02  0.11645E+00
 0.35900002E+02  0.11937E+00
 0.35950001E+02  0.93205E-01
 0.36000000E+02  0.44218E-01
 0.36049999E+02  0.17242E-01
 0.36100002E+02 -0.18369E-01
 0.36150002E+02 -0.34789E-01
 0.36200001E+02 -0.19795E-01
 0.36250000E+02 -0.24026E-01
 0.36299999E+02 -0.16382E-02
 0.36350002E+02  0.52453E-01
 0.36400002E+02  0.81481E-01
 0.36450001E+02  0.67485E-01
 0.36500000E+02  0.92790E-02
 0.36549999E+02 -0.75762E-01
 0.36600002E+02 -0.12285E+00
 0.36650002E+02 -0.74525E-01
 0.36700001E+02 -0.12595E-01
 0.36750000E+02 -0.17357E-01
 0.36799999E+02 -0.31803E-01
 0.36850002E+02 -0.51141E-01
 0.36900002E+02 -0.46320E-01
 0.36950001E+02 -0.16303E-01
 0.37000000E+02  0.74048E-02
 0.37049999E+02  0.27128E-01
 0.37100002E+02  0.46849E-01
 0.37150002E+02  0.68832E-01
 0.37200001E+02  0.55742E-01
 0.37250000E+02  0.70922E-01
 0.37299999E+02  0.72346E-01
 0.37350002E+02  0.44767E-01
 0.37400002E+02  0.12874E-01
 0.37450001E+02 -0.24443E-01
 0.37500000E+02 -0.23434E-01
 0.37549999E+02 -0.48243E-01
 0.37600002E+02 -0.92634E-01
 0.37650002E+02 -0.98286E-01
 0.37700001E+02 -0.82319E-01
 0.37750000E+02 -0.56066E-01
 0.37799999E+02 -0.19522E-01
 0.37850002E+02  0.18556E-01
 0.37900002E+02  0.72638E-01
 0.37950001E+02  0.95201E-01
 0.38000000E+02  0.69893E-01
 0.38049999E+02  0.40884E-01
 0.38100002E+02 -0.26858E-02
 0.38150002E+02 -0.41985E-01
 0.38200001E+02 -0.81343E-01
 0.38250000E+02 -0.87937E-01
 0.38299999E+02 -0.61529E-01
 0.38350002E+02 -0.45059E-01
 0.38400002E+02 -0.23807E-01
 0.38450001E+02 -0.60881E-02
 0.38500000E+02  0.65196E-02
 0.38549999E+02 -0.11008E-01
 0.38600002E+02 -0.11385E-01
 0.38650002E+02 -0.17619E-01
 0.38700001E+02 -0.95497E-02
 0.38750000E+02  0.15093E-02
 0.38799999E+02  0.10764E-02
 0.38850002E+02  0.28415E-01
 0.38900002E+02  0.49476E-01
 0.38950001E+02  0.50179E-01
 0.39000000E+02  0.33949E-01
 0.39049999E+02  0.26468E-01
 0.39100002E+02 -0.53052E-02
 0.39150002E+02  0.36606E-02
 0.39200001E+02 -0.19064E-02
 0.39250000E+02 -0.36475E-01
 0.39299999E+02 -0.40894E-01
 0.39350002E+02 -0.21939E-01
 0.39400002E+02  0.15140E-01
 0.39450001E+02  0.26853E-01
 0.39500000E+02  0.35298E-01
 0.39549999E+02  0.28170E-01
 0.39600002E+02 -0.58654E-02
 0.39650002E+02 -0.47173E-01
 0.39700001E+02 -0.85063E-01
 0.39750000E+02 -0.83431E-01
 0.39799999E+02 -0.26244E-01
 0.39850002E+02  0.32773E-01
 0.39900002E+02  0.67436E-01
 0.39950001E+02  0.55699E-01
 0.40000000E+02  0.52315E-01
 0.40049999E+02  0.35165E-01
 0.40100002E+02 -0.25881E-01
 0.40150002E+02 -0.78574E-01
 0.40200001E+02 -0.12056E+00
 0.40250000E+02 -0.13618E+00
 0.40299999E+02 -0.12502E+00
 0.40350002E+02 -0.76948E-01
 0.40400002E+02 -0.28272E-01
 0.40450001E+02  0.16362E-01
 0.40500000E+02  0.57553E-01
 0.40549999E+02  0.60356E-01
 0.40600002E+02  0.77317E-01
 0.40650002E+02  0.74141E-01
 0.40700001E+02  0.29937E-01
 0.40750000E+02  0.97809E-02
 0.40799999E+02 -0.82063E-02
 0.40850002E+02 -0.12924E-02
 0.40900002E+02  0.18232E-01
 0.40950001E+02  0.14803E-01
 0.41000000E+02  0.17438E-01
 0.41049999E+02  0.32161E-01
 0.41100002E+02  0.47357E-01
 0.41150002E+02  0.35865E-01
 0.41200001E+02  0.19609E-01
 0.41250000E+02  0.19607E-01
 0.41299999E+02  0.31686E-01
 0.41350002E+02  0.61739E-01
 0.41400002E+02  0.77254E-01
 0.41450001E+02  0.79339E-01
 0.41500000E+02  0.10180E+00
 0.41549999E+02  0.96787E-01
 0.41600002E+02  0.52900E-01
 0.41650002E+02  0.13942E-01
 0.41700001E+02 -0.22145E-01
 0.41750000E+02 -0.42852E-01
 0.41799999E+02 -0.34830E-01
 0.41850002E+02 -0.27297E-01
 0.41900002E+02 -0.20688E-01
 0.41950001E+02 -0.55936E-02
 0.42000000E+02 -0.15174E-01
 0.42049999E+02 -0.23388E-01
 0.42100002E+02 -0.16842E-01
 0.42150002E+02 -0.88811E-02
 0.42200001E+02 -0.19578E-01
 0.42250000E+02 -0.37964E-01
 0.42299999E+02 -0.58171E-01
 0.42350002E+02 -0.67092E-01
 0.42400002E+02 -0.44646E-01
 0.42450001E+02 -0.28416E-01
 0.42500000E+02 -0.42812E-01
 0.42549999E+02 -0.70721E-01
 0.42600002E+02 -0.67670E-01
 0.42650002E+02 -0.60180E-01
 0.42700001E+02 -0.50209E-01
 0.42750000E+02 -0.23685E-01
 0.42799999E+02 -0.56334E-02
 0.42850002E+02  0.16365E-01
 0.42900002E+02  0.34071E-01
 0.42950001E+02  0.43344E-01
 0.43000000E+02  0.57352E-01
 0.43049999E+02  0.60797E-01
 0.43100002E+02  0.56085E-01
 0.43150002E+02  0.49906E-01
 0.43200001E+02  0.33047E-01
 0.43250000E+02  0.14445E-01
 0.43299999E+02  0.18336E-01
 0.43350002E+02  0.23107E-01
 0.43400002E+02  0.58000E-02
 0.43450001E+02 -0.89712E-02
 0.43500000E+02 -0.38180E-01
 0.43549999E+02 -0.64913E-01
 0.43600002E+02 -0.68130E-01
 0.43650002E+02 -0.46784E-01
 0.43700001E+02 -0.15775E-01
 0.43750000E+02  0.85883E-02
 0.43799999E+02  0.31045E-01
 0.43850002E+02  0.55597E-01
 0.43900002E+02  0.74494E-01
 0.43950001E+02  0.49623E-01
 0.44000000E+02  0.18402E-01
 0.44049999E+02 -0.34157E-03
 0.44100002E+02 -0.54828E-02
 0.44150002E+02 -0.16035E-01
 0.44200001E+02 -0.19207E-01
 0.44250000E+02 -0.11681E-01
 0.44299999E+02 -0.59613E-02
 0.44350002E+02  0.16639E-01
 0.44400002E+02  0.37142E-01
 0.44450001E+02  0.52134E-01
 0.44500000E+02  0.28739E-01
 0.44549999E+02  0.17103E-01
 0.44600002E+02  0.22799E-01
 0.44650002E+02  0.13274E-01
 0.44700001E+02  0.79457E-02
 0.44750000E+02 -0.23511E-01
 0.44799999E+02 -0.38379E-01
 0.44850002E+02 -0.31169E-01
 0.44900002E+02 -0.20493E-01
 0.44950001E+02  0.51152E-02
 0.45000000E+02  0.29840E-01
 0.45049999E+02  0.37010E-01
 0.45100002E+02  0.18627E-01
 0.45150002E+02  0.66466E-02
 0.45200001E+02  0.15928E-01
 0.45250000E+02  0.16694E-01
 0.45299999E+02  0.12714E-01
 0.45350002E+02 -0.60627E-02
 0.45400002E+02 -0.38366E-01
 0.45450001E+02 -0.64569E-01
 0.45500000E+02 -0.91262E-01
 0.45549999E+02 -0.77692E-01
 0.45600002E+02 -0.41526E-01
 0.45650002E+02 -0.13295E-02
 0.45700001E+02  0.18380E-01
 0.45750000E+02  0.27495E-01
 0.45799999E+02  0.41794E-01
 0.45850002E+02  0.37876E-01
 0.45900002E+02  0.32984E-01
 0.45950001E+02  0.16887E-01
 0.46000000E+02 -0.26591E-02
 0.46049999E+02 -0.22528E-01
 0.46100002E+02 -0.27879E-01
 0.46150002E+02 -0.25423E-01
 0.46200001E+02 -0.31524E-01
 0.46250000E+02 -0.33298E-01
 0.46299999E+02 -0.26194E-01
 0.46350002E+02 -0.11247E-01
 0.46400002E+02  0.38168E-02
 0.46450001E+02  0.20721E-01
 0.46500000E+02  0.17635E-01
 0.46549999E+02  0.10517E-01
 0.46600002E+02  0.30328E-02
 0.46650002E+02  0.22304E-03
 0.46700001E+02  0.44413E-02
 0.46750000E+02  0.75069E-02
 0.46799999E+02  0.20295E-01
 0.46850002E+02  0.21704E-02
 0.46900002E+02 -0.66052E-02
 0.46950001E+02 -0.52109E-02
 0.47000000E+02 -0.17397E-01
 0.47049999E+02 -0.41661E-02
 0.47100002E+02  0.36905E-02
 0.47150002E+02 -0.37477E-02
 0.47200001E+02 -0.15310E-02
 0.47250000E+02  0.11352E-01
 0.47299999E+02  0.10519E-01
 0.47350002E+02 -0.21509E-02
 0.47400002E+02 -0.43495E-02
 0.47450001E+02  0.77897E-03
 0.47500000E+02  0.14386E-01
 0.47549999E+02  0.23234E-01
 0.47600002E+02  0.23356E-01
 0.47650002E+02  0.24501E-01
 0.47700001E+02  0.25995E-01
 0.47750000E+02  0.33506E-01
 0.47799999E+02  0.25607E-01
 0.47850002E+02  0.60932E-02
 0.47900002E+02 -0.14661E-01
 0.47950001E+02 -0.30300E-01
 0.48000000E+02 -0.24688E-01
 0.48049999E+02 -0.30865E-01
 0.48100002E+02 -0.42162E-01
 0.48150002E+02 -0.50769E-01
 0.48200001E+02 -0.58322E-01
 0.48250000E+02 -0.47078E-01
 0.48299999E+02 -0.21113E-01
 0.48350002E+02  0.52436E-02
 0.48400002E+02  0.26795E-01
 0.48450001E+02  0.49335E-01
 0.48500000E+02  0.56817E-01
 0.48549999E+02  0.38216E-01
 0.48600002E+02  0.16706E-01
 0.48650002E+02 -0.21117E-02
 0.48700001E+02 -0.16979E-01
 0.48750000E+02 -0.11189E-01
 0.48799999E+02  0.70894E-02
 0.48850002E+02  0.32427E-01
 0.48900002E+02  0.43728E-01
 0.48950001E+02  0.36898E-01
 0.49000000E+02  0.35081E-01
 0.49049999E+02  0.37875E-01
 0.49100002E+02  0.38041E-01
 0.49150002E+02  0.27048E-01
 0.49200001E+02  0.12990E-01
 0.49250000E+02  0.15238E-01
 0.49299999E+02  0.13126E-01
 0.49350002E+02  0.34307E-02
 0.49400002E+02 -0.12438E-01
 0.49450001E+02 -0.31701E-01
 0.49500000E+02 -0.46080E-01
 0.49549999E+02 -0.46210E-01
 0.49600002E+02 -0.30664E-01
 0.49650002E+02 -0.24347E-01
 0.49700001E+02 -0.14954E-01
 0.49750000E+02 -0.19601E-02
 0.49799999E+02  0.12186E-01
 0.49850002E+02  0.87416E-02
 0.49900002E+02  0.17510E-03
 0.49950001E+02 -0.21294E-02
 0.50000000E+02 -0.82119E-02
 0.50049999E+02 -0.17303E-01
 0.50100002E+02 -0.37719E-01
 0.50150002E+02 -0.43973E-01
 0.50200001E+02 -0.33522E-01
 0.50250000E+02 -0.23936E-01
 0.50299999E+02 -0.24550E-01
 0.50350002E+02 -0.18032E-01
 0.50400002E+02 -0.54427E-02
 0.50450001E+02 -0.51353E-02
 0.50500000E+02 -0.28833E-02
 0.50549999E+02 -0.21020E-02
 0.50600002E+02 -0.18560E-02
 0.50650002E+02 -0.57216E-02
 0.50700001E+02 -0.93716E-02
 0.50750000E+02 -0.37193E-03
 0.50799999E+02  0.74887E-02
 0.50850002E+02  0.21981E-01
 0.50900002E+02  0.33305E-01
 0.50950001E+02  0.40280E-01
 0.51000000E+02  0.43673E-01
 0.51049999E+02  0.33610E-01
 0.51100002E+02  0.21186E-01
 0.51150002E+02  0.86385E-02
 0.51200001E+02  0.71087E-02
 0.51250000E+02  0.13953E-01
 0.51299999E+02  0.10919E-01
 0.51350002E+02  0.51745E-02
 0.51400002E+02  0.98769E-04
 0.51450001E+02 -0.50541E-02
 0.51500000E+02 -0.78410E-02
 0.51549999E+02 -0.52494E-02
 0.51600002E+02 -0.34290E-02
 0.51650002E+02 -0.57345E-02
 0.51700001E+02 -0.13356E-01
 0.51750000E+02 -0.27065E-01
 0.51799999E+02 -0.33611E-01
 0.51850002E+02 -0.35529E-01
 0.51900002E+02 -0.27794E-01
 0.51950001E+02 -0.15716E-01
 0.52000000E+02 -0.57060E-02
 0.52049999E+02 -0.48580E-02
 0.52100002E+02 -0.49488E-02
 0.52150002E+02 -0.79045E-02
 0.52200001E+02  0.84670E-03
 0.52250000E+02  0.25611E-01
 0.52299999E+02  0.37948E-01
 0.52350002E+02  0.48580E-01
 0.52400002E+02  0.55259E-01
 0.52450001E+02  0.58791E-01
 0.52500000E+02  0.46887E-01
 0.52549999E+02  0.23544E-01
 0.52600002E+02  0.10379E-01
 0.52650002E+02 -0.19921E-02
 0.52700001E+02 -0.10260E-02
 0.52750000E+02  0.69084E-02
 0.52799999E+02  0.13456E-01
 0.52850002E+02  0.17823E-01
 0.52900002E+02  0.16770E-01
 0.52950001E+02  0.15906E-01
 0.53000000E+02  0.10670E-01
 0.53049999E+02 -0.24719E-02
 0.53100002E+02 -0.11475E-01
 0.53150002E+02 -0.94320E-02
 0.53200001E+02 -0.32201E-02
 0.53250000E+02  0.50396E-02
 0.53299999E+02  0.44910E-02
 0.53350002E+02 -0.12836E-01
 0.53400002E+02 -0.31422E-01
 0.53450001E+02 -0.39162E-01
 0.53500000E+02 -0.36854E-01
 0.53549999E+02 -0.34242E-01
 0.53600002E+02 -0.40511E-01
 0.53650002E+02 -0.41391E-01
 0.53700001E+02 -0.37238E-01
 0.53750000E+02 -0.24989E-01
 0.53799999E+02 -0.19144E-01
 0.53850002E+02 -0.12094E-01
 0.53900002E+02 -0.96478E-02
 0.53950001E+02 -0.17941E-01
 0.54000000E+02 -0.17321E-01
 0.54049999E+02 -0.12077E-01
 0.54100002E+02 -0.40182E-02
 0.54150002E+02  0.10223E-01
 0.54200001E+02  0.22630E-01
 0.54250000E+02  0.21152E-01
 0.54299999E+02  0.28185E-01
 0.54350002E+02  0.26874E-01
 0.54400002E+02  0.18688E-01
 0.54450001E+02  0.13070E-01
 0.54500000E+02  0.91601E-02
 0.54549999E+02  0.10886E-01
 0.54600002E+02  0.69109E-02
 0.54650002E+02  0.91494E-02
 0.54700001E+02  0.10266E-01
 0.54750000E+02  0.40243E-03
 0.54799999E+02 -0.35887E-02
 0.54850002E+02 -0.60991E-02
 0.54900002E+02 -0.96432E-03
 0.54950001E+02  0.54601E-02
 0.55000000E+02  0.11454E-01
 0.55049999E+02  0.20975E-01
 0.55100002E+02  0.17957E-01
 0.55150002E+02  0.12154E-01
 0.55200001E+02  0.17536E-03
 0.55250000E+02 -0.89876E-02
 0.55299999E+02 -0.10626E-01
 0.55350002E+02 -0.10054E-01
 0.55400002E+02 -0.34047E-02
 0.55450001E+02 -0.14066E-02
 0.55500000E+02 -0.11094E-01
 0.55549999E+02 -0.17251E-01
 0.55600002E+02 -0.27537E-01
 0.55650002E+02 -0.30310E-01
 0.55700001E+02 -0.16919E-01
 0.55750000E+02 -0.37276E-02
 0.55799999E+02  0.54759E-02
 0.55850002E+02  0.42193E-02
 0.55900002E+02  0.41823E-02
 0.55950001E+02  0.69646E-02
 0.56000000E+02  0.13543E-01
 0.56049999E+02  0.14835E-01
 0.56100002E+02  0.68514E-02
 0.56150002E+02  0.70586E-02
 0.56200001E+02  0.96901E-02
 0.56250000E+02  0.14595E-01
 0.56299999E+02  0.25657E-01
 0.56350002E+02  0.26243E-01
 0.56400002E+02  0.20402E-01
 0.56450001E+02  0.16957E-01
 0.56500000E+02  0.11772E-01
 0.56549999E+02  0.14287E-01
 0.56600002E+02  0.17733E-01
 0.56650002E+02  0.88144E-02
 0.56700001E+02 -0.41342E-03
 0.56750000E+02  0.11001E-02
 0.56799999E+02  0.85138E-02
 0.56850002E+02  0.11802E-01
 0.56900002E+02  0.10759E-01
 0.56950001E+02  0.85255E-03
 0.57000000E+02 -0.95463E-02
 0.57049999E+02 -0.23426E-01
 0.57100002E+02 -0.34576E-01
 0.57150002E+02 -0.38287E-01
 0.57200001E+02 -0.34974E-01
 0.57250000E+02 -0.20552E-01
 0.57299999E+02 -0.92339E-02
 0.57350002E+02  0.41291E-02
 0.57400002E+02  0.62132E-02
 0.57450001E+02 -0.76702E-03
 0.57500000E+02 -0.10822E-01
 0.57549999E+02 -0.23529E-01
 0.57600002E+02 -0.27507E-01
 0.57650002E+02 -0.24850E-01
 0.57700001E+02 -0.17897E-01
 0.57750000E+02 -0.98678E-02
 0.57799999E+02 -0.22692E-02
 0.57850002E+02  0.25768E-02
 0.57900002E+02  0.57801E-02
 0.57950001E+02  0.47772E-02
 0.58000000E+02  0.31520E-02
 0.58049999E+02  0.49958E-02
 0.58100002E+02  0.61875E-02
 0.58150002E+02  0.95344E-03
 0.58200001E+02 -0.41041E-02
 0.58250000E+02 -0.42432E-02
 0.58299999E+02 -0.51932E-02
 0.58350002E+02 -0.50144E-02
 0.58400002E+02 -0.76505E-03
 0.58450001E+02  0.10898E-01
 0.58500000E+02  0.18198E-01
 0.58549999E+02  0.24030E-01
 0.58600002E+02  0.25814E-01
 0.58650002E+02  0.18484E-01
 0.58700001E+02  0.10571E-01
 0.58750000E+02  0.87528E-02
 0.58799999E+02  0.11012E-01
 0.58850002E+02  0.48281E-02
 0.58900002E+02 -0.25307E-02
 0.58950001E+02 -0.64512E-02
 0.59000000E+02 -0.10784E-01
 0.59049999E+02 -0.16065E-01
 0.59100002E+02 -0.15849E-01
 0.59150002E+02 -0.64352E-02
 0.59200001E+02  0.39945E-03
 0.59250000E+02  0.51839E-02
 0.59299999E+02  0.79541E-02
 0.59350002E+02  0.92045E-02
 0.59400002E+02  0.67530E-02
 0.59450001E+02  0.27171E-02
 0.59500000E+02 -0.84675E-03
 0.59549999E+02 -0.15497E-02
 0.59600002E+02  0.33188E-02
 0.59650002E+02  0.22073E-02
 0.59700001E+02 -0.40979E-02
 0.59750000E+02 -0.12021E-01
 0.59799999E+02 -0.14013E-01
 0.59850002E+02 -0.12561E-01
 0.59900002E+02 -0.74737E-02
 0.59950001E+02  0.23801E-02
 0.60000000E+02  0.58134E-02
 0.60049999E+02  0.21728E-02
 0.60100002E+02 -0.27438E-02
 0.60150002E+02 -0.11678E-02
 0.60200001E+02  0.29445E-02
 0.60250000E+02  0.70698E-02
 0.60299999E+02  0.12202E-01
 0.60350002E+02  0.12588E-01
 0.60400002E+02  0.36731E-02
 0.60450001E+02 -0.57016E-02
 0.60500000E+02 -0.13666E-01
 0.60549999E+02 -0.21016E-01
 0.60600002E+02 -0.14964E-01
 0.60650002E+02 -0.47513E-02
 0.60700001E+02  0.11819E-01
 0.60750000E+02  0.23049E-01
 0.60799999E+02  0.25379E-01
 0.60850002E+02  0.29411E-01
 0.60900002E+02  0.30079E-01
 0.60950001E+02  0.29264E-01
 0.61000000E+02  0.25758E-01
 0.61049999E+02  0.19981E-01
 0.61100002E+02  0.11773E-01
 0.61150002E+02  0.96222E-02
 0.61200001E+02  0.93297E-02
 0.61250000E+02  0.35413E-02
 0.61299999E+02 -0.13549E-01
 0.61350002E+02 -0.29961E-01
 0.61400002E+02 -0.34050E-01
 0.61450001E+02 -0.33923E-01
 0.61500000E+02 -0.29068E-01
 0.61549999E+02 -0.25074E-01
 0.61600002E+02 -0.18732E-01
 0.61650002E+02 -0.75021E-02
 0.61700001E+02 -0.43009E-04
 0.61750000E+02  0.41511E-02
 0.61799999E+02  0.36232E-02
 0.61850002E+02 -0.11548E-02
 0.61900002E+02 -0.23671E-02
 0.61950001E+02 -0.52541E-02
 0.62000000E+02 -0.83658E-02
 0.62049999E+02 -0.10485E-03
 0.62100002E+02  0.10658E-01
 0.62150002E+02  0.18680E-01
 0.62200001E+02  0.24199E-01
 0.62250000E+02  0.22481E-01
 0.62299999E+02  0.18483E-01
 0.62350002E+02  0.81374E-02
 0.62400002E+02 -0.71420E-02
 0.62450001E+02 -0.18301E-01
 0.62500000E+02 -0.20259E-01
 0.62549999E+02 -0.21538E-01
 0.62600002E+02 -0.24850E-01
 0.62650002E+02 -0.18732E-01
 0.62700001E+02 -0.12698E-01
 0.62750000E+02 -0.56128E-02
 0.62799999E+02  0.37480E-02
 0.62850002E+02  0.69391E-02
 0.62900002E+02  0.55691E-02
 0.62950001E+02  0.94354E-02
 0.63000000E+02  0.16993E-01
 0.63049999E+02  0.13278E-01
 0.63100002E+02  0.10430E-01
 0.63150002E+02  0.12513E-01
 0.63200001E+02  0.70021E-02
 0.63250000E+02  0.29460E-03
 0.63299999E+02 -0.51919E-02
 0.63350002E+02 -0.10239E-01
 0.63400002E+02 -0.12549E-01
 0.63450001E+02 -0.10725E-01
 0.63500000E+02 -0.26962E-02
 0.63549999E+02  0.49564E-02
 0.63600002E+02  0.59372E-02
 0.63650002E+02  0.17555E-02
 0.63700001E+02 -0.32571E-02
 0.63750000E+02 -0.19872E-02
 0.63799999E+02  0.20492E-02
 0.63850002E+02  0.12897E-02
 0.63900002E+02 -0.10536E-02
 0.63950001E+02 -0.23233E-02
 0.64000000E+02 -0.51594E-02
 0.64050003E+02 -0.75892E-02
 0.64099998E+02 -0.67435E-02
 0.64150002E+02 -0.32035E-02
 0.64200005E+02 -0.43225E-02
 0.64250000E+02 -0.45256E-02
 0.64300003E+02 -0.46007E-03
 0.64349998E+02  0.48963E-02
 0.64400002E+02  0.12748E-01
 0.64450005E+02  0.14086E-01
 0.64500000E+02  0.15321E-01
 0.64550003E+02  0.15305E-01
 0.64599998E+02  0.11961E-01
 0.64650002E+02  0.89431E-02
 0.64700005E+02  0.51437E-02
 0.64750000E+02 -0.72301E-03
 0.64800003E+02 -0.78614E-02
 0.64849998E+02 -0.15360E-01
 0.64900002E+02 -0.22250E-01
 0.64950005E+02 -0.25612E-01
 0.65000000E+02 -0.25043E-01
 0.65050003E+02 -0.21862E-01
 0.65099998E+02 -0.17029E-01
 0.65150002E+02 -0.11352E-01
 0.65200005E+02 -0.43970E-02
 0.65250000E+02  0.15529E-02
 0.65300003E+02  0.59477E-02
 0.65349998E+02  0.14815E-01
 0.65400002E+02  0.21612E-01
 0.65450005E+02  0.24635E-01
 0.65500000E+02  0.21657E-01
 0.65550003E+02  0.14945E-01
 0.65599998E+02  0.10144E-01
 0.65650002E+02  0.80158E-02
 0.65700005E+02  0.80809E-02
 0.65750000E+02  0.72844E-02
 0.65800003E+02  0.10825E-01
 0.65849998E+02  0.14417E-01
 0.65900002E+02  0.16688E-01
 0.65950005E+02  0.19933E-01
 0.66000000E+02  0.22762E-01
 0.66050003E+02  0.19306E-01
 0.66099998E+02  0.11242E-01
 0.66150002E+02  0.79879E-02
 0.66200005E+02  0.44508E-02
 0.66250000E+02  0.23991E-02
 0.66300003E+02 -0.30502E-02
 0.66349998E+02 -0.62937E-02
 0.66400002E+02 -0.73622E-02
 0.66450005E+02 -0.12301E-01
 0.66500000E+02 -0.17713E-01
 0.66550003E+02 -0.21194E-01
 0.66599998E+02 -0.19372E-01
 0.66650002E+02 -0.12869E-01
 0.66700005E+02 -0.75605E-02
 0.66750000E+02 -0.88602E-02
 0.66800003E+02 -0.11973E-01
 0.66849998E+02 -0.14267E-01
 0.66900002E+02 -0.16442E-01
 0.66950005E+02 -0.19202E-01
 0.67000000E+02 -0.19036E-01
 0.67050003E+02 -0.19510E-01
 0.67099998E+02 -0.22259E-01
 0.67150002E+02 -0.23664E-01
 0.67200005E+02 -0.23420E-01
 0.67250000E+02 -0.18955E-01
 0.67300003E+02 -0.11001E-01
 0.67349998E+02 -0.68109E-02
 0.67400002E+02 -0.70225E-03
 0.67450005E+02  0.46662E-02
 0.67500000E+02  0.69028E-02
 0.67550003E+02  0.11259E-01
 0.67599998E+02  0.15406E-01
 0.67650002E+02  0.15988E-01
 0.67700005E+02  0.14598E-01
 0.67750000E+02  0.17069E-01
 0.67800003E+02  0.20890E-01
 0.67849998E+02  0.27664E-01
 0.67900002E+02  0.29347E-01
 0.67950005E+02  0.22543E-01
 0.68000000E+02  0.16333E-01
 0.68050003E+02  0.10582E-01
 0.68099998E+02  0.57233E-02
 0.68150002E+02  0.47361E-02
 0.68200005E+02  0.83094E-02
 0.68250000E+02  0.10597E-01
 0.68300003E+02  0.10634E-01
 0.68349998E+02  0.63052E-02
 0.68400002E+02  0.12461E-03
 0.68450005E+02 -0.13490E-02
 0.68500000E+02  0.97191E-03
 0.68550003E+02  0.30630E-02
 0.68599998E+02  0.56894E-02
 0.68650002E+02  0.83186E-02
 0.68700005E+02  0.90282E-02
 0.68750000E+02  0.11302E-01
 0.68800003E+02  0.75551E-02
 0.68849998E+02  0.83308E-03
 0.68900002E+02 -0.12356E-02
 0.68950005E+02 -0.11502E-03
 0.69000000E+02  0.38605E-02
 0.69050003E+02  0.86432E-02
 0.69099998E+02  0.14569E-01
 0.69150002E+02  0.18249E-01
 0.69200005E+02  0.18962E-01
 0.69250000E+02  0.15887E-01
 0.69300003E+02  0.64375E-02
 0.69349998E+02 -0.26097E-02
 0.69400002E+02 -0.10097E-01
 0.69450005E+02 -0.14192E-01
 0.69500000E+02 -0.12856E-01
 0.69550003E+02 -0.10842E-01
 0.69599998E+02 -0.49911E-02
 0.69650002E+02 -0.31906E-02
 0.69700005E+02 -0.74163E-02
 0.69750000E+02 -0.12648E-01
 0.69800003E+02 -0.18265E-01
 0.69849998E+02 -0.23347E-01
 0.69900002E+02 -0.27964E-01
 0.69950005E+02 -0.28033E-01
 0.70000000E+02 -0.25584E-01
 0.70050003E+02 -0.19743E-01
 0.70099998E+02 -0.14902E-01
 0.70150002E+02 -0.11586E-01
 0.70200005E+02 -0.79103E-02
 0.70250000E+02 -0.31899E-02
 0.70300003E+02  0.28886E-02
 0.70349998E+02  0.86430E-02
 0.70400002E+02  0.11462E-01
 0.70450005E+02  0.98919E-02
 0.70500000E+02  0.47431E-02
 0.70550003E+02 -0.66899E-03
 0.70599998E+02 -0.41537E-02
 0.70650002E+02 -0.62474E-02
 0.70700005E+02 -0.78328E-02
 0.70750000E+02 -0.10061E-01
 0.70800003E+02 -0.82379E-02
 0.70849998E+02 -0.67693E-02
 0.70900002E+02 -0.28467E-02
 0.70950005E+02  0.21829E-02
 0.71000000E+02  0.61038E-02
 0.71050003E+02  0.12291E-01
 0.71099998E+02  0.17540E-01
 0.71150002E+02  0.20017E-01
 0.71200005E+02  0.19031E-01
 0.71250000E+02  0.13755E-01
 0.71300003E+02  0.31851E-02
 0.71349998E+02 -0.83609E-02
 0.71400002E+02 -0.14903E-01
 0.71450005E+02 -0.13372E-01
 0.71500000E+02 -0.73908E-02
 0.71550003E+02 -0.84349E-03
 0.71599998E+02  0.44790E-02
 0.71650002E+02  0.66779E-02
 0.71700005E+02  0.70055E-02
 0.71750000E+02  0.73116E-02
 0.71800003E+02  0.43647E-02
 0.71849998E+02  0.18589E-02
 0.71900002E+02 -0.70837E-03
 0.71950005E+02 -0.41666E-02
 0.72000000E+02 -0.39736E-02
 0.72050003E+02 -0.75753E-02
 0.72099998E+02 -0.12217E-01
 0.72150002E+02 -0.14887E-01
 0.72200005E+02 -0.18269E-01
 0.72250000E+02 -0.20658E-01
 0.72300003E+02 -0.20906E-01
 0.72349998E+02 -0.21354E-01
 0.72400002E+02 -0.19742E-01
 0.72450005E+02 -0.17002E-01
 0.72500000E+02 -0.15244E-01
 0.72550003E+02 -0.10572E-01
 0.72599998E+02 -0.49339E-02
 0.72650002E+02  0.25298E-02
 0.72700005E+02  0.96476E-02
 0.72750000E+02  0.16724E-01
 0.72800003E+02  0.17794E-01
 0.72849998E+02  0.11699E-01
 0.72900002E+02  0.52995E-02
 0.72950005E+02  0.28321E-02
 0.73000000E+02  0.20355E-02
 0.73050003E+02  0.23379E-02
 0.73099998E+02  0.39134E-02
 0.73150002E+02  0.50000E-02
 0.73200005E+02  0.78317E-02
 0.73250000E+02  0.11770E-01
 0.73300003E+02  0.15979E-01
 0.73349998E+02  0.15368E-01
 0.73400002E+02  0.16952E-01
 0.73450005E+02  0.18435E-01
 0.73500000E+02  0.17492E-01
 0.73550003E+02  0.15169E-01
 0.73599998E+02  0.98549E-02
 0.73650002E+02  0.83922E-02
 0.73700005E+02  0.79290E-02
 0.73750000E+02  0.80866E-02
 0.73800003E+02  0.98008E-02
 0.73849998E+02  0.12859E-01
 0.73900002E+02  0.12670E-01
 0.73950005E+02  0.72674E-02
 0.74000000E+02  0.20220E-02
 0.74050003E+02 -0.31725E-02
 0.74099998E+02 -0.86615E-02
 0.74150002E+02 -0.13003E-01
 0.74200005E+02 -0.15250E-01
 0.74250000E+02 -0.13761E-01
 0.74300003E+02 -0.11562E-01
 0.74349998E+02 -0.95824E-02
 0.74400002E+02 -0.76643E-02
 0.74450005E+02 -0.88382E-02
 0.74500000E+02 -0.82196E-02
 0.74550003E+02 -0.51616E-02
 0.74599998E+02 -0.27446E-02
 0.74650002E+02 -0.23956E-02
 0.74700005E+02 -0.40151E-02
 0.74750000E+02 -0.54748E-02
 0.74800003E+02 -0.73931E-02
 0.74849998E+02 -0.62905E-02
 0.74900002E+02 -0.58660E-02
 0.74950005E+02 -0.74195E-02
 0.75000000E+02 -0.80029E-02
 0.75050003E+02 -0.89069E-02
 0.75099998E+02 -0.64001E-02
 0.75150002E+02 -0.23036E-02
 0.75200005E+02  0.83515E-03
 0.75250000E+02 -0.26921E-03
 0.75300003E+02 -0.14109E-02
 0.75349998E+02 -0.99719E-04
 0.75400002E+02  0.24759E-02
 0.75450005E+02  0.69019E-02
 0.75500000E+02  0.11989E-01
 0.75550003E+02  0.16753E-01
 0.75599998E+02  0.18262E-01
 0.75650002E+02  0.19149E-01
 0.75700005E+02  0.17810E-01
 0.75750000E+02  0.11125E-01
 0.75800003E+02  0.75289E-03
 0.75849998E+02 -0.97443E-02
 0.75900002E+02 -0.16204E-01
 0.75950005E+02 -0.15895E-01
 0.76000000E+02 -0.14185E-01
 0.76050003E+02 -0.11975E-01
 0.76099998E+02 -0.10420E-01
 0.76150002E+02 -0.68848E-02
 0.76200005E+02 -0.30222E-02
 0.76250000E+02  0.65193E-03
 0.76300003E+02  0.82191E-02
 0.76349998E+02  0.16184E-01
 0.76400002E+02  0.20699E-01
 0.76450005E+02  0.22509E-01
 0.76500000E+02  0.21735E-01
 0.76550003E+02  0.15612E-01
 0.76599998E+02  0.10830E-01
 0.76650002E+02  0.85572E-02
 0.76700005E+02  0.45451E-02
 0.76750000E+02 -0.14422E-02
 0.76800003E+02 -0.76907E-02
 0.76849998E+02 -0.12416E-01
 0.76900002E+02 -0.11212E-01
 0.76950005E+02 -0.86106E-02
 0.77000000E+02 -0.83503E-02
 0.77050003E+02 -0.88905E-02
 0.77099998E+02 -0.89757E-02
 0.77150002E+02 -0.63697E-02
 0.77200005E+02 -0.32890E-02
 0.77250000E+02 -0.10113E-02
 0.77300003E+02  0.26602E-02
 0.77349998E+02  0.23835E-02
 0.77400002E+02 -0.90091E-05
 0.77450005E+02 -0.25795E-03
 0.77500000E+02 -0.28831E-03
 0.77550003E+02 -0.11338E-02
 0.77599998E+02 -0.24873E-02
 0.77650002E+02 -0.31749E-02
 0.77700005E+02 -0.36466E-02
 0.77750000E+02 -0.32352E-02
 0.77800003E+02 -0.42347E-02
 0.77849998E+02 -0.57852E-02
 0.77900002E+02 -0.57625E-02
 0.77950005E+02 -0.64097E-02
 0.78000000E+02 -0.79400E-02
 0.78050003E+02 -0.61613E-02
 0.78099998E+02 -0.10623E-02
 0.78150002E+02  0.40204E-02
 0.78200005E+02  0.78082E-02
 0.78250000E+02  0.85110E-02
 0.78300003E+02  0.72957E-02
 0.78349998E+02  0.65676E-02
 0.78400002E+02  0.45720E-02
 0.78450005E+02  0.78189E-03
 0.78500000E+02 -0.16331E-02
 0.78550003E+02 -0.13521E-02
 0.78599998E+02 -0.56874E-03
 0.78650002E+02 -0.25235E-03
 0.78700005E+02  0.16079E-02
 0.78750000E+02  0.45579E-02
 0.78800003E+02  0.65546E-02
 0.78849998E+02  0.88844E-02
 0.78900002E+02  0.13904E-01
 0.78950005E+02  0.18924E-01
 0.79000000E+02  0.21542E-01
 0.79050003E+02  0.21908E-01
 0.79099998E+02  0.18627E-01
 0.79150002E+02  0.15737E-01
 0.79200005E+02  0.13656E-01
 0.79250000E+02  0.93575E-02
 0.79300003E+02  0.28578E-02
 0.79349998E+02 -0.30706E-02
 0.79400002E+02 -0.70193E-02
 0.79450005E+02 -0.96651E-02
 0.79500000E+02 -0.90410E-02
 0.79550003E+02 -0.68308E-02
 0.79599998E+02 -0.62906E-02
 0.79650002E+02 -0.50682E-02
 0.79700005E+02 -0.29292E-02
 0.79750000E+02 -0.22605E-02
 0.79800003E+02 -0.16421E-02
 0.79849998E+02 -0.34443E-02
 0.79900002E+02 -0.58651E-02
 0.79950005E+02 -0.57361E-02
 0.80000000E+02 -0.66451E-02
 0.80050003E+02 -0.93358E-02
 0.80099998E+02 -0.12586E-01
 0.80150002E+02 -0.13207E-01
 0.80200005E+02 -0.10964E-01
 0.80250000E+02 -0.80084E-02
 0.80300003E+02 -0.48903E-02
 0.80349998E+02 -0.44953E-02
 0.80400002E+02 -0.32278E-02
 0.80450005E+02 -0.13816E-02
 0.80500000E+02 -0.40421E-02
 0.80550003E+02 -0.82652E-02
 0.80599998E+02 -0.11887E-01
 0.80650002E+02 -0.12358E-01
 0.80700005E+02 -0.10489E-01
 0.80750000E+02 -0.97048E-02
 0.80800003E+02 -0.81016E-02
 0.80849998E+02 -0.52422E-02
 0.80900002E+02 -0.22936E-02
 0.80950005E+02 -0.58963E-03
 0.81000000E+02  0.75556E-05
 0.81050003E+02 -0.66122E-03
 0.81099998E+02 -0.62013E-03
 0.81150002E+02  0.13448E-02
 0.81200005E+02  0.13281E-02
 0.81250000E+02  0.14040E-02
 0.81300003E+02 -0.18087E-03
 0.81349998E+02 -0.37424E-02
 0.81400002E+02 -0.66219E-02
 0.81450005E+02 -0.78248E-02
 0.81500000E+02 -0.67930E-02
 0.81550003E+02 -0.40567E-02
 0.81599998E+02 -0.21044E-02
 0.81650002E+02  0.34506E-03
 0.81700005E+02  0.42419E-02
 0.81750000E+02  0.61287E-02
 0.81800003E+02  0.76301E-02
 0.81849998E+02  0.78988E-02
 0.81900002E+02  0.83804E-02
 0.81950005E+02  0.87102E-02
 0.82000000E+02  0.90105E-02
 0.82050003E+02  0.89465E-02
 0.82099998E+02  0.80241E-02
 0.82150002E+02  0.90430E-02
 0.82200005E+02  0.10356E-01
 0.82250000E+02  0.11684E-01
 0.82300003E+02  0.13436E-01
 0.82349998E+02  0.15164E-01
 0.82400002E+02  0.15549E-01
 0.82450005E+02  0.12687E-01
 0.82500000E+02  0.90153E-02
 0.82550003E+02  0.70575E-02
 0.82599998E+02  0.62416E-02
 0.82650002E+02  0.63772E-02
 0.82700005E+02  0.74425E-02
 0.82750000E+02  0.72839E-02
 0.82800003E+02  0.50304E-02
 0.82849998E+02  0.24123E-02
 0.82900002E+02  0.15933E-03
 0.82950005E+02 -0.29068E-02
 0.83000000E+02 -0.68837E-02
 0.83050003E+02 -0.93434E-02
 0.83099998E+02 -0.94643E-02
 0.83150002E+02 -0.83853E-02
 0.83200005E+02 -0.53897E-02
 0.83250000E+02 -0.18397E-02
 0.83300003E+02  0.91624E-03
 0.83349998E+02  0.31049E-02
 0.83400002E+02  0.31720E-02
 0.83450005E+02  0.56559E-03
 0.83500000E+02 -0.32376E-02
 0.83550003E+02 -0.61750E-02
 0.83599998E+02 -0.80089E-02
 0.83650002E+02 -0.10077E-01
 0.83700005E+02 -0.12820E-01
 0.83750000E+02 -0.13963E-01
 0.83800003E+02 -0.14089E-01
 0.83849998E+02 -0.14068E-01
 0.83900002E+02 -0.11497E-01
 0.83950005E+02 -0.70204E-02
 0.84000000E+02 -0.37944E-02
 0.84050003E+02 -0.27355E-02
 0.84099998E+02 -0.20462E-02
 0.84150002E+02 -0.25087E-02
 0.84200005E+02 -0.43554E-02
 0.84250000E+02 -0.48536E-02
 0.84300003E+02 -0.41282E-02
 0.84349998E+02 -0.25654E-02
 0.84400002E+02 -0.17574E-02
 0.84450005E+02 -0.11153E-02
 0.84500000E+02 -0.72446E-04
 0.84550003E+02  0.20752E-02
 0.84599998E+02  0.51203E-02
 0.84650002E+02  0.72023E-02
 0.84700005E+02  0.92011E-02
 0.84750000E+02  0.10533E-01
 0.84800003E+02  0.11844E-01
 0.84849998E+02  0.12588E-01
 0.84900002E+02  0.12439E-01
 0.84950005E+02  0.11215E-01
 0.85000000E+02  0.78464E-02
 0.85050003E+02  0.29306E-02
 0.85099998E+02 -0.11318E-02
 0.85150002E+02 -0.15598E-02
 0.85200005E+02 -0.10049E-02
 0.85250000E+02 -0.21551E-02
 0.85300003E+02 -0.20046E-02
 0.85349998E+02 -0.33511E-03
 0.85400002E+02  0.24265E-02
 0.85450005E+02  0.50894E-02
 0.85500000E+02  0.65827E-02
 0.85550003E+02  0.69119E-02
 0.85599998E+02  0.48821E-02
 0.85650002E+02  0.36609E-02
 0.85700005E+02  0.47750E-02
 0.85750000E+02  0.49158E-02
 0.85800003E+02  0.43590E-02
 0.85849998E+02  0.45377E-02
 0.85900002E+02  0.52111E-02
 0.85950005E+02  0.74671E-02
 0.86000000E+02  0.91594E-02
 0.86050003E+02  0.92914E-02
 0.86099998E+02  0.83091E-02
 0.86150002E+02  0.61357E-02
 0.86200005E+02  0.35411E-02
 0.86250000E+02  0.85945E-03
 0.86300003E+02 -0.18440E-02
 0.86349998E+02 -0.54338E-02
 0.86400002E+02 -0.88185E-02
 0.86450005E+02 -0.13211E-01
 0.86500000E+02 -0.18466E-01
 0.86550003E+02 -0.21700E-01
 0.86599998E+02 -0.21791E-01
 0.86650002E+02 -0.19345E-01
 0.86700005E+02 -0.13767E-01
 0.86750000E+02 -0.65909E-02
 0.86800003E+02 -0.69750E-03
 0.86849998E+02  0.37359E-02
 0.86900002E+02  0.59661E-02
 0.86950005E+02  0.41947E-02
 0.87000000E+02  0.62658E-04
 0.87050003E+02 -0.22191E-02
 0.87099998E+02 -0.41038E-02
 0.87150002E+02 -0.58085E-02
 0.87200005E+02 -0.55122E-02
 0.87250000E+02 -0.40779E-02
 0.87300003E+02 -0.36880E-02
 0.87349998E+02 -0.22377E-02
 0.87400002E+02  0.15656E-02
 0.87450005E+02  0.45139E-02
 0.87500000E+02  0.45502E-02
 0.87550003E+02  0.27578E-02
 0.87599998E+02  0.51923E-03
 0.87650002E+02  0.61977E-03
 0.87700005E+02  0.28060E-02
 0.87750000E+02  0.38590E-02
 0.87800003E+02  0.33720E-02
 0.87849998E+02  0.18394E-02
 0.87900002E+02 -0.49511E-03
 0.87950005E+02 -0.40100E-02
 0.88000000E+02 -0.71180E-02
 0.88050003E+02 -0.97777E-02
 0.88099998E+02 -0.11105E-01
 0.88150002E+02 -0.10750E-01
 0.88200005E+02 -0.96854E-02
 0.88250000E+02 -0.91184E-02
 0.88300003E+02 -0.81665E-02
 0.88349998E+02 -0.48475E-02
 0.88400002E+02 -0.17789E-02
 0.88450005E+02  0.19522E-03
 0.88500000E+02  0.93036E-03
 0.88550003E+02  0.12298E-02
 0.88599998E+02  0.30145E-02
 0.88650002E+02  0.56165E-02
 0.88700005E+02  0.72500E-02
 0.88750000E+02  0.77413E-02
 0.88800003E+02  0.92800E-02
 0.88849998E+02  0.11295E-01
 0.88900002E+02  0.12831E-01
 0.88950005E+02  0.14495E-01
 0.89000000E+02  0.15765E-01
 0.89050003E+02  0.16671E-01
 0.89099998E+02  0.15527E-01
 0.89150002E+02  0.12155E-01
 0.89200005E+02  0.81601E-02
 0.89250000E+02  0.34439E-02
 0.89300003E+02 -0.18291E-03
 0.89349998E+02 -0.15122E-02
 0.89400002E+02 -0.29680E-02
 0.89450005E+02 -0.42825E-02
 0.89500000E+02 -0.29910E-02
 0.89550003E+02 -0.16443E-03
 0.89599998E+02  0.74302E-03
 0.89650002E+02 -0.14548E-02
 0.89700005E+02 -0.42878E-02
 0.89750000E+02 -0.82168E-02
 0.89800003E+02 -0.12859E-01
 0.89849998E+02 -0.16554E-01
 0.89900002E+02 -0.17612E-01
 0.89950005E+02 -0.15628E-01
 0.90000000E+02 -0.11502E-01
 0.90050003E+02 -0.63712E-02
 0.90099998E+02 -0.15457E-02
 0.90150002E+02  0.27669E-02
 0.90200005E+02  0.49484E-02
 0.90250000E+02  0.63255E-02
 0.90300003E+02  0.74399E-02
 0.90349998E+02  0.85539E-02
 0.90400002E+02  0.78951E-02
 0.90450005E+02  0.49773E-02
 0.90500000E+02  0.21540E-02
 0.90550003E+02 -0.81522E-03
 0.90599998E+02 -0.26772E-02
 0.90650002E+02 -0.29787E-02
 0.90700005E+02 -0.39841E-02
 0.90750000E+02 -0.45640E-02
 0.90800003E+02 -0.43676E-02
 0.90849998E+02 -0.28842E-02
 0.90900002E+02  0.22972E-03
 0.90950005E+02  0.14096E-02
 0.91000000E+02  0.18074E-02
 0.91050003E+02  0.12720E-02
 0.91099998E+02  0.15813E-02
 0.91150002E+02  0.33334E-02
 0.91200005E+02  0.45867E-02
 0.91250000E+02  0.52382E-02
 0.91300003E+02  0.30871E-02
 0.91349998E+02  0.67862E-03
 0.91400002E+02 -0.12067E-02
 0.91450005E+02 -0.16740E-02
 0.91500000E+02 -0.49089E-03
 0.91550003E+02  0.37507E-03
 0.91599998E+02  0.19952E-02
 0.91650002E+02  0.27361E-02
 0.91700005E+02  0.36696E-02
 0.91750000E+02  0.58078E-02
 0.91800003E+02  0.80779E-02
 0.91849998E+02  0.96906E-02
 0.91900002E+02  0.10251E-01
 0.91950005E+02  0.95248E-02
 0.92000000E+02  0.68238E-02
 0.92050003E+02  0.28204E-02
 0.92099998E+02 -0.68025E-03
 0.92150002E+02 -0.34759E-02
 0.92200005E+02 -0.65172E-02
 0.92250000E+02 -0.98294E-02
 0.92300003E+02 -0.12046E-01
 0.92349998E+02 -0.11985E-01
 0.92400002E+02 -0.10274E-01
 0.92450005E+02 -0.77791E-02
 0.92500000E+02 -0.53849E-02
 0.92550003E+02 -0.27974E-02
 0.92599998E+02 -0.42493E-03
 0.92650002E+02  0.27783E-02
 0.92700005E+02  0.55809E-02
 0.92750000E+02  0.65220E-02
 0.92800003E+02  0.47560E-02
 0.92849998E+02  0.11678E-02
 0.92900002E+02 -0.23195E-02
 0.92950005E+02 -0.42284E-02
 0.93000000E+02 -0.40397E-02
 0.93050003E+02 -0.44499E-02
 0.93099998E+02 -0.43006E-02
 0.93150002E+02 -0.19765E-02
 0.93200005E+02  0.16410E-02
 0.93250000E+02  0.46285E-02
 0.93300003E+02  0.67600E-02
 0.93349998E+02  0.81162E-02
 0.93400002E+02  0.73164E-02
 0.93450005E+02  0.34953E-02
 0.93500000E+02 -0.13442E-05
 0.93550003E+02 -0.40753E-03
 0.93599998E+02  0.18107E-02
 0.93650002E+02  0.51413E-02
 0.93700005E+02  0.75491E-02
 0.93750000E+02  0.81199E-02
 0.93800003E+02  0.68177E-02
 0.93849998E+02  0.46067E-02
 0.93900002E+02  0.30455E-02
 0.93950005E+02  0.40257E-02
 0.94000000E+02  0.49741E-02
 0.94050003E+02  0.41461E-02
 0.94099998E+02  0.24009E-02
 0.94150002E+02  0.20182E-02
 0.94200005E+02  0.29369E-02
 0.94250000E+02  0.24980E-02
 0.94300003E+02  0.20462E-02
 0.94349998E+02  0.14364E-02
 0.94400002E+02  0.62784E-03
 0.94450005E+02 -0.74930E-03
 0.94500000E+02 -0.23848E-02
 0.94550003E+02 -0.47884E-02
 0.94599998E+02 -0.88385E-02
 0.94650002E+02 -0.11767E-01
 0.94700005E+02 -0.14139E-01
 0.94750000E+02 -0.15665E-01
 0.94800003E+02 -0.15834E-01
 0.94849998E+02 -0.14718E-01
 0.94900002E+02 -0.11526E-01
 0.94950005E+02 -0.66463E-02
 0.95000000E+02 -0.46807E-03
 0.95050003E+02  0.38388E-02
 0.95099998E+02  0.69688E-02
 0.95150002E+02  0.86876E-02
 0.95200005E+02  0.78178E-02
 0.95250000E+02  0.65225E-02
 0.95300003E+02  0.49323E-02
 0.95349998E+02  0.28395E-02
 0.95400002E+02  0.72252E-03
 0.95450005E+02 -0.10192E-02
 0.95500000E+02 -0.37114E-02
 0.95550003E+02 -0.53742E-02
 0.95599998E+02 -0.46705E-02
 0.95650002E+02 -0.33730E-02
 0.95700005E+02 -0.20664E-02
 0.95750000E+02 -0.40756E-03
 0.95800003E+02  0.22033E-02
 0.95849998E+02  0.51886E-02
 0.95900002E+02  0.70168E-02
 0.95950005E+02  0.68427E-02
 0.96000000E+02  0.44316E-02
 0.96050003E+02  0.16025E-02
 0.96099998E+02 -0.25478E-03
 0.96150002E+02 -0.24861E-02
 0.96200005E+02 -0.42459E-02
 0.96250000E+02 -0.46393E-02
 0.96300003E+02 -0.43031E-02
 0.96349998E+02 -0.35696E-02
 0.96400002E+02 -0.28385E-02
 0.96450005E+02 -0.22126E-02
 0.96500000E+02 -0.11893E-02
 0.96550003E+02 -0.33658E-03
 0.96599998E+02 -0.31698E-03
 0.96650002E+02 -0.91433E-03
 0.96700005E+02 -0.26785E-02
 0.96750000E+02 -0.50719E-02
 0.96800003E+02 -0.68569E-02
 0.96849998E+02 -0.74519E-02
 0.96900002E+02 -0.59822E-02
 0.96950005E+02 -0.43628E-02
 0.97000000E+02 -0.44174E-02
 0.97050003E+02 -0.47979E-02
 0.97099998E+02 -0.53844E-02
 0.97150002E+02 -0.68117E-02
 0.97200005E+02 -0.76097E-02
 0.97250000E+02 -0.72951E-02
 0.97300003E+02 -0.73959E-02
 0.97349998E+02 -0.80986E-02
 0.97400002E+02 -0.98288E-02
 0.97450005E+02 -0.11163E-01
 0.97500000E+02 -0.11420E-01
 0.97550003E+02 -0.10304E-01
 0.97599998E+02 -0.68393E-02
 0.97650002E+02 -0.27742E-02
 0.97700005E+02  0.10143E-02
 0.97750000E+02  0.29034E-02
 0.97800003E+02  0.34204E-02
 0.97849998E+02  0.30679E-02
 0.97900002E+02  0.21701E-02
 0.97950005E+02  0.14452E-02
 0.98000000E+02  0.65605E-03
 0.98050003E+02  0.95666E-03
 0.98099998E+02  0.26083E-02
 0.98150002E+02  0.49039E-02
 0.98200005E+02  0.71645E-02
 0.98250000E+02  0.84781E-02
 0.98300003E+02  0.90572E-02
 0.98349998E+02  0.10412E-01
 0.98400002E+02  0.11217E-01
 0.98450005E+02  0.10610E-01
 0.98500000E+02  0.92122E-02
 0.98550003E+02  0.84137E-02
 0.98599998E+02  0.83847E-02
 0.98650002E+02  0.77119E-02
 0.98700005E+02  0.61689E-02
 0.98750000E+02  0.46727E-02
 0.98800003E+02  0.39543E-02
 0.98849998E+02  0.37552E-02
 0.98900002E+02  0.35849E-02
 0.98950005E+02  0.28118E-02
 0.99000000E+02  0.17288E-02
 0.99050003E+02  0.22706E-03
 0.99099998E+02 -0.53981E-03
 0.99150002E+02  0.32327E-03
 0.99200005E+02  0.16203E-02
 0.99250000E+02  0.24374E-02
 0.99300003E+02  0.20445E-02
 0.99349998E+02  0.57826E-03
 0.99400002E+02 -0.10013E-02
 0.99450005E+02 -0.23365E-02
 0.99500000E+02 -0.31164E-02
 0.99550003E+02 -0.28981E-02
 0.99599998E+02 -0.17002E-02
 0.99650002E+02  0.12576E-03
 0.99700005E+02  0.23137E-02
 0.99750000E+02  0.42334E-02
 0.99800003E+02  0.61325E-02
 0.99849998E+02  0.82838E-02
 0.99900002E+02  0.92434E-02
 0.99950005E+02  0.91197E-02
 0.10000000E+03  0.81248E-02
 0.10005000E+03  0.53217E-02
 0.10010000E+03  0.22309E-02
 0.10015000E+03  0.83026E-04
 0.10020000E+03 -0.80553E-03
 0.10025000E+03  0.40137E-03
 0.10030000E+03  0.24398E-02
 0.10035000E+03  0.37952E-02
 0.10040000E+03  0.40667E-02
 0.10045000E+03  0.36518E-02
 0.10050000E+03  0.21742E-02
 0.10055000E+03 -0.25512E-03
 0.10060000E+03 -0.20490E-02
 0.10065000E+03 -0.27910E-02
 0.10070000E+03 -0.31422E-02
 0.10075000E+03 -0.32719E-02
 0.10080000E+03 -0.30956E-02
 0.10085000E+03 -0.34270E-02
 0.10090000E+03 -0.31304E-02
 0.10095000E+03 -0.22449E-02
 0.10100000E+03 -0.31821E-02
 0.10105000E+03 -0.53253E-02
 0.10110000E+03 -0.72060E-02
 0.10115000E+03 -0.83895E-02
 0.10120000E+03 -0.93841E-02
 0.10125000E+03 -0.95804E-02
 0.10130000E+03 -0.87026E-02
 0.10135000E+03 -0.69027E-02
 0.10140000E+03 -0.37246E-02
 0.10145000E+03 -0.33776E-03
 0.10150000E+03  0.14813E-02
 0.10155000E+03  0.12669E-02
 0.10160000E+03 -0.26044E-03
 0.10165000E+03 -0.29892E-02
 0.10170000E+03 -0.55916E-02
 0.10175000E+03 -0.76191E-02
 0.10180000E+03 -0.88555E-02
 0.10185000E+03 -0.90064E-02
 0.10190000E+03 -0.85505E-02
 0.10195000E+03 -0.84304E-02
 0.10200000E+03 -0.84826E-02
 0.10205000E+03 -0.78257E-02
 0.10210000E+03 -0.66960E-02
 0.10215000E+03 -0.48618E-02
 0.10220000E+03 -0.34649E-02
 0.10225000E+03 -0.22207E-02
 0.10230000E+03 -0.15031E-02
 0.10235000E+03 -0.10602E-02
 0.10240000E+03  0.63310E-03
 0.10245000E+03  0.26698E-02
 0.10250000E+03  0.49121E-02
 0.10255000E+03  0.67730E-02
 0.10260000E+03  0.80086E-02
 0.10265000E+03  0.87361E-02
 0.10270000E+03  0.84752E-02
 0.10275000E+03  0.72614E-02
 0.10280000E+03  0.56781E-02
 0.10285000E+03  0.49453E-02
 0.10290000E+03  0.45702E-02
 0.10295000E+03  0.44231E-02
 0.10300000E+03  0.54143E-02
 0.10305000E+03  0.64943E-02
 0.10310000E+03  0.74835E-02
 0.10315000E+03  0.91969E-02
 0.10320000E+03  0.11244E-01
 0.10325000E+03  0.12698E-01
 0.10330000E+03  0.13235E-01
 0.10335000E+03  0.13255E-01
 0.10340000E+03  0.11817E-01
 0.10345000E+03  0.91609E-02
 0.10350000E+03  0.64678E-02
 0.10355000E+03  0.32295E-02
 0.10360000E+03  0.39216E-03
 0.10365000E+03 -0.72836E-03
 0.10370000E+03 -0.32101E-03
 0.10375000E+03  0.91771E-03
 0.10380000E+03  0.21338E-02
 0.10385000E+03  0.30989E-02
 0.10390000E+03  0.26362E-02
 0.10395000E+03  0.12772E-02
 0.10400000E+03  0.50927E-03
 0.10405000E+03 -0.21871E-04
 0.10410000E+03 -0.10956E-03
 0.10415000E+03 -0.61763E-03
 0.10420000E+03 -0.18305E-02
 0.10425000E+03 -0.23306E-02
 0.10430000E+03 -0.12933E-02
 0.10435000E+03  0.21013E-03
 0.10440000E+03  0.13435E-02
 0.10445000E+03  0.18245E-02
 0.10450000E+03  0.10214E-02
 0.10455000E+03 -0.71840E-03
 0.10460000E+03 -0.29811E-02
 0.10465000E+03 -0.51391E-02
 0.10470000E+03 -0.65171E-02
 0.10475000E+03 -0.72376E-02
 0.10480000E+03 -0.76858E-02
 0.10485000E+03 -0.77907E-02
 0.10490000E+03 -0.76956E-02
 0.10495000E+03 -0.69587E-02
 0.10500000E+03 -0.50301E-02
 0.10505000E+03 -0.31038E-02
 0.10510000E+03 -0.22664E-02
 0.10515000E+03 -0.25603E-02
 0.10520000E+03 -0.37793E-02
 0.10525000E+03 -0.53657E-02
 0.10530000E+03 -0.64446E-02
 0.10535000E+03 -0.71223E-02
 0.10540000E+03 -0.77265E-02
 0.10545000E+03 -0.79246E-02
 0.10550000E+03 -0.76069E-02
 0.10555000E+03 -0.65939E-02
 0.10560000E+03 -0.48952E-02
 0.10565000E+03 -0.24870E-02
 0.10570000E+03 -0.71712E-03
 0.10575000E+03  0.54246E-03
 0.10580000E+03  0.19262E-02
 0.10585000E+03  0.28118E-02
 0.10590000E+03  0.34533E-02
 0.10595000E+03  0.38752E-02
 0.10600000E+03  0.40730E-02
 0.10605000E+03  0.35076E-02
 0.10610000E+03  0.37704E-02
 0.10615000E+03  0.40515E-02
 0.10620000E+03  0.29699E-02
 0.10625000E+03  0.15027E-02
 0.10630000E+03 -0.38100E-04
 0.10635000E+03 -0.53195E-03
 0.10640000E+03 -0.31927E-03
 0.10645000E+03  0.21769E-03
 0.10650000E+03  0.82727E-03
 0.10655000E+03  0.19833E-02
 0.10660000E+03  0.26797E-02
 0.10665000E+03  0.26241E-02
 0.10670000E+03  0.24868E-02
 0.10675000E+03  0.16092E-02
 0.10680000E+03  0.41760E-03
 0.10685000E+03 -0.93744E-03
 0.10690000E+03 -0.14952E-02
 0.10695000E+03 -0.11476E-02
 0.10700000E+03  0.13072E-03
 0.10705000E+03  0.19322E-02
 0.10710000E+03  0.27027E-02
 0.10715000E+03  0.19880E-02
 0.10720000E+03  0.59328E-03
 0.10725000E+03 -0.88297E-03
 0.10730000E+03 -0.26136E-02
 0.10735000E+03 -0.36650E-02
 0.10740000E+03 -0.37013E-02
 0.10745000E+03 -0.34228E-02
 0.10750000E+03 -0.34697E-02
 0.10755000E+03 -0.38355E-02
 0.10760000E+03 -0.41103E-02
 0.10765000E+03 -0.45589E-02
 0.10770000E+03 -0.52491E-02
 0.10775000E+03 -0.55339E-02
 0.10780000E+03 -0.50948E-02
 0.10785000E+03 -0.44570E-02
 0.10790000E+03 -0.39926E-02
 0.10795000E+03 -0.40770E-02
 0.10800000E+03 -0.41601E-02
 0.10805000E+03 -0.41510E-02
 0.10810000E+03 -0.36153E-02
 0.10815000E+03 -0.24114E-02
 0.10820000E+03 -0.65940E-03
 0.10825000E+03  0.14081E-02
 0.10830000E+03  0.28937E-02
 0.10835000E+03  0.41256E-02
 0.10840000E+03  0.40390E-02
 0.10845000E+03  0.38982E-02
 0.10850000E+03  0.36509E-02
 0.10855000E+03  0.25822E-02
 0.10860000E+03  0.10324E-02
 0.10865000E+03 -0.49462E-03
 0.10870000E+03 -0.16919E-02
 0.10875000E+03 -0.33386E-02
 0.10880000E+03 -0.49639E-02
 0.10885000E+03 -0.62313E-02
 0.10890000E+03 -0.65390E-02
 0.10895000E+03 -0.64786E-02
 0.10900000E+03 -0.60412E-02
 0.10905000E+03 -0.53251E-02
 0.10910000E+03 -0.38338E-02
 0.10915000E+03 -0.19764E-02
 0.10920000E+03 -0.12864E-03
 0.10925000E+03  0.15077E-02
 0.10930000E+03  0.20218E-02
 0.10935000E+03  0.10697E-02
 0.10940000E+03 -0.91876E-03
 0.10945000E+03 -0.29192E-02
 0.10950000E+03 -0.47682E-02
 0.10955000E+03 -0.62845E-02
 0.10960000E+03 -0.70357E-02
 0.10965000E+03 -0.62096E-02
 0.10970000E+03 -0.39970E-02
 0.10975000E+03 -0.76761E-03
 0.10980000E+03  0.28654E-02
 0.10985000E+03  0.65069E-02
 0.10990000E+03  0.98256E-02
 0.10995000E+03  0.11563E-01
 0.11000000E+03  0.11675E-01
 0.11005000E+03  0.11019E-01
 0.11010000E+03  0.10027E-01
 0.11015000E+03  0.89747E-02
 0.11020000E+03  0.83352E-02
 0.11025000E+03  0.77795E-02
 0.11030000E+03  0.67343E-02
 0.11035000E+03  0.54966E-02
 0.11040000E+03  0.36488E-02
 0.11045000E+03  0.18053E-02
 0.11050000E+03  0.33642E-03
 0.11055000E+03 -0.53354E-03
 0.11060000E+03 -0.24388E-03
 0.11065000E+03  0.32247E-03
 0.11070000E+03  0.10156E-02
 0.11075000E+03  0.11046E-02
 0.11080000E+03  0.56466E-03
 0.11085000E+03 -0.79448E-04
 0.11090000E+03 -0.52075E-03
 0.11095000E+03 -0.13379E-02
 0.11100000E+03 -0.22231E-02
 0.11105000E+03 -0.25529E-02
 0.11110000E+03 -0.27177E-02
 0.11115000E+03 -0.14881E-02
 0.11120000E+03  0.11491E-02
 0.11125000E+03  0.42308E-02
 0.11130000E+03  0.67215E-02
 0.11135000E+03  0.82259E-02
 0.11140000E+03  0.86677E-02
 0.11145000E+03  0.78577E-02
 0.11150000E+03  0.61834E-02
 0.11155000E+03  0.48955E-02
 0.11160000E+03  0.40186E-02
 0.11165000E+03  0.38304E-02
 0.11170000E+03  0.37549E-02
 0.11175000E+03  0.26640E-02
 0.11180000E+03  0.11074E-02
 0.11185000E+03 -0.51078E-03
 0.11190000E+03 -0.15940E-02
 0.11195000E+03 -0.22179E-02
 0.11200000E+03 -0.24579E-02
 0.11205000E+03 -0.27181E-02
 0.11210000E+03 -0.31227E-02
 0.11215000E+03 -0.31689E-02
 0.11220000E+03 -0.32747E-02
 0.11225000E+03 -0.35953E-02
 0.11230000E+03 -0.35847E-02
 0.11235000E+03 -0.33552E-02
 0.11240000E+03 -0.26614E-02
 0.11245000E+03 -0.17757E-02
 0.11250000E+03 -0.10166E-02
 0.11255000E+03 -0.69886E-03
 0.11260000E+03 -0.76978E-03
 0.11265000E+03 -0.11069E-02
 0.11270000E+03 -0.12745E-02
 0.11275000E+03 -0.88591E-03
 0.11280000E+03 -0.47211E-03
 0.11285000E+03  0.19046E-04
 0.11290000E+03  0.10372E-02
 0.11295000E+03  0.23803E-02
 0.11300000E+03  0.33058E-02
 0.11305000E+03  0.40366E-02
 0.11310000E+03  0.49479E-02
 0.11315000E+03  0.53742E-02
 0.11320000E+03  0.49295E-02
 0.11325000E+03  0.42975E-02
 0.11330000E+03  0.35462E-02
 0.11335000E+03  0.27546E-02
 0.11340000E+03  0.21116E-02
 0.11345000E+03  0.17615E-02
 0.11350000E+03  0.16618E-02
 0.11355000E+03  0.19507E-02
 0.11360000E+03  0.29730E-02
 0.11365000E+03  0.41101E-02
 0.11370000E+03  0.49233E-02
 0.11375000E+03  0.51029E-02
 0.11380000E+03  0.45756E-02
 0.11385000E+03  0.32351E-02
 0.11390000E+03  0.13362E-02
 0.11395000E+03 -0.94323E-04
 0.11400000E+03 -0.14363E-02
 0.11405000E+03 -0.30934E-02
 0.11410000E+03 -0.47609E-02
 0.11415000E+03 -0.52734E-02
 0.11420000E+03 -0.47999E-02
 0.11425000E+03 -0.38736E-02
 0.11430000E+03 -0.28108E-02
 0.11435000E+03 -0.26387E-02
 0.11440000E+03 -0.29154E-02
 0.11445000E+03 -0.28952E-02
 0.11450000E+03 -0.24980E-02
 0.11455000E+03 -0.25041E-02
 0.11460000E+03 -0.32833E-02
 0.11465000E+03 -0.39245E-02
 0.11470000E+03 -0.45708E-02
 0.11475000E+03 -0.54162E-02
 0.11480000E+03 -0.63664E-02
 0.11485000E+03 -0.74228E-02
 0.11490000E+03 -0.83000E-02
 0.11495000E+03 -0.89033E-02
 0.11500000E+03 -0.86327E-02
 0.11505000E+03 -0.83255E-02
 0.11510000E+03 -0.72778E-02
 0.11515000E+03 -0.57274E-02
 0.11520000E+03 -0.47446E-02
 0.11525000E+03 -0.39334E-02
 0.11530000E+03 -0.39453E-02
 0.11535000E+03 -0.42950E-02
 0.11540000E+03 -0.49433E-02
 0.11545000E+03 -0.54956E-02
 0.11550000E+03 -0.55774E-02
 0.11555000E+03 -0.59819E-02
 0.11560000E+03 -0.65380E-02
 0.11565000E+03 -0.68706E-02
 0.11570000E+03 -0.67860E-02
 0.11575000E+03 -0.57282E-02
 0.11580000E+03 -0.39054E-02
 0.11585000E+03 -0.18988E-02
 0.11590000E+03  0.19125E-03
 0.11595000E+03  0.18374E-02
 0.11600000E+03  0.26379E-02
 0.11605000E+03  0.33466E-02
 0.11610000E+03  0.43353E-02
 0.11615000E+03  0.54517E-02
 0.11620000E+03  0.68671E-02
 0.11625000E+03  0.83849E-02
 0.11630000E+03  0.93928E-02
 0.11635000E+03  0.95785E-02
 0.11640000E+03  0.92304E-02
 0.11645000E+03  0.81292E-02
 0.11650000E+03  0.65708E-02
 0.11655000E+03  0.43557E-02
 0.11660000E+03  0.18735E-02
 0.11665000E+03  0.27150E-03
 0.11670000E+03 -0.77950E-03
 0.11675000E+03 -0.17025E-02
 0.11680000E+03 -0.26686E-02
 0.11685000E+03 -0.33687E-02
 0.11690000E+03 -0.35487E-02
 0.11695000E+03 -0.35166E-02
 0.11700000E+03 -0.34659E-02
 0.11705000E+03 -0.31422E-02
 0.11710000E+03 -0.24688E-02
 0.11715000E+03 -0.17320E-02
 0.11720000E+03 -0.12180E-02
 0.11725000E+03 -0.54350E-03
 0.11730000E+03  0.67465E-03
 0.11735000E+03  0.19927E-02
 0.11740000E+03  0.34852E-02
 0.11745000E+03  0.48577E-02
 0.11750000E+03  0.58342E-02
 0.11755000E+03  0.66077E-02
 0.11760000E+03  0.68907E-02
 0.11765000E+03  0.66698E-02
 0.11770000E+03  0.60717E-02
 0.11775000E+03  0.51451E-02
 0.11780000E+03  0.41292E-02
 0.11785000E+03  0.35534E-02
 0.11790000E+03  0.30102E-02
 0.11795000E+03  0.20810E-02
 0.11800000E+03  0.12736E-02
 0.11805000E+03  0.56983E-03
 0.11810000E+03 -0.44269E-03
 0.11815000E+03 -0.17354E-02
 0.11820000E+03 -0.28038E-02
 0.11825000E+03 -0.39069E-02
 0.11830000E+03 -0.48131E-02
 0.11835000E+03 -0.53900E-02
 0.11840000E+03 -0.62905E-02
 0.11845000E+03 -0.72911E-02
 0.11850000E+03 -0.82477E-02
 0.11855000E+03 -0.91061E-02
 0.11860000E+03 -0.95165E-02
 0.11865000E+03 -0.90826E-02
 0.11870000E+03 -0.81696E-02
 0.11875000E+03 -0.69506E-02
 0.11880000E+03 -0.57201E-02
 0.11885000E+03 -0.51742E-02
 0.11890000E+03 -0.51379E-02
 0.11895000E+03 -0.52155E-02
 0.11900000E+03 -0.52332E-02
 0.11905000E+03 -0.54099E-02
 0.11910000E+03 -0.52717E-02
 0.11915000E+03 -0.43864E-02
 0.11920000E+03 -0.27026E-02
 0.11925000E+03 -0.10586E-02
 0.11930000E+03  0.27901E-03
 0.11935000E+03  0.57144E-03
 0.11940000E+03 -0.11402E-04
 0.11945000E+03 -0.35484E-03
 0.11950000E+03 -0.24658E-03
 0.11955000E+03  0.29703E-03
 0.11960000E+03  0.80308E-03
 0.11965000E+03  0.14268E-02
 0.11970000E+03  0.14463E-02
 0.11975000E+03  0.18521E-02
 0.11980000E+03  0.25368E-02
 0.11985000E+03  0.41829E-02
 0.11990000E+03  0.49452E-02
 0.11995000E+03  0.68020E-02
 0.12000000E+03  0.39297E-02
