 0.00000000E+00  0.44293E-03
 0.50000001E-01  0.76126E-03
 0.10000000E+00  0.55005E-03
 0.15000001E+00  0.56150E-03
 0.20000000E+00  0.44257E-03
 0.25000000E+00  0.40566E-03
 0.30000001E+00  0.23951E-03
 0.34999999E+00  0.20453E-03
 0.40000001E+00  0.10985E-03
 0.45000002E+00  0.42676E-04
 0.50000000E+00 -0.69004E-04
 0.55000001E+00 -0.20373E-03
 0.60000002E+00 -0.38882E-03
 0.65000004E+00 -0.58200E-03
 0.69999999E+00 -0.75845E-03
 0.75000000E+00 -0.94256E-03
 0.80000001E+00 -0.10974E-02
 0.85000002E+00 -0.12721E-02
 0.90000004E+00 -0.14229E-02
 0.94999999E+00 -0.16172E-02
 0.10000000E+01 -0.16944E-02
 0.10500001E+01 -0.17835E-02
 0.11000000E+01 -0.18585E-02
 0.11500000E+01 -0.18289E-02
 0.12000000E+01 -0.18272E-02
 0.12500000E+01 -0.17942E-02
 0.13000001E+01 -0.17599E-02
 0.13500000E+01 -0.17161E-02
 0.14000000E+01 -0.16720E-02
 0.14500000E+01 -0.16233E-02
 0.15000000E+01 -0.15317E-02
 0.15500001E+01 -0.14619E-02
 0.16000000E+01 -0.13978E-02
 0.16500000E+01 -0.12705E-02
 0.17000000E+01 -0.11366E-02
 0.17500000E+01 -0.97480E-03
 0.18000001E+01 -0.83237E-03
 0.18500000E+01 -0.74741E-03
 0.19000000E+01 -0.61634E-03
 0.19500000E+01 -0.45188E-03
 0.20000000E+01 -0.28482E-03
 0.20500000E+01 -0.16798E-03
 0.21000001E+01 -0.80526E-04
 0.21500001E+01 -0.30574E-04
 0.22000000E+01  0.47756E-04
 0.22500000E+01  0.11283E-03
 0.23000000E+01  0.14393E-03
 0.23500001E+01  0.22830E-03
 0.24000001E+01  0.27143E-03
 0.24500000E+01  0.29876E-03
 0.25000000E+01  0.38211E-03
 0.25500000E+01  0.46223E-03
 0.26000001E+01  0.56850E-03
 0.26500001E+01  0.58250E-03
 0.27000000E+01  0.55629E-03
 0.27500000E+01  0.58982E-03
 0.28000000E+01  0.64837E-03
 0.28500001E+01  0.70396E-03
 0.29000001E+01  0.68347E-03
 0.29500000E+01  0.69052E-03
 0.30000000E+01  0.68509E-03
 0.30500000E+01  0.68368E-03
 0.31000001E+01  0.69121E-03
 0.31500001E+01  0.67733E-03
 0.32000000E+01  0.69439E-03
 0.32500000E+01  0.64720E-03
 0.33000000E+01  0.61339E-03
 0.33500001E+01  0.62193E-03
 0.34000001E+01  0.60552E-03
 0.34500000E+01  0.55424E-03
 0.35000000E+01  0.48308E-03
 0.35500000E+01  0.43444E-03
 0.36000001E+01  0.40479E-03
 0.36500001E+01  0.42031E-03
 0.37000000E+01  0.38945E-03
 0.37500000E+01  0.37493E-03
 0.38000000E+01  0.38367E-03
 0.38500001E+01  0.34006E-03
 0.39000001E+01  0.28436E-03
 0.39500000E+01  0.22210E-03
 0.40000000E+01  0.14079E-03
 0.40500002E+01  0.62964E-04
 0.40999999E+01 -0.38245E-04
 0.41500001E+01 -0.13820E-03
 0.42000003E+01 -0.12334E-03
 0.42500000E+01 -0.13968E-03
 0.43000002E+01 -0.16478E-03
 0.43499999E+01 -0.17841E-03
 0.44000001E+01 -0.16961E-03
 0.44500003E+01 -0.15665E-03
 0.45000000E+01 -0.19965E-03
 0.45500002E+01 -0.24241E-03
 0.45999999E+01 -0.26632E-03
 0.46500001E+01 -0.26733E-03
 0.47000003E+01 -0.33354E-03
 0.47500000E+01 -0.41191E-03
 0.48000002E+01 -0.48307E-03
 0.48499999E+01 -0.54078E-03
 0.49000001E+01 -0.61660E-03
 0.49500003E+01 -0.67017E-03
 0.50000000E+01 -0.65996E-03
 0.50500002E+01 -0.72609E-03
 0.50999999E+01 -0.77696E-03
 0.51500001E+01 -0.79610E-03
 0.52000003E+01 -0.74711E-03
 0.52500000E+01 -0.68864E-03
 0.53000002E+01 -0.64912E-03
 0.53499999E+01 -0.56743E-03
 0.54000001E+01 -0.55259E-03
 0.54500003E+01 -0.47252E-03
 0.55000000E+01 -0.38366E-03
 0.55500002E+01 -0.30252E-03
 0.55999999E+01 -0.28293E-03
 0.56500001E+01 -0.28230E-03
 0.57000003E+01 -0.22260E-03
 0.57500000E+01 -0.23627E-03
 0.58000002E+01 -0.16720E-03
 0.58499999E+01 -0.98493E-04
 0.59000001E+01 -0.92655E-04
 0.59500003E+01 -0.10268E-03
 0.60000000E+01 -0.12345E-03
 0.60500002E+01 -0.63322E-04
 0.60999999E+01 -0.23362E-04
 0.61500001E+01 -0.37298E-04
 0.62000003E+01 -0.52299E-05
 0.62500000E+01 -0.24100E-04
 0.63000002E+01 -0.10705E-04
 0.63499999E+01  0.32850E-04
 0.64000001E+01  0.42389E-04
 0.64500003E+01 -0.34142E-05
 0.65000000E+01 -0.53985E-04
 0.65500002E+01 -0.88184E-04
 0.65999999E+01 -0.13136E-03
 0.66500001E+01 -0.11258E-03
 0.67000003E+01 -0.11364E-03
 0.67500000E+01 -0.11346E-03
 0.68000002E+01 -0.10505E-03
 0.68499999E+01 -0.91304E-04
 0.69000001E+01 -0.86683E-04
 0.69500003E+01 -0.12930E-03
 0.70000000E+01 -0.95843E-04
 0.70500002E+01 -0.72227E-04
 0.70999999E+01 -0.12042E-03
 0.71500001E+01 -0.15013E-03
 0.72000003E+01 -0.10169E-03
 0.72500000E+01 -0.23523E-05
 0.73000002E+01  0.25755E-04
 0.73499999E+01  0.41886E-04
 0.74000001E+01  0.87796E-04
 0.74500003E+01  0.21811E-03
 0.75000000E+01  0.29683E-03
 0.75500002E+01  0.29906E-03
 0.75999999E+01  0.37356E-03
 0.76500001E+01  0.44488E-03
 0.77000003E+01  0.51139E-03
 0.77500000E+01  0.53764E-03
 0.78000002E+01  0.51631E-03
 0.78499999E+01  0.51218E-03
 0.79000001E+01  0.44650E-03
 0.79500003E+01  0.37629E-03
 0.80000000E+01  0.28151E-03
 0.80500002E+01  0.24657E-03
 0.81000004E+01  0.18711E-03
 0.81500006E+01  0.79285E-04
 0.81999998E+01 -0.41501E-04
 0.82500000E+01 -0.18069E-03
 0.83000002E+01 -0.24957E-03
 0.83500004E+01 -0.38516E-03
 0.84000006E+01 -0.49513E-03
 0.84499998E+01 -0.54986E-03
 0.85000000E+01 -0.61666E-03
 0.85500002E+01 -0.70250E-03
 0.86000004E+01 -0.80270E-03
 0.86500006E+01 -0.85157E-03
 0.86999998E+01 -0.84430E-03
 0.87500000E+01 -0.89581E-03
 0.88000002E+01 -0.96057E-03
 0.88500004E+01 -0.10375E-02
 0.89000006E+01 -0.10208E-02
 0.89499998E+01 -0.10145E-02
 0.90000000E+01 -0.99755E-03
 0.90500002E+01 -0.94700E-03
 0.91000004E+01 -0.94553E-03
 0.91500006E+01 -0.93942E-03
 0.91999998E+01 -0.92016E-03
 0.92500000E+01 -0.85191E-03
 0.93000002E+01 -0.80216E-03
 0.93500004E+01 -0.71787E-03
 0.94000006E+01 -0.67468E-03
 0.94499998E+01 -0.56127E-03
 0.95000000E+01 -0.45559E-03
 0.95500002E+01 -0.37657E-03
 0.96000004E+01 -0.26579E-03
 0.96500006E+01 -0.15770E-03
 0.96999998E+01 -0.37981E-04
 0.97500000E+01  0.36088E-04
 0.98000002E+01  0.11046E-03
 0.98500004E+01  0.21495E-03
 0.99000006E+01  0.27462E-03
 0.99499998E+01  0.26412E-03
 0.10000000E+02  0.23267E-03
 0.10050000E+02  0.17253E-03
 0.10100000E+02  0.97794E-04
 0.10150001E+02  0.63434E-04
 0.10200000E+02 -0.38199E-04
 0.10250000E+02 -0.11670E-03
 0.10300000E+02 -0.19973E-03
 0.10350000E+02 -0.31617E-03
 0.10400001E+02 -0.34729E-03
 0.10450000E+02 -0.40718E-03
 0.10500000E+02 -0.41951E-03
 0.10550000E+02 -0.43656E-03
 0.10600000E+02 -0.42999E-03
 0.10650001E+02 -0.44094E-03
 0.10700000E+02 -0.46590E-03
 0.10750000E+02 -0.42469E-03
 0.10800000E+02 -0.37490E-03
 0.10850000E+02 -0.31863E-03
 0.10900001E+02 -0.28245E-03
 0.10950000E+02 -0.20172E-03
 0.11000000E+02 -0.16881E-03
 0.11050000E+02 -0.91354E-04
 0.11100000E+02 -0.19130E-04
 0.11150001E+02  0.56790E-05
 0.11200000E+02  0.23830E-04
 0.11250000E+02  0.15201E-04
 0.11300000E+02  0.73253E-04
 0.11350000E+02  0.93193E-04
 0.11400001E+02  0.89253E-04
 0.11450000E+02  0.99611E-04
 0.11500000E+02  0.13572E-03
 0.11550000E+02  0.14562E-03
 0.11600000E+02  0.11092E-03
 0.11650001E+02  0.10067E-03
 0.11700000E+02  0.10674E-03
 0.11750000E+02  0.66979E-04
 0.11800000E+02 -0.53453E-04
 0.11850000E+02 -0.85409E-04
 0.11900001E+02 -0.27720E-04
 0.11950000E+02 -0.19819E-04
 0.12000000E+02 -0.45269E-04
 0.12050000E+02 -0.10045E-03
 0.12100000E+02 -0.85170E-04
 0.12150001E+02 -0.41410E-04
 0.12200000E+02 -0.55197E-04
 0.12250000E+02 -0.26156E-04
 0.12300000E+02 -0.10537E-04
 0.12350000E+02 -0.13323E-04
 0.12400001E+02 -0.31890E-04
 0.12450000E+02 -0.79435E-04
 0.12500000E+02 -0.53850E-04
 0.12550000E+02 -0.73077E-04
 0.12600000E+02 -0.10479E-03
 0.12650001E+02 -0.13596E-03
 0.12700000E+02 -0.16540E-03
 0.12750000E+02 -0.73854E-04
 0.12800000E+02 -0.32225E-04
 0.12850000E+02 -0.20277E-04
 0.12900001E+02  0.37558E-04
 0.12950000E+02  0.94928E-04
 0.13000000E+02  0.15221E-03
 0.13050000E+02  0.13918E-03
 0.13100000E+02  0.15835E-03
 0.13150001E+02  0.16205E-03
 0.13200000E+02  0.12110E-03
 0.13250000E+02  0.82578E-04
 0.13300000E+02  0.52672E-04
 0.13350000E+02  0.36029E-04
 0.13400001E+02  0.29875E-04
 0.13450000E+02 -0.22257E-04
 0.13500000E+02 -0.63923E-04
 0.13550000E+02 -0.57174E-04
 0.13600000E+02 -0.14250E-03
 0.13650001E+02 -0.21748E-03
 0.13700000E+02 -0.30928E-03
 0.13750000E+02 -0.32898E-03
 0.13800000E+02 -0.33746E-03
 0.13850000E+02 -0.41414E-03
 0.13900001E+02 -0.50882E-03
 0.13950000E+02 -0.55662E-03
 0.14000000E+02 -0.57467E-03
 0.14050000E+02 -0.61672E-03
 0.14100000E+02 -0.63175E-03
 0.14150001E+02 -0.62133E-03
 0.14200000E+02 -0.57830E-03
 0.14250000E+02 -0.53153E-03
 0.14300000E+02 -0.51104E-03
 0.14350000E+02 -0.48550E-03
 0.14400001E+02 -0.43628E-03
 0.14450000E+02 -0.38431E-03
 0.14500000E+02 -0.21093E-03
 0.14550000E+02 -0.49164E-04
 0.14600000E+02  0.69507E-04
 0.14650001E+02  0.21210E-03
 0.14700000E+02  0.38714E-03
 0.14750000E+02  0.55099E-03
 0.14800000E+02  0.69470E-03
 0.14850000E+02  0.83326E-03
 0.14900001E+02  0.98179E-03
 0.14950000E+02  0.10881E-02
 0.15000000E+02  0.10438E-02
 0.15050000E+02  0.10122E-02
 0.15100000E+02  0.10464E-02
 0.15150001E+02  0.10716E-02
 0.15200000E+02  0.10826E-02
 0.15250000E+02  0.10256E-02
 0.15300000E+02  0.91882E-03
 0.15350000E+02  0.87225E-03
 0.15400001E+02  0.85370E-03
 0.15450000E+02  0.80648E-03
 0.15500000E+02  0.72462E-03
 0.15550000E+02  0.67662E-03
 0.15600000E+02  0.62352E-03
 0.15650001E+02  0.52440E-03
 0.15700000E+02  0.42966E-03
 0.15750000E+02  0.34944E-03
 0.15800000E+02  0.28724E-03
 0.15850000E+02  0.18823E-03
 0.15900001E+02  0.86234E-04
 0.15950000E+02  0.14210E-04
 0.16000000E+02 -0.67038E-04
 0.16050001E+02 -0.18801E-03
 0.16100000E+02 -0.27818E-03
 0.16150000E+02 -0.36841E-03
 0.16200001E+02 -0.49378E-03
 0.16250000E+02 -0.58835E-03
 0.16300001E+02 -0.69673E-03
 0.16350000E+02 -0.83554E-03
 0.16400000E+02 -0.95083E-03
 0.16450001E+02 -0.10260E-02
 0.16500000E+02 -0.11698E-02
 0.16550001E+02 -0.12548E-02
 0.16600000E+02 -0.13421E-02
 0.16650000E+02 -0.14516E-02
 0.16700001E+02 -0.15467E-02
 0.16750000E+02 -0.16336E-02
 0.16800001E+02 -0.16318E-02
 0.16850000E+02 -0.16721E-02
 0.16900000E+02 -0.16911E-02
 0.16950001E+02 -0.17275E-02
 0.17000000E+02 -0.17387E-02
 0.17050001E+02 -0.17264E-02
 0.17100000E+02 -0.17005E-02
 0.17150000E+02 -0.16311E-02
 0.17200001E+02 -0.15365E-02
 0.17250000E+02 -0.14549E-02
 0.17300001E+02 -0.13620E-02
 0.17350000E+02 -0.12522E-02
 0.17400000E+02 -0.11512E-02
 0.17450001E+02 -0.10301E-02
 0.17500000E+02 -0.92277E-03
 0.17550001E+02 -0.79889E-03
 0.17600000E+02 -0.66615E-03
 0.17650000E+02 -0.57189E-03
 0.17700001E+02 -0.49004E-03
 0.17750000E+02 -0.34236E-03
 0.17800001E+02 -0.15950E-03
 0.17850000E+02 -0.43455E-04
 0.17900000E+02  0.14946E-04
 0.17950001E+02  0.95828E-04
 0.18000000E+02  0.18026E-03
 0.18050001E+02  0.31233E-03
 0.18100000E+02  0.30714E-03
 0.18150000E+02  0.31253E-03
 0.18200001E+02  0.26737E-03
 0.18250000E+02  0.16928E-03
 0.18300001E+02  0.19426E-03
 0.18350000E+02  0.12238E-03
 0.18400000E+02  0.18634E-03
 0.18450001E+02  0.50285E-03
 0.18500000E+02  0.93769E-03
 0.18550001E+02  0.10862E-02
 0.18600000E+02  0.12489E-02
 0.18650000E+02  0.12915E-02
 0.18700001E+02  0.17133E-02
 0.18750000E+02  0.27125E-02
 0.18800001E+02  0.43389E-02
 0.18850000E+02  0.65850E-02
 0.18900000E+02  0.99122E-02
 0.18950001E+02  0.14550E-01
 0.19000000E+02  0.20938E-01
 0.19050001E+02  0.29433E-01
 0.19100000E+02  0.39316E-01
 0.19150000E+02  0.51439E-01
 0.19200001E+02  0.60957E-01
 0.19250000E+02  0.66795E-01
 0.19300001E+02  0.61106E-01
 0.19350000E+02  0.43279E-01
 0.19400000E+02  0.18516E-01
 0.19450001E+02 -0.24623E-01
 0.19500000E+02 -0.68783E-01
 0.19550001E+02 -0.59037E-01
 0.19600000E+02 -0.13236E-01
 0.19650000E+02  0.12425E-01
 0.19700001E+02  0.21171E-01
 0.19750000E+02  0.26240E-02
 0.19800001E+02 -0.19829E-01
 0.19850000E+02  0.13617E-01
 0.19900000E+02  0.63647E-01
 0.19950001E+02  0.10436E+00
 0.20000000E+02  0.12815E+00
 0.20050001E+02  0.12426E+00
 0.20100000E+02  0.12084E+00
 0.20150000E+02  0.96971E-01
 0.20200001E+02  0.78946E-01
 0.20250000E+02  0.49077E-01
 0.20300001E+02 -0.15333E-02
 0.20350000E+02 -0.75480E-01
 0.20400000E+02 -0.11621E+00
 0.20450001E+02 -0.54593E-01
 0.20500000E+02  0.16411E-02
 0.20550001E+02 -0.45763E-01
 0.20600000E+02 -0.13327E+00
 0.20650000E+02 -0.15501E+00
 0.20700001E+02 -0.11416E+00
 0.20750000E+02  0.67905E-02
 0.20800001E+02  0.59630E-01
 0.20850000E+02  0.23660E-01
 0.20900000E+02  0.16962E-02
 0.20950001E+02  0.48051E-01
 0.21000000E+02  0.78622E-01
 0.21050001E+02  0.42924E-01
 0.21100000E+02  0.53331E-01
 0.21150000E+02  0.27282E-01
 0.21200001E+02  0.40566E-01
 0.21250000E+02  0.92522E-01
 0.21300001E+02  0.94145E-01
 0.21350000E+02  0.53545E-01
 0.21400000E+02  0.22541E-01
 0.21450001E+02 -0.58725E-01
 0.21500000E+02 -0.20043E+00
 0.21550001E+02 -0.15063E+00
 0.21600000E+02 -0.14045E-01
 0.21650000E+02  0.13286E-01
 0.21700001E+02 -0.67298E-01
 0.21750000E+02 -0.11474E+00
 0.21800001E+02 -0.43120E-01
 0.21850000E+02  0.21284E-01
 0.21900000E+02  0.34627E-01
 0.21950001E+02 -0.64628E-01
 0.22000000E+02 -0.11984E+00
 0.22050001E+02 -0.21345E-01
 0.22100000E+02  0.89377E-01
 0.22150000E+02  0.10549E+00
 0.22200001E+02  0.30706E-01
 0.22250000E+02  0.35180E-01
 0.22300001E+02  0.55792E-01
 0.22350000E+02 -0.88490E-02
 0.22400000E+02 -0.22364E-01
 0.22450001E+02  0.12061E-02
 0.22500000E+02 -0.46885E-01
 0.22550001E+02 -0.71298E-01
 0.22600000E+02 -0.44102E-01
 0.22650000E+02 -0.36094E-01
 0.22700001E+02 -0.53179E-01
 0.22750000E+02 -0.37344E-01
 0.22800001E+02 -0.22238E-01
 0.22850000E+02 -0.22108E-01
 0.22900000E+02  0.60244E-01
 0.22950001E+02  0.11169E+00
 0.23000000E+02  0.11723E+00
 0.23050001E+02  0.91485E-01
 0.23100000E+02  0.83406E-01
 0.23150000E+02  0.12916E+00
 0.23200001E+02  0.84210E-01
 0.23250000E+02 -0.39964E-01
 0.23300001E+02 -0.13987E+00
 0.23350000E+02 -0.11803E+00
 0.23400000E+02 -0.16042E-01
 0.23450001E+02 -0.71816E-02
 0.23500000E+02 -0.39968E-01
 0.23550001E+02 -0.46729E-01
 0.23600000E+02 -0.57846E-01
 0.23650000E+02 -0.41073E-01
 0.23700001E+02 -0.41110E-01
 0.23750000E+02 -0.36806E-01
 0.23800001E+02 -0.53834E-01
 0.23850000E+02  0.91837E-02
 0.23900000E+02  0.83770E-01
 0.23950001E+02  0.48067E-01
 0.24000000E+02  0.29629E-01
 0.24050001E+02  0.29790E-01
 0.24100000E+02  0.15111E-01
 0.24150000E+02 -0.14056E-01
 0.24200001E+02  0.44344E-02
 0.24250000E+02  0.20204E-01
 0.24300001E+02  0.12352E-01
 0.24350000E+02 -0.29430E-01
 0.24400000E+02 -0.53196E-01
 0.24450001E+02 -0.47590E-01
 0.24500000E+02 -0.72274E-01
 0.24550001E+02 -0.87173E-01
 0.24600000E+02 -0.88723E-01
 0.24650000E+02 -0.40033E-01
 0.24700001E+02  0.98029E-02
 0.24750000E+02  0.46194E-01
 0.24800001E+02  0.50823E-01
 0.24850000E+02 -0.77947E-02
 0.24900000E+02 -0.89950E-02
 0.24950001E+02  0.81742E-01
 0.25000000E+02  0.10827E+00
 0.25050001E+02  0.94851E-01
 0.25100000E+02  0.11924E+00
 0.25150000E+02  0.10001E+00
 0.25200001E+02  0.11222E+00
 0.25250000E+02  0.93748E-01
 0.25300001E+02  0.61257E-01
 0.25350000E+02  0.20229E-01
 0.25400000E+02 -0.52827E-01
 0.25450001E+02 -0.20314E-01
 0.25500000E+02  0.10111E+00
 0.25550001E+02  0.15593E+00
 0.25600000E+02  0.14344E+00
 0.25650000E+02  0.57033E-01
 0.25700001E+02 -0.49985E-01
 0.25750000E+02 -0.21093E-01
 0.25800001E+02  0.38858E-01
 0.25850000E+02  0.43682E-01
 0.25900000E+02  0.13840E-02
 0.25950001E+02  0.51247E-01
 0.26000000E+02  0.60252E-01
 0.26050001E+02  0.60041E-01
 0.26100000E+02  0.11411E+00
 0.26150000E+02  0.12710E+00
 0.26200001E+02  0.11989E+00
 0.26250000E+02  0.53992E-01
 0.26300001E+02 -0.24194E-01
 0.26350000E+02 -0.10474E+00
 0.26400000E+02 -0.78645E-01
 0.26450001E+02 -0.16827E-01
 0.26500000E+02  0.28660E-01
 0.26550001E+02  0.11619E-01
 0.26600000E+02 -0.19868E-01
 0.26650000E+02  0.54842E-01
 0.26700001E+02  0.10130E+00
 0.26750000E+02  0.10699E+00
 0.26800001E+02  0.32327E-01
 0.26850000E+02 -0.75355E-01
 0.26900000E+02 -0.19747E+00
 0.26950001E+02 -0.19240E+00
 0.27000000E+02 -0.10654E+00
 0.27050001E+02 -0.13293E+00
 0.27100000E+02 -0.12027E+00
 0.27150000E+02 -0.85441E-01
 0.27200001E+02 -0.85547E-01
 0.27250000E+02 -0.10331E+00
 0.27300001E+02 -0.84318E-01
 0.27350000E+02 -0.48650E-01
 0.27400000E+02 -0.37352E-01
 0.27450001E+02 -0.33187E-01
 0.27500000E+02 -0.11755E-01
 0.27550001E+02  0.36300E-02
 0.27600000E+02  0.18248E-01
 0.27650000E+02  0.41398E-01
 0.27700001E+02  0.44539E-01
 0.27750000E+02  0.63792E-01
 0.27800001E+02  0.22000E-01
 0.27850000E+02 -0.48882E-01
 0.27900000E+02 -0.11890E+00
 0.27950001E+02 -0.14881E+00
 0.28000000E+02 -0.15967E+00
 0.28050001E+02 -0.14473E+00
 0.28100000E+02 -0.12873E+00
 0.28150000E+02 -0.15021E+00
 0.28200001E+02 -0.10638E+00
 0.28250000E+02 -0.76033E-01
 0.28300001E+02 -0.60486E-01
 0.28350000E+02 -0.39292E-01
 0.28400000E+02  0.24168E-01
 0.28450001E+02  0.51794E-01
 0.28500000E+02 -0.58010E-02
 0.28550001E+02 -0.26219E-02
 0.28600000E+02  0.60660E-01
 0.28650000E+02  0.64223E-01
 0.28700001E+02  0.16345E-02
 0.28750000E+02 -0.46757E-01
 0.28800001E+02 -0.29252E-01
 0.28850000E+02 -0.81513E-02
 0.28900000E+02  0.86881E-02
 0.28950001E+02 -0.52632E-03
 0.29000000E+02 -0.11616E+00
 0.29050001E+02 -0.14327E+00
 0.29100000E+02 -0.50820E-01
 0.29150000E+02  0.26486E-01
 0.29200001E+02  0.20371E-01
 0.29250000E+02  0.45253E-01
 0.29300001E+02  0.91680E-01
 0.29350000E+02 -0.42181E-02
 0.29400000E+02 -0.93142E-02
 0.29450001E+02  0.12659E-01
 0.29500000E+02 -0.82344E-02
 0.29550001E+02  0.13101E-01
 0.29600000E+02 -0.79700E-03
 0.29650000E+02  0.16265E-01
 0.29700001E+02  0.47537E-01
 0.29750000E+02  0.49859E-01
 0.29800001E+02  0.12573E-01
 0.29850000E+02 -0.37884E-01
 0.29900000E+02 -0.72798E-01
 0.29950001E+02 -0.59281E-01
 0.30000000E+02 -0.90657E-02
 0.30050001E+02  0.29156E-01
 0.30100000E+02  0.44005E-01
 0.30150000E+02  0.52110E-01
 0.30200001E+02  0.48461E-01
 0.30250000E+02  0.32478E-01
 0.30300001E+02  0.56069E-01
 0.30350000E+02  0.12056E+00
 0.30400000E+02  0.16062E+00
 0.30450001E+02  0.41958E-01
 0.30500000E+02 -0.26420E-01
 0.30550001E+02 -0.33387E-01
 0.30600000E+02 -0.48880E-01
 0.30650000E+02 -0.20130E-01
 0.30700001E+02  0.22642E-01
 0.30750000E+02  0.31650E-01
 0.30800001E+02  0.37014E-01
 0.30850000E+02  0.80130E-01
 0.30900000E+02  0.36030E-01
 0.30950001E+02 -0.15362E-01
 0.31000000E+02 -0.39794E-01
 0.31050001E+02 -0.62366E-01
 0.31100000E+02 -0.13951E-01
 0.31150000E+02  0.85463E-01
 0.31200001E+02  0.83100E-01
 0.31250000E+02  0.31244E-01
 0.31300001E+02 -0.54141E-01
 0.31350000E+02 -0.83626E-01
 0.31400000E+02  0.52572E-03
 0.31450001E+02  0.11670E-01
 0.31500000E+02  0.14773E-01
 0.31550001E+02  0.23983E-01
 0.31600000E+02  0.38969E-01
 0.31650000E+02  0.10131E+00
 0.31700001E+02  0.16511E+00
 0.31750000E+02  0.21411E+00
 0.31800001E+02  0.17780E+00
 0.31850000E+02  0.11831E+00
 0.31900000E+02  0.10397E+00
 0.31950001E+02  0.88892E-01
 0.32000000E+02  0.13299E-02
 0.32049999E+02 -0.93528E-01
 0.32100002E+02 -0.16535E+00
 0.32150002E+02 -0.17218E+00
 0.32200001E+02 -0.91998E-01
 0.32250000E+02 -0.10363E+00
 0.32299999E+02 -0.18410E+00
 0.32350002E+02 -0.21082E+00
 0.32400002E+02 -0.16430E+00
 0.32450001E+02 -0.99827E-01
 0.32500000E+02  0.16462E-01
 0.32549999E+02  0.10075E+00
 0.32600002E+02  0.71792E-01
 0.32650002E+02  0.55713E-01
 0.32700001E+02  0.22899E-01
 0.32750000E+02 -0.94513E-02
 0.32799999E+02 -0.61438E-01
 0.32850002E+02 -0.23771E+00
 0.32900002E+02 -0.39116E+00
 0.32950001E+02 -0.48667E+00
 0.33000000E+02 -0.48693E+00
 0.33049999E+02 -0.46492E+00
 0.33100002E+02 -0.48973E+00
 0.33150002E+02 -0.48307E+00
 0.33200001E+02 -0.46437E+00
 0.33250000E+02 -0.28791E+00
 0.33299999E+02 -0.18015E-01
 0.33350002E+02  0.32192E+00
 0.33400002E+02  0.64023E+00
 0.33450001E+02  0.88487E+00
 0.33500000E+02  0.10000E+01
 0.33549999E+02  0.92902E+00
 0.33600002E+02  0.81932E+00
 0.33650002E+02  0.57611E+00
 0.33700001E+02  0.27383E+00
 0.33750000E+02  0.92768E-01
 0.33799999E+02  0.16998E-01
 0.33850002E+02 -0.16170E+00
 0.33900002E+02 -0.22762E+00
 0.33950001E+02  0.68603E-01
 0.34000000E+02  0.20847E+00
 0.34049999E+02  0.27224E+00
 0.34100002E+02  0.41985E+00
 0.34150002E+02  0.39495E+00
 0.34200001E+02  0.37304E+00
 0.34250000E+02  0.22247E+00
 0.34299999E+02  0.32590E-01
 0.34350002E+02 -0.64875E-01
 0.34400002E+02 -0.52595E-01
 0.34450001E+02  0.25072E-01
 0.34500000E+02 -0.60418E-01
 0.34549999E+02 -0.14395E+00
 0.34600002E+02 -0.33553E+00
 0.34650002E+02 -0.56999E+00
 0.34700001E+02 -0.56093E+00
 0.34750000E+02 -0.38047E+00
 0.34799999E+02 -0.38271E+00
 0.34850002E+02 -0.42475E+00
 0.34900002E+02 -0.23581E+00
 0.34950001E+02 -0.10099E+00
 0.35000000E+02 -0.11153E+00
 0.35049999E+02  0.57054E-02
 0.35100002E+02  0.27344E+00
 0.35150002E+02  0.23175E+00
 0.35200001E+02 -0.11565E-01
 0.35250000E+02 -0.16860E+00
 0.35299999E+02 -0.17268E+00
 0.35350002E+02 -0.10243E-01
 0.35400002E+02  0.99717E-01
 0.35450001E+02  0.14632E+00
 0.35500000E+02  0.52368E-01
 0.35549999E+02 -0.29848E+00
 0.35600002E+02 -0.27071E+00
 0.35650002E+02  0.17664E+00
 0.35700001E+02  0.44415E+00
 0.35750000E+02  0.49215E+00
 0.35799999E+02  0.33654E+00
 0.35850002E+02  0.89506E-01
 0.35900002E+02 -0.15782E-01
 0.35950001E+02  0.33196E-01
 0.36000000E+02  0.75688E-01
 0.36049999E+02  0.44244E-01
 0.36100002E+02 -0.96217E-01
 0.36150002E+02 -0.18388E+00
 0.36200001E+02 -0.66357E-01
 0.36250000E+02  0.17266E+00
 0.36299999E+02  0.48259E+00
 0.36350002E+02  0.65634E+00
 0.36400002E+02  0.50995E+00
 0.36450001E+02  0.24939E+00
 0.36500000E+02  0.15339E+00
 0.36549999E+02  0.24960E+00
 0.36600002E+02  0.30890E+00
 0.36650002E+02  0.19385E+00
 0.36700001E+02  0.18476E-01
 0.36750000E+02 -0.92778E-01
 0.36799999E+02 -0.83933E-01
 0.36850002E+02 -0.76637E-01
 0.36900002E+02 -0.25499E-01
 0.36950001E+02 -0.10317E-01
 0.37000000E+02 -0.14228E+00
 0.37049999E+02 -0.19143E+00
 0.37100002E+02 -0.16360E+00
 0.37150002E+02 -0.13566E+00
 0.37200001E+02 -0.10181E+00
 0.37250000E+02  0.20774E-01
 0.37299999E+02  0.12223E+00
 0.37350002E+02  0.94006E-01
 0.37400002E+02 -0.49244E-01
 0.37450001E+02 -0.20878E+00
 0.37500000E+02 -0.23070E+00
 0.37549999E+02 -0.29596E+00
 0.37600002E+02 -0.30874E+00
 0.37650002E+02 -0.20134E+00
 0.37700001E+02 -0.16227E+00
 0.37750000E+02 -0.10843E+00
 0.37799999E+02 -0.13824E+00
 0.37850002E+02 -0.21412E+00
 0.37900002E+02 -0.20766E+00
 0.37950001E+02 -0.62602E-01
 0.38000000E+02  0.19457E+00
 0.38049999E+02  0.31528E+00
 0.38100002E+02  0.26318E+00
 0.38150002E+02  0.53827E-01
 0.38200001E+02 -0.12306E+00
 0.38250000E+02 -0.20885E+00
 0.38299999E+02 -0.18332E+00
 0.38350002E+02 -0.18931E+00
 0.38400002E+02 -0.25923E+00
 0.38450001E+02 -0.21219E+00
 0.38500000E+02 -0.12703E+00
 0.38549999E+02  0.87944E-01
 0.38600002E+02  0.30735E+00
 0.38650002E+02  0.26208E+00
 0.38700001E+02  0.80174E-01
 0.38750000E+02 -0.83054E-01
 0.38799999E+02 -0.16576E+00
 0.38850002E+02 -0.23974E+00
 0.38900002E+02 -0.35299E+00
 0.38950001E+02 -0.39055E+00
 0.39000000E+02 -0.51918E+00
 0.39049999E+02 -0.59039E+00
 0.39100002E+02 -0.50086E+00
 0.39150002E+02 -0.28442E+00
 0.39200001E+02 -0.22396E+00
 0.39250000E+02 -0.37854E+00
 0.39299999E+02 -0.37527E+00
 0.39350002E+02 -0.35877E+00
 0.39400002E+02 -0.16691E+00
 0.39450001E+02  0.72505E-01
 0.39500000E+02  0.20499E+00
 0.39549999E+02  0.32947E+00
 0.39600002E+02  0.22773E+00
 0.39650002E+02  0.50354E-01
 0.39700001E+02 -0.21546E+00
 0.39750000E+02 -0.43724E+00
 0.39799999E+02 -0.54078E+00
 0.39850002E+02 -0.73846E+00
 0.39900002E+02 -0.69144E+00
 0.39950001E+02 -0.44835E+00
 0.40000000E+02 -0.22745E+00
 0.40049999E+02  0.39059E-01
 0.40100002E+02  0.38797E+00
 0.40150002E+02  0.65027E+00
 0.40200001E+02  0.50040E+00
 0.40250000E+02  0.36122E+00
 0.40299999E+02  0.39116E+00
 0.40350002E+02  0.32568E+00
 0.40400002E+02  0.17660E+00
 0.40450001E+02  0.69993E-02
 0.40500000E+02 -0.96654E-01
 0.40549999E+02 -0.96742E-01
 0.40600002E+02 -0.94642E-02
 0.40650002E+02  0.16396E+00
 0.40700001E+02  0.25704E+00
 0.40750000E+02  0.15247E+00
 0.40799999E+02  0.82088E-01
 0.40850002E+02  0.67154E-01
 0.40900002E+02  0.62547E-01
 0.40950001E+02 -0.21395E-01
 0.41000000E+02 -0.41562E-01
 0.41049999E+02  0.48339E-01
 0.41100002E+02  0.13632E+00
 0.41150002E+02  0.20210E+00
 0.41200001E+02  0.18155E+00
 0.41250000E+02  0.91788E-01
 0.41299999E+02  0.94814E-02
 0.41350002E+02 -0.56847E-01
 0.41400002E+02 -0.94308E-01
 0.41450001E+02 -0.64874E-01
 0.41500000E+02 -0.66685E-01
 0.41549999E+02 -0.48523E-01
 0.41600002E+02  0.23581E-01
 0.41650002E+02  0.16390E-01
 0.41700001E+02 -0.69702E-02
 0.41750000E+02 -0.70881E-01
 0.41799999E+02 -0.47696E-01
 0.41850002E+02  0.90888E-01
 0.41900002E+02  0.41765E-01
 0.41950001E+02  0.35471E-01
 0.42000000E+02  0.77000E-03
 0.42049999E+02 -0.92334E-02
 0.42100002E+02  0.92769E-01
 0.42150002E+02  0.58881E-01
 0.42200001E+02  0.11237E+00
 0.42250000E+02  0.99042E-01
 0.42299999E+02  0.21956E-01
 0.42350002E+02 -0.30211E-01
 0.42400002E+02 -0.44008E-01
 0.42450001E+02 -0.52865E-01
 0.42500000E+02 -0.85454E-01
 0.42549999E+02  0.86954E-01
 0.42600002E+02  0.22448E+00
 0.42650002E+02  0.32291E+00
 0.42700001E+02  0.27245E+00
 0.42750000E+02  0.79675E-01
 0.42799999E+02  0.14095E-02
 0.42850002E+02 -0.10223E+00
 0.42900002E+02 -0.15440E+00
 0.42950001E+02 -0.13074E+00
 0.43000000E+02 -0.20070E+00
 0.43049999E+02 -0.24872E+00
 0.43100002E+02 -0.22609E+00
 0.43150002E+02 -0.11169E+00
 0.43200001E+02  0.54032E-02
 0.43250000E+02  0.31192E-01
 0.43299999E+02  0.13147E-01
 0.43350002E+02 -0.63106E-02
 0.43400002E+02  0.10869E-01
 0.43450001E+02  0.49170E-01
 0.43500000E+02  0.12885E+00
 0.43549999E+02  0.58483E-01
 0.43600002E+02  0.87693E-01
 0.43650002E+02  0.14376E+00
 0.43700001E+02  0.56193E-01
 0.43750000E+02  0.43851E-01
 0.43799999E+02 -0.16868E-01
 0.43850002E+02 -0.11905E+00
 0.43900002E+02 -0.23074E+00
 0.43950001E+02 -0.38161E+00
 0.44000000E+02 -0.51819E+00
 0.44049999E+02 -0.52421E+00
 0.44100002E+02 -0.34893E+00
 0.44150002E+02 -0.77249E-01
 0.44200001E+02  0.32949E-01
 0.44250000E+02  0.10151E+00
 0.44299999E+02  0.24018E+00
 0.44350002E+02  0.28215E+00
 0.44400002E+02  0.34489E+00
 0.44450001E+02  0.42608E+00
 0.44500000E+02  0.40875E+00
 0.44549999E+02  0.23371E+00
 0.44600002E+02 -0.26487E-01
 0.44650002E+02 -0.20487E+00
 0.44700001E+02 -0.25454E+00
 0.44750000E+02 -0.21263E+00
 0.44799999E+02 -0.13649E+00
 0.44850002E+02 -0.99740E-01
 0.44900002E+02 -0.28385E-01
 0.44950001E+02  0.11337E+00
 0.45000000E+02  0.20265E+00
 0.45049999E+02  0.27921E+00
 0.45100002E+02  0.29881E+00
 0.45150002E+02  0.24473E+00
 0.45200001E+02  0.10780E+00
 0.45250000E+02  0.44024E-03
 0.45299999E+02  0.27909E-01
 0.45350002E+02 -0.80815E-03
 0.45400002E+02  0.43203E-01
 0.45450001E+02  0.11536E+00
 0.45500000E+02  0.92520E-01
 0.45549999E+02  0.14656E+00
 0.45600002E+02  0.24720E+00
 0.45650002E+02  0.22100E+00
 0.45700001E+02  0.19945E+00
 0.45750000E+02  0.26601E+00
 0.45799999E+02  0.33520E+00
 0.45850002E+02  0.37797E+00
 0.45900002E+02  0.29690E+00
 0.45950001E+02  0.14512E+00
 0.46000000E+02  0.62879E-01
 0.46049999E+02  0.21902E-01
 0.46100002E+02  0.48627E-02
 0.46150002E+02 -0.17336E-01
 0.46200001E+02 -0.16074E+00
 0.46250000E+02 -0.32587E+00
 0.46299999E+02 -0.38316E+00
 0.46350002E+02 -0.27591E+00
 0.46400002E+02 -0.28484E-01
 0.46450001E+02  0.18214E+00
 0.46500000E+02  0.12529E+00
 0.46549999E+02  0.89194E-02
 0.46600002E+02 -0.61046E-01
 0.46650002E+02 -0.13395E+00
 0.46700001E+02 -0.14469E+00
 0.46750000E+02 -0.20697E+00
 0.46799999E+02 -0.26156E+00
 0.46850002E+02 -0.25844E+00
 0.46900002E+02 -0.20661E+00
 0.46950001E+02 -0.16517E+00
 0.47000000E+02 -0.78055E-01
 0.47049999E+02 -0.15108E-01
 0.47100002E+02 -0.44913E-01
 0.47150002E+02 -0.70678E-01
 0.47200001E+02 -0.44605E-01
 0.47250000E+02  0.26345E-01
 0.47299999E+02 -0.54759E-02
 0.47350002E+02 -0.65722E-01
 0.47400002E+02 -0.15477E+00
 0.47450001E+02 -0.21140E+00
 0.47500000E+02 -0.17489E+00
 0.47549999E+02 -0.12236E+00
 0.47600002E+02 -0.82417E-01
 0.47650002E+02 -0.81985E-01
 0.47700001E+02 -0.37965E-01
 0.47750000E+02  0.38015E-01
 0.47799999E+02  0.79641E-01
 0.47850002E+02  0.52516E-01
 0.47900002E+02 -0.22343E-01
 0.47950001E+02 -0.10726E+00
 0.48000000E+02 -0.13926E+00
 0.48049999E+02 -0.18802E+00
 0.48100002E+02 -0.29784E+00
 0.48150002E+02 -0.35210E+00
 0.48200001E+02 -0.31186E+00
 0.48250000E+02 -0.19959E+00
 0.48299999E+02 -0.71319E-01
 0.48350002E+02  0.69708E-01
 0.48400002E+02  0.21045E+00
 0.48450001E+02  0.33716E+00
 0.48500000E+02  0.38145E+00
 0.48549999E+02  0.37560E+00
 0.48600002E+02  0.34143E+00
 0.48650002E+02  0.22049E+00
 0.48700001E+02  0.13788E+00
 0.48750000E+02  0.11355E+00
 0.48799999E+02  0.90382E-01
 0.48850002E+02 -0.42523E-02
 0.48900002E+02 -0.13138E+00
 0.48950001E+02 -0.94559E-01
 0.49000000E+02 -0.30045E-01
 0.49049999E+02 -0.44286E-01
 0.49100002E+02 -0.39731E-01
 0.49150002E+02 -0.45694E-01
 0.49200001E+02 -0.54036E-01
 0.49250000E+02  0.19682E-01
 0.49299999E+02  0.12870E+00
 0.49350002E+02  0.19051E+00
 0.49400002E+02  0.17400E+00
 0.49450001E+02  0.11173E+00
 0.49500000E+02  0.16245E+00
 0.49549999E+02  0.23145E+00
 0.49600002E+02  0.29518E+00
 0.49650002E+02  0.36437E+00
 0.49700001E+02  0.30836E+00
 0.49750000E+02  0.18110E+00
 0.49799999E+02  0.94552E-01
 0.49850002E+02  0.91657E-01
 0.49900002E+02  0.73585E-01
 0.49950001E+02  0.14658E-01
 0.50000000E+02  0.39108E-02
 0.50049999E+02 -0.19116E-01
 0.50100002E+02 -0.54168E-01
 0.50150002E+02 -0.36262E-01
 0.50200001E+02 -0.30269E-01
 0.50250000E+02 -0.49232E-01
 0.50299999E+02 -0.98572E-01
 0.50350002E+02 -0.12828E+00
 0.50400002E+02 -0.14615E+00
 0.50450001E+02 -0.17466E+00
 0.50500000E+02 -0.18276E+00
 0.50549999E+02 -0.16547E+00
 0.50600002E+02 -0.13045E+00
 0.50650002E+02 -0.10044E+00
 0.50700001E+02 -0.16519E-01
 0.50750000E+02  0.69709E-01
 0.50799999E+02  0.11754E+00
 0.50850002E+02  0.99704E-01
 0.50900002E+02  0.48460E-01
 0.50950001E+02 -0.31541E-01
 0.51000000E+02 -0.11405E+00
 0.51049999E+02 -0.89798E-01
 0.51100002E+02 -0.41135E-01
 0.51150002E+02 -0.61225E-01
 0.51200001E+02 -0.83641E-01
 0.51250000E+02 -0.72131E-01
 0.51299999E+02 -0.56425E-01
 0.51350002E+02 -0.34363E-01
 0.51400002E+02 -0.68886E-01
 0.51450001E+02 -0.12170E+00
 0.51500000E+02 -0.13036E+00
 0.51549999E+02 -0.11331E+00
 0.51600002E+02 -0.78460E-01
 0.51650002E+02 -0.28876E-01
 0.51700001E+02 -0.46830E-02
 0.51750000E+02  0.61986E-01
 0.51799999E+02  0.14278E+00
 0.51850002E+02  0.18937E+00
 0.51900002E+02  0.21445E+00
 0.51950001E+02  0.23118E+00
 0.52000000E+02  0.30358E+00
 0.52049999E+02  0.36806E+00
 0.52100002E+02  0.31479E+00
 0.52150002E+02  0.19304E+00
 0.52200001E+02  0.89699E-01
 0.52250000E+02 -0.98013E-02
 0.52299999E+02 -0.89110E-01
 0.52350002E+02 -0.13701E+00
 0.52400002E+02 -0.14959E+00
 0.52450001E+02 -0.14398E+00
 0.52500000E+02 -0.13895E+00
 0.52549999E+02 -0.16809E+00
 0.52600002E+02 -0.20856E+00
 0.52650002E+02 -0.24177E+00
 0.52700001E+02 -0.22848E+00
 0.52750000E+02 -0.17203E+00
 0.52799999E+02 -0.16455E+00
 0.52850002E+02 -0.17706E+00
 0.52900002E+02 -0.16298E+00
 0.52950001E+02 -0.80192E-01
 0.53000000E+02  0.30567E-01
 0.53049999E+02  0.63401E-01
 0.53100002E+02  0.44261E-01
 0.53150002E+02  0.17898E-01
 0.53200001E+02  0.23703E-01
 0.53250000E+02  0.90764E-01
 0.53299999E+02  0.14515E+00
 0.53350002E+02  0.13918E+00
 0.53400002E+02  0.13364E+00
 0.53450001E+02  0.12954E+00
 0.53500000E+02  0.11380E+00
 0.53549999E+02  0.12096E+00
 0.53600002E+02  0.15531E+00
 0.53650002E+02  0.18595E+00
 0.53700001E+02  0.17660E+00
 0.53750000E+02  0.15079E+00
 0.53799999E+02  0.10806E+00
 0.53850002E+02  0.39770E-01
 0.53900002E+02 -0.41835E-01
 0.53950001E+02 -0.97577E-01
 0.54000000E+02 -0.12210E+00
 0.54049999E+02 -0.13769E+00
 0.54100002E+02 -0.97133E-01
 0.54150002E+02 -0.23707E-01
 0.54200001E+02  0.43604E-01
 0.54250000E+02  0.69587E-01
 0.54299999E+02  0.55140E-01
 0.54350002E+02  0.35583E-01
 0.54400002E+02 -0.18018E-01
 0.54450001E+02 -0.53311E-01
 0.54500000E+02 -0.55730E-01
 0.54549999E+02 -0.72311E-01
 0.54600002E+02 -0.20766E-01
 0.54650002E+02  0.38002E-01
 0.54700001E+02  0.65641E-01
 0.54750000E+02  0.10802E+00
 0.54799999E+02  0.14033E+00
 0.54850002E+02  0.13712E+00
 0.54900002E+02  0.88102E-01
 0.54950001E+02  0.88801E-01
 0.55000000E+02  0.73577E-01
 0.55049999E+02  0.16841E-01
 0.55100002E+02 -0.19851E-01
 0.55150002E+02 -0.80074E-01
 0.55200001E+02 -0.12522E+00
 0.55250000E+02 -0.13172E+00
 0.55299999E+02 -0.12459E+00
 0.55350002E+02 -0.11684E+00
 0.55400002E+02 -0.13981E+00
 0.55450001E+02 -0.14887E+00
 0.55500000E+02 -0.11007E+00
 0.55549999E+02 -0.64712E-01
 0.55600002E+02 -0.25820E-01
 0.55650002E+02  0.15751E-01
 0.55700001E+02  0.34562E-01
 0.55750000E+02  0.25701E-01
 0.55799999E+02  0.62692E-02
 0.55850002E+02  0.62270E-02
 0.55900002E+02  0.33289E-01
 0.55950001E+02  0.58604E-01
 0.56000000E+02  0.56287E-01
 0.56049999E+02  0.46177E-01
 0.56100002E+02  0.86099E-01
 0.56150002E+02  0.10749E+00
 0.56200001E+02  0.14258E+00
 0.56250000E+02  0.15224E+00
 0.56299999E+02  0.11881E+00
 0.56350002E+02  0.91420E-01
 0.56400002E+02  0.33266E-01
 0.56450001E+02 -0.16718E-01
 0.56500000E+02 -0.73601E-01
 0.56549999E+02 -0.13515E+00
 0.56600002E+02 -0.17166E+00
 0.56650002E+02 -0.19781E+00
 0.56700001E+02 -0.20942E+00
 0.56750000E+02 -0.14401E+00
 0.56799999E+02 -0.50139E-01
 0.56850002E+02  0.30404E-01
 0.56900002E+02  0.10812E+00
 0.56950001E+02  0.18278E+00
 0.57000000E+02  0.23731E+00
 0.57049999E+02  0.22778E+00
 0.57100002E+02  0.16947E+00
 0.57150002E+02  0.11622E+00
 0.57200001E+02  0.78828E-01
 0.57250000E+02  0.16923E-01
 0.57299999E+02 -0.28202E-02
 0.57350002E+02  0.17721E-01
 0.57400002E+02  0.57798E-01
 0.57450001E+02  0.11789E+00
 0.57500000E+02  0.12392E+00
 0.57549999E+02  0.94590E-01
 0.57600002E+02  0.23224E-01
 0.57650002E+02 -0.35699E-01
 0.57700001E+02 -0.82927E-01
 0.57750000E+02 -0.14171E+00
 0.57799999E+02 -0.17346E+00
 0.57850002E+02 -0.16887E+00
 0.57900002E+02 -0.16189E+00
 0.57950001E+02 -0.17502E+00
 0.58000000E+02 -0.13962E+00
 0.58049999E+02 -0.89423E-01
 0.58100002E+02 -0.53213E-01
 0.58150002E+02 -0.36066E-01
 0.58200001E+02 -0.48818E-01
 0.58250000E+02 -0.51313E-01
 0.58299999E+02 -0.51489E-01
 0.58350002E+02 -0.66121E-01
 0.58400002E+02 -0.80832E-01
 0.58450001E+02 -0.78642E-01
 0.58500000E+02 -0.65679E-01
 0.58549999E+02 -0.52541E-01
 0.58600002E+02 -0.52764E-01
 0.58650002E+02 -0.53833E-01
 0.58700001E+02 -0.39916E-01
 0.58750000E+02 -0.32867E-01
 0.58799999E+02 -0.30483E-01
 0.58850002E+02 -0.28257E-01
 0.58900002E+02  0.89646E-02
 0.58950001E+02  0.42528E-01
 0.59000000E+02  0.46622E-01
 0.59049999E+02  0.25162E-01
 0.59100002E+02 -0.10136E-01
 0.59150002E+02 -0.38198E-01
 0.59200001E+02 -0.61662E-01
 0.59250000E+02 -0.75517E-01
 0.59299999E+02 -0.98578E-01
 0.59350002E+02 -0.10616E+00
 0.59400002E+02 -0.92680E-01
 0.59450001E+02 -0.68796E-01
 0.59500000E+02 -0.50660E-01
 0.59549999E+02 -0.35766E-01
 0.59600002E+02 -0.23345E-01
 0.59650002E+02 -0.61086E-02
 0.59700001E+02  0.29309E-01
 0.59750000E+02  0.73321E-01
 0.59799999E+02  0.10510E+00
 0.59850002E+02  0.13197E+00
 0.59900002E+02  0.17371E+00
 0.59950001E+02  0.18997E+00
 0.60000000E+02  0.17075E+00
 0.60049999E+02  0.11615E+00
 0.60100002E+02  0.88552E-01
 0.60150002E+02  0.10861E+00
 0.60200001E+02  0.11838E+00
 0.60250000E+02  0.12741E+00
 0.60299999E+02  0.13160E+00
 0.60350002E+02  0.14501E+00
 0.60400002E+02  0.15430E+00
 0.60450001E+02  0.14312E+00
 0.60500000E+02  0.10016E+00
 0.60549999E+02  0.48681E-01
 0.60600002E+02  0.51031E-01
 0.60650002E+02  0.91956E-01
 0.60700001E+02  0.11915E+00
 0.60750000E+02  0.10785E+00
 0.60799999E+02  0.71253E-01
 0.60850002E+02  0.38662E-01
 0.60900002E+02  0.19910E-01
 0.60950001E+02  0.17344E-02
 0.61000000E+02 -0.13084E-01
 0.61049999E+02 -0.54867E-01
 0.61100002E+02 -0.87088E-01
 0.61150002E+02 -0.72459E-01
 0.61200001E+02 -0.53813E-01
 0.61250000E+02 -0.45703E-01
 0.61299999E+02 -0.61466E-01
 0.61350002E+02 -0.11672E+00
 0.61400002E+02 -0.17340E+00
 0.61450001E+02 -0.16758E+00
 0.61500000E+02 -0.14600E+00
 0.61549999E+02 -0.14588E+00
 0.61600002E+02 -0.14930E+00
 0.61650002E+02 -0.14295E+00
 0.61700001E+02 -0.99557E-01
 0.61750000E+02 -0.53816E-01
 0.61799999E+02 -0.37003E-01
 0.61850002E+02 -0.21499E-01
 0.61900002E+02 -0.26686E-01
 0.61950001E+02 -0.26680E-01
 0.62000000E+02 -0.12104E-01
 0.62049999E+02 -0.47035E-01
 0.62100002E+02 -0.80495E-01
 0.62150002E+02 -0.11938E+00
 0.62200001E+02 -0.12767E+00
 0.62250000E+02 -0.75759E-01
 0.62299999E+02 -0.48599E-01
 0.62350002E+02 -0.45082E-01
 0.62400002E+02 -0.70270E-01
 0.62450001E+02 -0.91831E-01
 0.62500000E+02 -0.47947E-01
 0.62549999E+02  0.23149E-01
 0.62600002E+02  0.58838E-01
 0.62650002E+02  0.63947E-01
 0.62700001E+02  0.32354E-01
 0.62750000E+02 -0.15023E-01
 0.62799999E+02 -0.11909E-01
 0.62850002E+02  0.19381E-01
 0.62900002E+02  0.35321E-01
 0.62950001E+02  0.41405E-01
 0.63000000E+02  0.57089E-01
 0.63049999E+02  0.86741E-01
 0.63100002E+02  0.11527E+00
 0.63150002E+02  0.13460E+00
 0.63200001E+02  0.14330E+00
 0.63250000E+02  0.11479E+00
 0.63299999E+02  0.71569E-01
 0.63350002E+02  0.48691E-01
 0.63400002E+02  0.27018E-01
 0.63450001E+02  0.19949E-01
 0.63500000E+02  0.33332E-01
 0.63549999E+02  0.53642E-01
 0.63600002E+02  0.49537E-01
 0.63650002E+02  0.51556E-01
 0.63700001E+02  0.81292E-01
 0.63750000E+02  0.10675E+00
 0.63799999E+02  0.10567E+00
 0.63850002E+02  0.52010E-01
 0.63900002E+02 -0.16245E-01
 0.63950001E+02 -0.69267E-01
 0.64000000E+02 -0.10609E+00
 0.64050003E+02 -0.11627E+00
 0.64099998E+02 -0.11972E+00
 0.64150002E+02 -0.10762E+00
 0.64200005E+02 -0.49131E-01
 0.64250000E+02 -0.86142E-03
 0.64300003E+02  0.13975E-01
 0.64349998E+02  0.63732E-02
 0.64400002E+02  0.92432E-05
 0.64450005E+02  0.74653E-03
 0.64500000E+02 -0.28461E-01
 0.64550003E+02 -0.48615E-01
 0.64599998E+02 -0.40620E-01
 0.64650002E+02 -0.47917E-02
 0.64700005E+02  0.34456E-01
 0.64750000E+02  0.50854E-01
 0.64800003E+02  0.44881E-01
 0.64849998E+02  0.97048E-02
 0.64900002E+02  0.61290E-04
 0.64950005E+02  0.19536E-01
 0.65000000E+02  0.40945E-01
 0.65050003E+02  0.27737E-01
 0.65099998E+02 -0.27749E-01
 0.65150002E+02 -0.62365E-01
 0.65200005E+02 -0.62234E-01
 0.65250000E+02 -0.14448E-01
 0.65300003E+02  0.58849E-01
 0.65349998E+02  0.10401E+00
 0.65400002E+02  0.10495E+00
 0.65450005E+02  0.87020E-01
 0.65500000E+02  0.60001E-01
 0.65550003E+02  0.22073E-01
 0.65599998E+02 -0.21742E-01
 0.65650002E+02 -0.60398E-01
 0.65700005E+02 -0.73355E-01
 0.65750000E+02 -0.78248E-01
 0.65800003E+02 -0.67469E-01
 0.65849998E+02 -0.48533E-01
 0.65900002E+02 -0.31336E-01
 0.65950005E+02 -0.10554E-01
 0.66000000E+02 -0.79440E-02
 0.66050003E+02 -0.26440E-01
 0.66099998E+02 -0.40965E-01
 0.66150002E+02 -0.45472E-01
 0.66200005E+02 -0.52159E-01
 0.66250000E+02 -0.47727E-01
 0.66300003E+02 -0.53956E-01
 0.66349998E+02 -0.59817E-01
 0.66400002E+02 -0.50735E-01
 0.66450005E+02 -0.33523E-01
 0.66500000E+02 -0.24036E-01
 0.66550003E+02 -0.35895E-01
 0.66599998E+02 -0.49053E-01
 0.66650002E+02 -0.66454E-01
 0.66700005E+02 -0.47627E-01
 0.66750000E+02 -0.65610E-02
 0.66800003E+02  0.31646E-01
 0.66849998E+02  0.65507E-01
 0.66900002E+02  0.86992E-01
 0.66950005E+02  0.10387E+00
 0.67000000E+02  0.93823E-01
 0.67050003E+02  0.54232E-01
 0.67099998E+02  0.35592E-02
 0.67150002E+02 -0.44681E-01
 0.67200005E+02 -0.75872E-01
 0.67250000E+02 -0.79953E-01
 0.67300003E+02 -0.69516E-01
 0.67349998E+02 -0.50646E-01
 0.67400002E+02 -0.32237E-01
 0.67450005E+02 -0.18096E-01
 0.67500000E+02 -0.88630E-02
 0.67550003E+02 -0.31627E-02
 0.67599998E+02  0.23763E-01
 0.67650002E+02  0.58308E-01
 0.67700005E+02  0.82174E-01
 0.67750000E+02  0.97861E-01
 0.67800003E+02  0.11644E+00
 0.67849998E+02  0.13191E+00
 0.67900002E+02  0.11813E+00
 0.67950005E+02  0.97978E-01
 0.68000000E+02  0.51497E-01
 0.68050003E+02 -0.48407E-02
 0.68099998E+02 -0.29681E-01
 0.68150002E+02 -0.28033E-01
 0.68200005E+02 -0.97846E-02
 0.68250000E+02  0.12582E-01
 0.68300003E+02  0.39476E-01
 0.68349998E+02  0.51441E-01
 0.68400002E+02  0.40035E-01
 0.68450005E+02  0.10706E-01
 0.68500000E+02 -0.46845E-02
 0.68550003E+02 -0.10784E-01
 0.68599998E+02 -0.14036E-01
 0.68650002E+02  0.41424E-02
 0.68700005E+02  0.38184E-01
 0.68750000E+02  0.59954E-01
 0.68800003E+02  0.51522E-01
 0.68849998E+02  0.32666E-01
 0.68900002E+02  0.87516E-02
 0.68950005E+02  0.39640E-02
 0.69000000E+02  0.10833E-01
 0.69050003E+02  0.26225E-02
 0.69099998E+02 -0.16354E-01
 0.69150002E+02 -0.44612E-01
 0.69200005E+02 -0.43891E-01
 0.69250000E+02 -0.33249E-01
 0.69300003E+02 -0.37907E-01
 0.69349998E+02 -0.48138E-01
 0.69400002E+02 -0.75840E-01
 0.69450005E+02 -0.99446E-01
 0.69500000E+02 -0.11088E+00
 0.69550003E+02 -0.99351E-01
 0.69599998E+02 -0.54997E-01
 0.69650002E+02 -0.74590E-02
 0.69700005E+02  0.11614E-01
 0.69750000E+02  0.79287E-02
 0.69800003E+02  0.10089E-01
 0.69849998E+02  0.43025E-01
 0.69900002E+02  0.88010E-01
 0.69950005E+02  0.10380E+00
 0.70000000E+02  0.97076E-01
 0.70050003E+02  0.86355E-01
 0.70099998E+02  0.84534E-01
 0.70150002E+02  0.89498E-01
 0.70200005E+02  0.87706E-01
 0.70250000E+02  0.70826E-01
 0.70300003E+02  0.54130E-01
 0.70349998E+02  0.33892E-01
 0.70400002E+02  0.34227E-02
 0.70450005E+02 -0.27828E-01
 0.70500000E+02 -0.49829E-01
 0.70550003E+02 -0.48102E-01
 0.70599998E+02 -0.49650E-01
 0.70650002E+02 -0.57454E-01
 0.70700005E+02 -0.49198E-01
 0.70750000E+02 -0.23904E-01
 0.70800003E+02  0.72600E-02
 0.70849998E+02  0.14952E-01
 0.70900002E+02 -0.10700E-01
 0.70950005E+02 -0.45430E-01
 0.71000000E+02 -0.67491E-01
 0.71050003E+02 -0.70895E-01
 0.71099998E+02 -0.78285E-01
 0.71150002E+02 -0.96223E-01
 0.71200005E+02 -0.93205E-01
 0.71250000E+02 -0.66859E-01
 0.71300003E+02 -0.28595E-01
 0.71349998E+02  0.14733E-01
 0.71400002E+02  0.29497E-01
 0.71450005E+02  0.13935E-01
 0.71500000E+02 -0.13909E-01
 0.71550003E+02 -0.49363E-01
 0.71599998E+02 -0.77231E-01
 0.71650002E+02 -0.86620E-01
 0.71700005E+02 -0.71187E-01
 0.71750000E+02 -0.53530E-01
 0.71800003E+02 -0.52487E-01
 0.71849998E+02 -0.43623E-01
 0.71900002E+02 -0.15591E-01
 0.71950005E+02  0.12696E-01
 0.72000000E+02  0.31389E-01
 0.72050003E+02  0.55051E-01
 0.72099998E+02  0.78913E-01
 0.72150002E+02  0.94353E-01
 0.72200005E+02  0.92913E-01
 0.72250000E+02  0.71153E-01
 0.72300003E+02  0.47377E-01
 0.72349998E+02  0.28144E-01
 0.72400002E+02  0.91459E-02
 0.72450005E+02 -0.13472E-01
 0.72500000E+02 -0.30126E-01
 0.72550003E+02 -0.47853E-01
 0.72599998E+02 -0.65787E-01
 0.72650002E+02 -0.74026E-01
 0.72700005E+02 -0.61712E-01
 0.72750000E+02 -0.18604E-01
 0.72800003E+02  0.29992E-01
 0.72849998E+02  0.49738E-01
 0.72900002E+02  0.42088E-01
 0.72950005E+02  0.22625E-01
 0.73000000E+02  0.10393E-01
 0.73050003E+02  0.16134E-01
 0.73099998E+02  0.20895E-01
 0.73150002E+02  0.19543E-01
 0.73200005E+02  0.26669E-01
 0.73250000E+02  0.39442E-01
 0.73300003E+02  0.44518E-01
 0.73349998E+02  0.50033E-01
 0.73400002E+02  0.52530E-01
 0.73450005E+02  0.53158E-01
 0.73500000E+02  0.72048E-01
 0.73550003E+02  0.91766E-01
 0.73599998E+02  0.85468E-01
 0.73650002E+02  0.56697E-01
 0.73700005E+02  0.25123E-01
 0.73750000E+02  0.12206E-01
 0.73800003E+02  0.94687E-02
 0.73849998E+02  0.76143E-02
 0.73900002E+02  0.34845E-02
 0.73950005E+02  0.11448E-02
 0.74000000E+02  0.30558E-02
 0.74050003E+02 -0.24630E-02
 0.74099998E+02 -0.82906E-03
 0.74150002E+02 -0.46169E-02
 0.74200005E+02 -0.91690E-02
 0.74250000E+02 -0.43447E-03
 0.74300003E+02  0.16373E-01
 0.74349998E+02  0.35980E-01
 0.74400002E+02  0.33319E-01
 0.74450005E+02  0.20722E-01
 0.74500000E+02  0.22670E-01
 0.74550003E+02  0.36494E-01
 0.74599998E+02  0.43247E-01
 0.74650002E+02  0.32619E-01
 0.74700005E+02  0.10360E-01
 0.74750000E+02 -0.32911E-02
 0.74800003E+02  0.17964E-02
 0.74849998E+02  0.14726E-01
 0.74900002E+02  0.31114E-01
 0.74950005E+02  0.39705E-01
 0.75000000E+02  0.21381E-01
 0.75050003E+02 -0.17425E-01
 0.75099998E+02 -0.52764E-01
 0.75150002E+02 -0.66603E-01
 0.75200005E+02 -0.56027E-01
 0.75250000E+02 -0.33918E-01
 0.75300003E+02 -0.16453E-01
 0.75349998E+02 -0.18467E-01
 0.75400002E+02 -0.39512E-01
 0.75450005E+02 -0.59369E-01
 0.75500000E+02 -0.78498E-01
 0.75550003E+02 -0.10461E+00
 0.75599998E+02 -0.10600E+00
 0.75650002E+02 -0.82413E-01
 0.75700005E+02 -0.43442E-01
 0.75750000E+02  0.29202E-02
 0.75800003E+02  0.26340E-01
 0.75849998E+02  0.16292E-01
 0.75900002E+02 -0.13026E-01
 0.75950005E+02 -0.29586E-01
 0.76000000E+02 -0.34042E-01
 0.76050003E+02 -0.26675E-01
 0.76099998E+02 -0.15979E-01
 0.76150002E+02 -0.10432E-01
 0.76200005E+02 -0.87815E-02
 0.76250000E+02 -0.12353E-01
 0.76300003E+02 -0.44943E-02
 0.76349998E+02  0.14651E-01
 0.76400002E+02  0.27710E-01
 0.76450005E+02  0.30618E-01
 0.76500000E+02  0.37905E-01
 0.76550003E+02  0.47795E-01
 0.76599998E+02  0.43951E-01
 0.76650002E+02  0.22555E-01
 0.76700005E+02 -0.42510E-02
 0.76750000E+02 -0.33022E-01
 0.76800003E+02 -0.38175E-01
 0.76849998E+02 -0.20029E-01
 0.76900002E+02 -0.87663E-02
 0.76950005E+02 -0.15187E-01
 0.77000000E+02 -0.25631E-01
 0.77050003E+02 -0.30997E-01
 0.77099998E+02 -0.41958E-01
 0.77150002E+02 -0.46871E-01
 0.77200005E+02 -0.40977E-01
 0.77250000E+02 -0.33491E-01
 0.77300003E+02 -0.29166E-01
 0.77349998E+02 -0.27610E-01
 0.77400002E+02 -0.35180E-01
 0.77450005E+02 -0.40318E-01
 0.77500000E+02 -0.41305E-01
 0.77550003E+02 -0.49051E-01
 0.77599998E+02 -0.51351E-01
 0.77650002E+02 -0.46781E-01
 0.77700005E+02 -0.36439E-01
 0.77750000E+02 -0.18531E-01
 0.77800003E+02  0.39313E-02
 0.77849998E+02  0.37412E-01
 0.77900002E+02  0.62453E-01
 0.77950005E+02  0.64725E-01
 0.78000000E+02  0.57605E-01
 0.78050003E+02  0.39997E-01
 0.78099998E+02  0.20951E-01
 0.78150002E+02  0.13798E-01
 0.78200005E+02  0.20712E-01
 0.78250000E+02  0.33739E-01
 0.78300003E+02  0.42898E-01
 0.78349998E+02  0.58320E-01
 0.78400002E+02  0.76490E-01
 0.78450005E+02  0.78489E-01
 0.78500000E+02  0.63634E-01
 0.78550003E+02  0.47964E-01
 0.78599998E+02  0.44407E-01
 0.78650002E+02  0.64617E-01
 0.78700005E+02  0.94270E-01
 0.78750000E+02  0.10942E+00
 0.78800003E+02  0.10987E+00
 0.78849998E+02  0.93921E-01
 0.78900002E+02  0.71606E-01
 0.78950005E+02  0.42984E-01
 0.79000000E+02  0.18622E-01
 0.79050003E+02  0.69446E-02
 0.79099998E+02 -0.69174E-02
 0.79150002E+02 -0.29456E-01
 0.79200005E+02 -0.52168E-01
 0.79250000E+02 -0.62436E-01
 0.79300003E+02 -0.60677E-01
 0.79349998E+02 -0.54882E-01
 0.79400002E+02 -0.51643E-01
 0.79450005E+02 -0.50106E-01
 0.79500000E+02 -0.50207E-01
 0.79550003E+02 -0.49404E-01
 0.79599998E+02 -0.47005E-01
 0.79650002E+02 -0.40683E-01
 0.79700005E+02 -0.31629E-01
 0.79750000E+02 -0.25729E-01
 0.79800003E+02 -0.32942E-01
 0.79849998E+02 -0.50366E-01
 0.79900002E+02 -0.68730E-01
 0.79950005E+02 -0.84411E-01
 0.80000000E+02 -0.97554E-01
 0.80050003E+02 -0.11733E+00
 0.80099998E+02 -0.13178E+00
 0.80150002E+02 -0.12278E+00
 0.80200005E+02 -0.95440E-01
 0.80250000E+02 -0.56330E-01
 0.80300003E+02 -0.19366E-01
 0.80349998E+02  0.74812E-02
 0.80400002E+02  0.31073E-01
 0.80450005E+02  0.47216E-01
 0.80500000E+02  0.57491E-01
 0.80550003E+02  0.59337E-01
 0.80599998E+02  0.54063E-01
 0.80650002E+02  0.53726E-01
 0.80700005E+02  0.52850E-01
 0.80750000E+02  0.43735E-01
 0.80800003E+02  0.41561E-01
 0.80849998E+02  0.35197E-01
 0.80900002E+02  0.22186E-01
 0.80950005E+02  0.15946E-01
 0.81000000E+02  0.12098E-01
 0.81050003E+02  0.10894E-01
 0.81099998E+02  0.11318E-01
 0.81150002E+02  0.26795E-01
 0.81200005E+02  0.53882E-01
 0.81250000E+02  0.74412E-01
 0.81300003E+02  0.87739E-01
 0.81349998E+02  0.87655E-01
 0.81400002E+02  0.69057E-01
 0.81450005E+02  0.42416E-01
 0.81500000E+02  0.15210E-01
 0.81550003E+02 -0.68338E-03
 0.81599998E+02  0.18815E-02
 0.81650002E+02  0.91667E-02
 0.81700005E+02  0.86955E-02
 0.81750000E+02  0.72624E-02
 0.81800003E+02  0.15524E-01
 0.81849998E+02  0.28913E-01
 0.81900002E+02  0.45656E-01
 0.81950005E+02  0.55049E-01
 0.82000000E+02  0.48867E-01
 0.82050003E+02  0.39870E-01
 0.82099998E+02  0.30382E-01
 0.82150002E+02  0.15817E-01
 0.82200005E+02 -0.79168E-02
 0.82250000E+02 -0.34469E-01
 0.82300003E+02 -0.55497E-01
 0.82349998E+02 -0.64925E-01
 0.82400002E+02 -0.65167E-01
 0.82450005E+02 -0.66495E-01
 0.82500000E+02 -0.68576E-01
 0.82550003E+02 -0.62300E-01
 0.82599998E+02 -0.39970E-01
 0.82650002E+02 -0.16144E-01
 0.82700005E+02  0.23274E-02
 0.82750000E+02  0.13622E-01
 0.82800003E+02  0.61042E-02
 0.82849998E+02 -0.14530E-01
 0.82900002E+02 -0.29305E-01
 0.82950005E+02 -0.27309E-01
 0.83000000E+02 -0.18559E-01
 0.83050003E+02 -0.11766E-01
 0.83099998E+02 -0.69129E-02
 0.83150002E+02 -0.71196E-02
 0.83200005E+02 -0.10535E-01
 0.83250000E+02 -0.12742E-01
 0.83300003E+02 -0.13887E-01
 0.83349998E+02 -0.13321E-01
 0.83400002E+02 -0.84867E-02
 0.83450005E+02 -0.14951E-02
 0.83500000E+02  0.39211E-03
 0.83550003E+02  0.21504E-02
 0.83599998E+02  0.43307E-02
 0.83650002E+02  0.86979E-02
 0.83700005E+02  0.16448E-01
 0.83750000E+02  0.22017E-01
 0.83800003E+02  0.22799E-01
 0.83849998E+02  0.18854E-01
 0.83900002E+02  0.13150E-01
 0.83950005E+02  0.55113E-02
 0.84000000E+02  0.34025E-02
 0.84050003E+02  0.23884E-02
 0.84099998E+02  0.50601E-02
 0.84150002E+02  0.15077E-01
 0.84200005E+02  0.21896E-01
 0.84250000E+02  0.29802E-01
 0.84300003E+02  0.41813E-01
 0.84349998E+02  0.46351E-01
 0.84400002E+02  0.43526E-01
 0.84450005E+02  0.38165E-01
 0.84500000E+02  0.24923E-01
 0.84550003E+02  0.13229E-01
 0.84599998E+02  0.80788E-02
 0.84650002E+02  0.84000E-02
 0.84700005E+02  0.15916E-01
 0.84750000E+02  0.18596E-01
 0.84800003E+02  0.12646E-01
 0.84849998E+02  0.54773E-02
 0.84900002E+02 -0.34368E-02
 0.84950005E+02 -0.11010E-01
 0.85000000E+02 -0.22324E-01
 0.85050003E+02 -0.41913E-01
 0.85099998E+02 -0.59214E-01
 0.85150002E+02 -0.70434E-01
 0.85200005E+02 -0.73246E-01
 0.85250000E+02 -0.68836E-01
 0.85300003E+02 -0.59645E-01
 0.85349998E+02 -0.52251E-01
 0.85400002E+02 -0.48295E-01
 0.85450005E+02 -0.37796E-01
 0.85500000E+02 -0.24129E-01
 0.85550003E+02 -0.10693E-01
 0.85599998E+02  0.21010E-02
 0.85650002E+02  0.14431E-01
 0.85700005E+02  0.30130E-01
 0.85750000E+02  0.49511E-01
 0.85800003E+02  0.64795E-01
 0.85849998E+02  0.66514E-01
 0.85900002E+02  0.62075E-01
 0.85950005E+02  0.58593E-01
 0.86000000E+02  0.55834E-01
 0.86050003E+02  0.55288E-01
 0.86099998E+02  0.48823E-01
 0.86150002E+02  0.29120E-01
 0.86200005E+02  0.15010E-01
 0.86250000E+02  0.17251E-01
 0.86300003E+02  0.20146E-01
 0.86349998E+02  0.16654E-01
 0.86400002E+02  0.12996E-01
 0.86450005E+02  0.10316E-01
 0.86500000E+02  0.15647E-02
 0.86550003E+02 -0.92617E-02
 0.86599998E+02 -0.20959E-01
 0.86650002E+02 -0.31642E-01
 0.86700005E+02 -0.33817E-01
 0.86750000E+02 -0.32606E-01
 0.86800003E+02 -0.34937E-01
 0.86849998E+02 -0.47655E-01
 0.86900002E+02 -0.58745E-01
 0.86950005E+02 -0.54950E-01
 0.87000000E+02 -0.46179E-01
 0.87050003E+02 -0.46508E-01
 0.87099998E+02 -0.54766E-01
 0.87150002E+02 -0.65615E-01
 0.87200005E+02 -0.72885E-01
 0.87250000E+02 -0.74609E-01
 0.87300003E+02 -0.73494E-01
 0.87349998E+02 -0.69943E-01
 0.87400002E+02 -0.64151E-01
 0.87450005E+02 -0.55686E-01
 0.87500000E+02 -0.51077E-01
 0.87550003E+02 -0.51442E-01
 0.87599998E+02 -0.47892E-01
 0.87650002E+02 -0.37321E-01
 0.87700005E+02 -0.26093E-01
 0.87750000E+02 -0.12642E-01
 0.87800003E+02  0.80524E-02
 0.87849998E+02  0.28056E-01
 0.87900002E+02  0.37962E-01
 0.87950005E+02  0.40247E-01
 0.88000000E+02  0.33388E-01
 0.88050003E+02  0.18432E-01
 0.88099998E+02  0.99530E-02
 0.88150002E+02  0.16084E-01
 0.88200005E+02  0.25202E-01
 0.88250000E+02  0.29280E-01
 0.88300003E+02  0.28897E-01
 0.88349998E+02  0.29154E-01
 0.88400002E+02  0.36359E-01
 0.88450005E+02  0.46458E-01
 0.88500000E+02  0.53493E-01
 0.88550003E+02  0.55193E-01
 0.88599998E+02  0.57123E-01
 0.88650002E+02  0.59746E-01
 0.88700005E+02  0.62412E-01
 0.88750000E+02  0.68708E-01
 0.88800003E+02  0.63778E-01
 0.88849998E+02  0.45844E-01
 0.88900002E+02  0.25959E-01
 0.88950005E+02  0.11794E-01
 0.89000000E+02  0.66433E-02
 0.89050003E+02  0.26869E-02
 0.89099998E+02 -0.42834E-02
 0.89150002E+02 -0.19397E-01
 0.89200005E+02 -0.33372E-01
 0.89250000E+02 -0.49049E-01
 0.89300003E+02 -0.65203E-01
 0.89349998E+02 -0.76169E-01
 0.89400002E+02 -0.88587E-01
 0.89450005E+02 -0.95839E-01
 0.89500000E+02 -0.97619E-01
 0.89550003E+02 -0.87899E-01
 0.89599998E+02 -0.68342E-01
 0.89650002E+02 -0.46985E-01
 0.89700005E+02 -0.28350E-01
 0.89750000E+02 -0.17004E-01
 0.89800003E+02 -0.10849E-01
 0.89849998E+02 -0.91942E-02
 0.89900002E+02 -0.73427E-02
 0.89950005E+02 -0.63898E-03
 0.90000000E+02  0.14343E-01
 0.90050003E+02  0.37180E-01
 0.90099998E+02  0.62511E-01
 0.90150002E+02  0.79224E-01
 0.90200005E+02  0.79259E-01
 0.90250000E+02  0.69119E-01
 0.90300003E+02  0.62232E-01
 0.90349998E+02  0.55540E-01
 0.90400002E+02  0.43482E-01
 0.90450005E+02  0.35729E-01
 0.90500000E+02  0.35747E-01
 0.90550003E+02  0.45535E-01
 0.90599998E+02  0.58854E-01
 0.90650002E+02  0.68630E-01
 0.90700005E+02  0.69751E-01
 0.90750000E+02  0.61425E-01
 0.90800003E+02  0.50483E-01
 0.90849998E+02  0.43889E-01
 0.90900002E+02  0.41962E-01
 0.90950005E+02  0.36372E-01
 0.91000000E+02  0.23562E-01
 0.91050003E+02  0.47831E-02
 0.91099998E+02 -0.14996E-01
 0.91150002E+02 -0.34770E-01
 0.91200005E+02 -0.42380E-01
 0.91250000E+02 -0.37749E-01
 0.91300003E+02 -0.29990E-01
 0.91349998E+02 -0.22342E-01
 0.91400002E+02 -0.14626E-01
 0.91450005E+02 -0.27318E-02
 0.91500000E+02  0.34636E-02
 0.91550003E+02  0.45983E-02
 0.91599998E+02  0.60315E-02
 0.91650002E+02  0.62272E-02
 0.91700005E+02  0.17484E-02
 0.91750000E+02 -0.15902E-02
 0.91800003E+02  0.90458E-03
 0.91849998E+02  0.13891E-02
 0.91900002E+02 -0.33146E-02
 0.91950005E+02 -0.81208E-02
 0.92000000E+02 -0.84537E-02
 0.92050003E+02 -0.48533E-02
 0.92099998E+02 -0.23857E-02
 0.92150002E+02 -0.36592E-02
 0.92200005E+02 -0.81556E-02
 0.92250000E+02 -0.97409E-02
 0.92300003E+02 -0.50555E-02
 0.92349998E+02 -0.18792E-02
 0.92400002E+02 -0.19941E-03
 0.92450005E+02  0.21520E-02
 0.92500000E+02  0.78124E-02
 0.92550003E+02  0.15580E-01
 0.92599998E+02  0.22713E-01
 0.92650002E+02  0.23192E-01
 0.92700005E+02  0.20284E-01
 0.92750000E+02  0.21342E-01
 0.92800003E+02  0.23832E-01
 0.92849998E+02  0.18473E-01
 0.92900002E+02  0.20489E-02
 0.92950005E+02 -0.94799E-02
 0.93000000E+02 -0.12564E-01
 0.93050003E+02 -0.13121E-01
 0.93099998E+02 -0.14683E-01
 0.93150002E+02 -0.14516E-01
 0.93200005E+02 -0.15049E-01
 0.93250000E+02 -0.18599E-01
 0.93300003E+02 -0.20716E-01
 0.93349998E+02 -0.22785E-01
 0.93400002E+02 -0.25001E-01
 0.93450005E+02 -0.31287E-01
 0.93500000E+02 -0.40507E-01
 0.93550003E+02 -0.51588E-01
 0.93599998E+02 -0.62477E-01
 0.93650002E+02 -0.66922E-01
 0.93700005E+02 -0.64790E-01
 0.93750000E+02 -0.56379E-01
 0.93800003E+02 -0.44837E-01
 0.93849998E+02 -0.32964E-01
 0.93900002E+02 -0.21561E-01
 0.93950005E+02 -0.68811E-02
 0.94000000E+02  0.14214E-01
 0.94050003E+02  0.41381E-01
 0.94099998E+02  0.70242E-01
 0.94150002E+02  0.94995E-01
 0.94200005E+02  0.10556E+00
 0.94250000E+02  0.99320E-01
 0.94300003E+02  0.82280E-01
 0.94349998E+02  0.66055E-01
 0.94400002E+02  0.58483E-01
 0.94450005E+02  0.54154E-01
 0.94500000E+02  0.50761E-01
 0.94550003E+02  0.44369E-01
 0.94599998E+02  0.29085E-01
 0.94650002E+02  0.82835E-02
 0.94700005E+02 -0.42605E-02
 0.94750000E+02 -0.67069E-02
 0.94800003E+02 -0.40663E-02
 0.94849998E+02 -0.21307E-02
 0.94900002E+02 -0.92569E-04
 0.94950005E+02  0.58984E-02
 0.95000000E+02  0.18746E-01
 0.95050003E+02  0.40049E-01
 0.95099998E+02  0.57706E-01
 0.95150002E+02  0.64946E-01
 0.95200005E+02  0.60283E-01
 0.95250000E+02  0.41463E-01
 0.95300003E+02  0.17356E-01
 0.95349998E+02 -0.42994E-02
 0.95400002E+02 -0.19728E-01
 0.95450005E+02 -0.29230E-01
 0.95500000E+02 -0.39118E-01
 0.95550003E+02 -0.46808E-01
 0.95599998E+02 -0.48420E-01
 0.95650002E+02 -0.45448E-01
 0.95700005E+02 -0.41554E-01
 0.95750000E+02 -0.43212E-01
 0.95800003E+02 -0.49095E-01
 0.95849998E+02 -0.50760E-01
 0.95900002E+02 -0.49146E-01
 0.95950005E+02 -0.48145E-01
 0.96000000E+02 -0.49991E-01
 0.96050003E+02 -0.55729E-01
 0.96099998E+02 -0.58245E-01
 0.96150002E+02 -0.55592E-01
 0.96200005E+02 -0.52260E-01
 0.96250000E+02 -0.52615E-01
 0.96300003E+02 -0.58419E-01
 0.96349998E+02 -0.61591E-01
 0.96400002E+02 -0.54879E-01
 0.96450005E+02 -0.38698E-01
 0.96500000E+02 -0.20987E-01
 0.96550003E+02 -0.72176E-02
 0.96599998E+02 -0.24159E-03
 0.96650002E+02  0.74974E-03
 0.96700005E+02  0.18428E-02
 0.96750000E+02  0.57916E-02
 0.96800003E+02  0.14424E-01
 0.96849998E+02  0.24156E-01
 0.96900002E+02  0.28937E-01
 0.96950005E+02  0.26888E-01
 0.97000000E+02  0.19337E-01
 0.97050003E+02  0.95968E-02
 0.97099998E+02 -0.35120E-02
 0.97150002E+02 -0.18336E-01
 0.97200005E+02 -0.25548E-01
 0.97250000E+02 -0.24719E-01
 0.97300003E+02 -0.14202E-01
 0.97349998E+02 -0.13188E-03
 0.97400002E+02  0.84196E-02
 0.97450005E+02  0.13352E-01
 0.97500000E+02  0.22394E-01
 0.97550003E+02  0.31880E-01
 0.97599998E+02  0.34752E-01
 0.97650002E+02  0.35671E-01
 0.97700005E+02  0.32925E-01
 0.97750000E+02  0.27395E-01
 0.97800003E+02  0.18092E-01
 0.97849998E+02  0.78148E-02
 0.97900002E+02  0.11415E-02
 0.97950005E+02 -0.77977E-03
 0.98000000E+02  0.28989E-02
 0.98050003E+02  0.86340E-02
 0.98099998E+02  0.11161E-01
 0.98150002E+02  0.91891E-02
 0.98200005E+02  0.66121E-02
 0.98250000E+02  0.46337E-02
 0.98300003E+02  0.29898E-02
 0.98349998E+02  0.25314E-02
 0.98400002E+02  0.18455E-02
 0.98450005E+02  0.70429E-03
 0.98500000E+02 -0.52771E-03
 0.98550003E+02 -0.39668E-02
 0.98599998E+02 -0.79789E-02
 0.98650002E+02 -0.11507E-01
 0.98700005E+02 -0.77682E-02
 0.98750000E+02  0.65459E-02
 0.98800003E+02  0.17199E-01
 0.98849998E+02  0.18445E-01
 0.98900002E+02  0.17385E-01
 0.98950005E+02  0.18702E-01
 0.99000000E+02  0.20717E-01
 0.99050003E+02  0.18151E-01
 0.99099998E+02  0.74463E-02
 0.99150002E+02 -0.76057E-02
 0.99200005E+02 -0.24598E-01
 0.99250000E+02 -0.37210E-01
 0.99300003E+02 -0.39508E-01
 0.99349998E+02 -0.34578E-01
 0.99400002E+02 -0.26058E-01
 0.99450005E+02 -0.22375E-01
 0.99500000E+02 -0.23802E-01
 0.99550003E+02 -0.28665E-01
 0.99599998E+02 -0.35400E-01
 0.99650002E+02 -0.38268E-01
 0.99700005E+02 -0.36030E-01
 0.99750000E+02 -0.28856E-01
 0.99800003E+02 -0.16692E-01
 0.99849998E+02 -0.36522E-02
 0.99900002E+02  0.60549E-02
 0.99950005E+02  0.11429E-01
 0.10000000E+03  0.13471E-01
 0.10005000E+03  0.16224E-01
 0.10010000E+03  0.21830E-01
 0.10015000E+03  0.27642E-01
 0.10020000E+03  0.31118E-01
 0.10025000E+03  0.30485E-01
 0.10030000E+03  0.25955E-01
 0.10035000E+03  0.20861E-01
 0.10040000E+03  0.18019E-01
 0.10045000E+03  0.15055E-01
 0.10050000E+03  0.15026E-01
 0.10055000E+03  0.20426E-01
 0.10060000E+03  0.19641E-01
 0.10065000E+03  0.12395E-01
 0.10070000E+03  0.47455E-02
 0.10075000E+03  0.17429E-03
 0.10080000E+03 -0.10621E-02
 0.10085000E+03 -0.39031E-02
 0.10090000E+03 -0.79268E-02
 0.10095000E+03 -0.11041E-01
 0.10100000E+03 -0.12902E-01
 0.10105000E+03 -0.13485E-01
 0.10110000E+03 -0.12443E-01
 0.10115000E+03 -0.11425E-01
 0.10120000E+03 -0.10644E-01
 0.10125000E+03 -0.11824E-01
 0.10130000E+03 -0.13024E-01
 0.10135000E+03 -0.79175E-02
 0.10140000E+03 -0.68942E-03
 0.10145000E+03  0.28030E-02
 0.10150000E+03  0.35974E-02
 0.10155000E+03  0.86700E-02
 0.10160000E+03  0.18065E-01
 0.10165000E+03  0.25876E-01
 0.10170000E+03  0.32887E-01
 0.10175000E+03  0.38143E-01
 0.10180000E+03  0.41770E-01
 0.10185000E+03  0.44704E-01
 0.10190000E+03  0.46074E-01
 0.10195000E+03  0.45488E-01
 0.10200000E+03  0.43638E-01
 0.10205000E+03  0.41292E-01
 0.10210000E+03  0.40875E-01
 0.10215000E+03  0.40994E-01
 0.10220000E+03  0.34999E-01
 0.10225000E+03  0.23898E-01
 0.10230000E+03  0.12069E-01
 0.10235000E+03  0.15446E-02
 0.10240000E+03 -0.47065E-02
 0.10245000E+03 -0.88556E-02
 0.10250000E+03 -0.14362E-01
 0.10255000E+03 -0.22801E-01
 0.10260000E+03 -0.35130E-01
 0.10265000E+03 -0.45176E-01
 0.10270000E+03 -0.54392E-01
 0.10275000E+03 -0.60595E-01
 0.10280000E+03 -0.61469E-01
 0.10285000E+03 -0.55937E-01
 0.10290000E+03 -0.45794E-01
 0.10295000E+03 -0.39910E-01
 0.10300000E+03 -0.34021E-01
 0.10305000E+03 -0.26346E-01
 0.10310000E+03 -0.18513E-01
 0.10315000E+03 -0.10199E-01
 0.10320000E+03 -0.32924E-02
 0.10325000E+03 -0.18888E-02
 0.10330000E+03 -0.39780E-02
 0.10335000E+03 -0.55934E-02
 0.10340000E+03 -0.29206E-02
 0.10345000E+03  0.30436E-02
 0.10350000E+03  0.38109E-02
 0.10355000E+03 -0.73736E-04
 0.10360000E+03 -0.50475E-02
 0.10365000E+03 -0.10421E-01
 0.10370000E+03 -0.14783E-01
 0.10375000E+03 -0.16327E-01
 0.10380000E+03 -0.15005E-01
 0.10385000E+03 -0.10868E-01
 0.10390000E+03 -0.12317E-02
 0.10395000E+03  0.12844E-01
 0.10400000E+03  0.25919E-01
 0.10405000E+03  0.33050E-01
 0.10410000E+03  0.32021E-01
 0.10415000E+03  0.23454E-01
 0.10420000E+03  0.10008E-01
 0.10425000E+03 -0.53767E-02
 0.10430000E+03 -0.16275E-01
 0.10435000E+03 -0.20182E-01
 0.10440000E+03 -0.21874E-01
 0.10445000E+03 -0.21709E-01
 0.10450000E+03 -0.18276E-01
 0.10455000E+03 -0.12054E-01
 0.10460000E+03 -0.45772E-02
 0.10465000E+03  0.58583E-02
 0.10470000E+03  0.17522E-01
 0.10475000E+03  0.27475E-01
 0.10480000E+03  0.35522E-01
 0.10485000E+03  0.44414E-01
 0.10490000E+03  0.53549E-01
 0.10495000E+03  0.56757E-01
 0.10500000E+03  0.54510E-01
 0.10505000E+03  0.48677E-01
 0.10510000E+03  0.42987E-01
 0.10515000E+03  0.40057E-01
 0.10520000E+03  0.36800E-01
 0.10525000E+03  0.32718E-01
 0.10530000E+03  0.27130E-01
 0.10535000E+03  0.23129E-01
 0.10540000E+03  0.24843E-01
 0.10545000E+03  0.29782E-01
 0.10550000E+03  0.31631E-01
 0.10555000E+03  0.26012E-01
 0.10560000E+03  0.15601E-01
 0.10565000E+03  0.43108E-03
 0.10570000E+03 -0.13817E-01
 0.10575000E+03 -0.21980E-01
 0.10580000E+03 -0.22717E-01
 0.10585000E+03 -0.17414E-01
 0.10590000E+03 -0.12220E-01
 0.10595000E+03 -0.81252E-02
 0.10600000E+03 -0.51029E-02
 0.10605000E+03 -0.55937E-02
 0.10610000E+03 -0.12829E-01
 0.10615000E+03 -0.28350E-01
 0.10620000E+03 -0.47797E-01
 0.10625000E+03 -0.63507E-01
 0.10630000E+03 -0.72345E-01
 0.10635000E+03 -0.72695E-01
 0.10640000E+03 -0.65408E-01
 0.10645000E+03 -0.54086E-01
 0.10650000E+03 -0.41668E-01
 0.10655000E+03 -0.30666E-01
 0.10660000E+03 -0.23141E-01
 0.10665000E+03 -0.19533E-01
 0.10670000E+03 -0.20093E-01
 0.10675000E+03 -0.23907E-01
 0.10680000E+03 -0.28181E-01
 0.10685000E+03 -0.32326E-01
 0.10690000E+03 -0.35448E-01
 0.10695000E+03 -0.34727E-01
 0.10700000E+03 -0.27652E-01
 0.10705000E+03 -0.17528E-01
 0.10710000E+03 -0.11161E-01
 0.10715000E+03 -0.10235E-01
 0.10720000E+03 -0.10829E-01
 0.10725000E+03 -0.76436E-02
 0.10730000E+03 -0.28933E-02
 0.10735000E+03  0.70115E-03
 0.10740000E+03 -0.12982E-02
 0.10745000E+03 -0.92978E-02
 0.10750000E+03 -0.15817E-01
 0.10755000E+03 -0.17756E-01
 0.10760000E+03 -0.15983E-01
 0.10765000E+03 -0.14133E-01
 0.10770000E+03 -0.10056E-01
 0.10775000E+03 -0.44794E-02
 0.10780000E+03  0.40567E-03
 0.10785000E+03  0.48827E-02
 0.10790000E+03  0.68702E-02
 0.10795000E+03  0.92573E-02
 0.10800000E+03  0.14576E-01
 0.10805000E+03  0.22002E-01
 0.10810000E+03  0.30940E-01
 0.10815000E+03  0.39848E-01
 0.10820000E+03  0.43726E-01
 0.10825000E+03  0.42089E-01
 0.10830000E+03  0.39850E-01
 0.10835000E+03  0.37977E-01
 0.10840000E+03  0.37666E-01
 0.10845000E+03  0.39548E-01
 0.10850000E+03  0.38620E-01
 0.10855000E+03  0.33129E-01
 0.10860000E+03  0.27356E-01
 0.10865000E+03  0.24038E-01
 0.10870000E+03  0.22920E-01
 0.10875000E+03  0.22145E-01
 0.10880000E+03  0.21415E-01
 0.10885000E+03  0.23443E-01
 0.10890000E+03  0.27956E-01
 0.10895000E+03  0.31917E-01
 0.10900000E+03  0.31995E-01
 0.10905000E+03  0.28941E-01
 0.10910000E+03  0.25599E-01
 0.10915000E+03  0.22656E-01
 0.10920000E+03  0.19396E-01
 0.10925000E+03  0.15776E-01
 0.10930000E+03  0.13535E-01
 0.10935000E+03  0.13678E-01
 0.10940000E+03  0.17604E-01
 0.10945000E+03  0.21097E-01
 0.10950000E+03  0.20412E-01
 0.10955000E+03  0.12726E-01
 0.10960000E+03 -0.97362E-03
 0.10965000E+03 -0.14090E-01
 0.10970000E+03 -0.23096E-01
 0.10975000E+03 -0.25489E-01
 0.10980000E+03 -0.22686E-01
 0.10985000E+03 -0.16129E-01
 0.10990000E+03 -0.74484E-02
 0.10995000E+03  0.17690E-02
 0.11000000E+03  0.70922E-02
 0.11005000E+03  0.50633E-02
 0.11010000E+03  0.48878E-03
 0.11015000E+03 -0.35109E-02
 0.11020000E+03 -0.57538E-02
 0.11025000E+03 -0.32750E-02
 0.11030000E+03  0.34787E-02
 0.11035000E+03  0.11922E-01
 0.11040000E+03  0.19965E-01
 0.11045000E+03  0.23534E-01
 0.11050000E+03  0.23136E-01
 0.11055000E+03  0.20457E-01
 0.11060000E+03  0.15673E-01
 0.11065000E+03  0.10527E-01
 0.11070000E+03  0.58863E-02
 0.11075000E+03  0.21802E-02
 0.11080000E+03 -0.13655E-02
 0.11085000E+03 -0.39341E-02
 0.11090000E+03 -0.77849E-02
 0.11095000E+03 -0.15166E-01
 0.11100000E+03 -0.23146E-01
 0.11105000E+03 -0.29334E-01
 0.11110000E+03 -0.33259E-01
 0.11115000E+03 -0.34851E-01
 0.11120000E+03 -0.32595E-01
 0.11125000E+03 -0.26799E-01
 0.11130000E+03 -0.20599E-01
 0.11135000E+03 -0.16318E-01
 0.11140000E+03 -0.14393E-01
 0.11145000E+03 -0.14386E-01
 0.11150000E+03 -0.16522E-01
 0.11155000E+03 -0.20145E-01
 0.11160000E+03 -0.26258E-01
 0.11165000E+03 -0.33567E-01
 0.11170000E+03 -0.38672E-01
 0.11175000E+03 -0.39642E-01
 0.11180000E+03 -0.34022E-01
 0.11185000E+03 -0.24910E-01
 0.11190000E+03 -0.15956E-01
 0.11195000E+03 -0.10876E-01
 0.11200000E+03 -0.94601E-02
 0.11205000E+03 -0.86032E-02
 0.11210000E+03 -0.91872E-02
 0.11215000E+03 -0.89064E-02
 0.11220000E+03 -0.62278E-02
 0.11225000E+03 -0.35622E-02
 0.11230000E+03 -0.24401E-02
 0.11235000E+03 -0.52519E-03
 0.11240000E+03  0.33781E-02
 0.11245000E+03  0.75382E-02
 0.11250000E+03  0.10918E-01
 0.11255000E+03  0.14672E-01
 0.11260000E+03  0.19850E-01
 0.11265000E+03  0.24139E-01
 0.11270000E+03  0.23836E-01
 0.11275000E+03  0.20327E-01
 0.11280000E+03  0.17987E-01
 0.11285000E+03  0.17542E-01
 0.11290000E+03  0.18748E-01
 0.11295000E+03  0.19360E-01
 0.11300000E+03  0.18173E-01
 0.11305000E+03  0.17156E-01
 0.11310000E+03  0.18168E-01
 0.11315000E+03  0.20905E-01
 0.11320000E+03  0.22913E-01
 0.11325000E+03  0.23931E-01
 0.11330000E+03  0.24990E-01
 0.11335000E+03  0.24842E-01
 0.11340000E+03  0.24705E-01
 0.11345000E+03  0.25954E-01
 0.11350000E+03  0.26200E-01
 0.11355000E+03  0.23351E-01
 0.11360000E+03  0.16922E-01
 0.11365000E+03  0.83082E-02
 0.11370000E+03 -0.61819E-03
 0.11375000E+03 -0.92804E-02
 0.11380000E+03 -0.19023E-01
 0.11385000E+03 -0.29279E-01
 0.11390000E+03 -0.39344E-01
 0.11395000E+03 -0.46429E-01
 0.11400000E+03 -0.47473E-01
 0.11405000E+03 -0.42835E-01
 0.11410000E+03 -0.34036E-01
 0.11415000E+03 -0.23483E-01
 0.11420000E+03 -0.13234E-01
 0.11425000E+03 -0.52994E-02
 0.11430000E+03 -0.44639E-03
 0.11435000E+03 -0.15797E-02
 0.11440000E+03 -0.68729E-02
 0.11445000E+03 -0.10475E-01
 0.11450000E+03 -0.11827E-01
 0.11455000E+03 -0.13586E-01
 0.11460000E+03 -0.15206E-01
 0.11465000E+03 -0.15613E-01
 0.11470000E+03 -0.15389E-01
 0.11475000E+03 -0.14168E-01
 0.11480000E+03 -0.14312E-01
 0.11485000E+03 -0.14835E-01
 0.11490000E+03 -0.14356E-01
 0.11495000E+03 -0.13324E-01
 0.11500000E+03 -0.11323E-01
 0.11505000E+03 -0.10101E-01
 0.11510000E+03 -0.79619E-02
 0.11515000E+03 -0.36364E-02
 0.11520000E+03  0.24220E-02
 0.11525000E+03  0.10777E-01
 0.11530000E+03  0.18416E-01
 0.11535000E+03  0.22478E-01
 0.11540000E+03  0.23667E-01
 0.11545000E+03  0.23658E-01
 0.11550000E+03  0.25677E-01
 0.11555000E+03  0.29506E-01
 0.11560000E+03  0.32291E-01
 0.11565000E+03  0.31606E-01
 0.11570000E+03  0.28465E-01
 0.11575000E+03  0.27244E-01
 0.11580000E+03  0.28839E-01
 0.11585000E+03  0.31470E-01
 0.11590000E+03  0.30308E-01
 0.11595000E+03  0.23811E-01
 0.11600000E+03  0.12332E-01
 0.11605000E+03 -0.47257E-03
 0.11610000E+03 -0.10597E-01
 0.11615000E+03 -0.17518E-01
 0.11620000E+03 -0.20594E-01
 0.11625000E+03 -0.23172E-01
 0.11630000E+03 -0.27090E-01
 0.11635000E+03 -0.31754E-01
 0.11640000E+03 -0.35240E-01
 0.11645000E+03 -0.36606E-01
 0.11650000E+03 -0.38168E-01
 0.11655000E+03 -0.41806E-01
 0.11660000E+03 -0.48369E-01
 0.11665000E+03 -0.56866E-01
 0.11670000E+03 -0.62287E-01
 0.11675000E+03 -0.61260E-01
 0.11680000E+03 -0.56144E-01
 0.11685000E+03 -0.50307E-01
 0.11690000E+03 -0.45914E-01
 0.11695000E+03 -0.42024E-01
 0.11700000E+03 -0.35995E-01
 0.11705000E+03 -0.28057E-01
 0.11710000E+03 -0.18911E-01
 0.11715000E+03 -0.11090E-01
 0.11720000E+03 -0.64655E-02
 0.11725000E+03 -0.33446E-02
 0.11730000E+03 -0.11826E-02
 0.11735000E+03 -0.16284E-03
 0.11740000E+03 -0.16230E-02
 0.11745000E+03 -0.58565E-02
 0.11750000E+03 -0.10469E-01
 0.11755000E+03 -0.10438E-01
 0.11760000E+03 -0.34875E-02
 0.11765000E+03  0.64168E-02
 0.11770000E+03  0.16631E-01
 0.11775000E+03  0.26455E-01
 0.11780000E+03  0.34273E-01
 0.11785000E+03  0.40837E-01
 0.11790000E+03  0.46104E-01
 0.11795000E+03  0.48176E-01
 0.11800000E+03  0.47128E-01
 0.11805000E+03  0.45207E-01
 0.11810000E+03  0.45145E-01
 0.11815000E+03  0.46511E-01
 0.11820000E+03  0.48328E-01
 0.11825000E+03  0.50156E-01
 0.11830000E+03  0.51157E-01
 0.11835000E+03  0.50558E-01
 0.11840000E+03  0.50019E-01
 0.11845000E+03  0.50793E-01
 0.11850000E+03  0.49516E-01
 0.11855000E+03  0.43735E-01
 0.11860000E+03  0.36524E-01
 0.11865000E+03  0.30801E-01
 0.11870000E+03  0.25975E-01
 0.11875000E+03  0.22880E-01
 0.11880000E+03  0.19662E-01
 0.11885000E+03  0.13500E-01
 0.11890000E+03  0.34374E-02
 0.11895000E+03 -0.76784E-02
 0.11900000E+03 -0.19364E-01
 0.11905000E+03 -0.32802E-01
 0.11910000E+03 -0.43560E-01
 0.11915000E+03 -0.50167E-01
 0.11920000E+03 -0.53001E-01
 0.11925000E+03 -0.54315E-01
 0.11930000E+03 -0.53934E-01
 0.11935000E+03 -0.49744E-01
 0.11940000E+03 -0.42654E-01
 0.11945000E+03 -0.34131E-01
 0.11950000E+03 -0.25020E-01
 0.11955000E+03 -0.15158E-01
 0.11960000E+03 -0.50896E-02
 0.11965000E+03  0.28157E-02
 0.11970000E+03  0.81478E-02
 0.11975000E+03  0.11471E-01
 0.11980000E+03  0.12596E-01
 0.11985000E+03  0.12064E-01
 0.11990000E+03  0.94641E-02
 0.11995000E+03  0.60127E-02
 0.12000000E+03  0.18917E-02
