 0.00000000E+00 -0.80707E-04
 0.50000001E-01 -0.76002E-04
 0.10000000E+00 -0.38013E-04
 0.15000001E+00 -0.29684E-04
 0.20000000E+00  0.29043E-04
 0.25000000E+00  0.75077E-04
 0.30000001E+00  0.12733E-03
 0.34999999E+00  0.16608E-03
 0.40000001E+00  0.17934E-03
 0.45000002E+00  0.20941E-03
 0.50000000E+00  0.27004E-03
 0.55000001E+00  0.34944E-03
 0.60000002E+00  0.38949E-03
 0.65000004E+00  0.43624E-03
 0.69999999E+00  0.48923E-03
 0.75000000E+00  0.57688E-03
 0.80000001E+00  0.65992E-03
 0.85000002E+00  0.74276E-03
 0.90000004E+00  0.76955E-03
 0.94999999E+00  0.79128E-03
 0.10000000E+01  0.82053E-03
 0.10500001E+01  0.81660E-03
 0.11000000E+01  0.79516E-03
 0.11500000E+01  0.72387E-03
 0.12000000E+01  0.63499E-03
 0.12500000E+01  0.49668E-03
 0.13000001E+01  0.37045E-03
 0.13500000E+01  0.19141E-03
 0.14000000E+01 -0.11867E-04
 0.14500000E+01 -0.20065E-03
 0.15000000E+01 -0.42152E-03
 0.15500001E+01 -0.61830E-03
 0.16000000E+01 -0.80857E-03
 0.16500000E+01 -0.10005E-02
 0.17000000E+01 -0.12162E-02
 0.17500000E+01 -0.14070E-02
 0.18000001E+01 -0.15650E-02
 0.18500000E+01 -0.17133E-02
 0.19000000E+01 -0.18154E-02
 0.19500000E+01 -0.18779E-02
 0.20000000E+01 -0.19452E-02
 0.20500000E+01 -0.19794E-02
 0.21000001E+01 -0.19969E-02
 0.21500001E+01 -0.19589E-02
 0.22000000E+01 -0.18697E-02
 0.22500000E+01 -0.17674E-02
 0.23000000E+01 -0.16225E-02
 0.23500001E+01 -0.14991E-02
 0.24000001E+01 -0.13746E-02
 0.24500000E+01 -0.11996E-02
 0.25000000E+01 -0.98810E-03
 0.25500000E+01 -0.78473E-03
 0.26000001E+01 -0.58828E-03
 0.26500001E+01 -0.38487E-03
 0.27000000E+01 -0.17504E-03
 0.27500000E+01 -0.15618E-04
 0.28000000E+01  0.20088E-03
 0.28500001E+01  0.42118E-03
 0.29000001E+01  0.61310E-03
 0.29500000E+01  0.79043E-03
 0.30000000E+01  0.95140E-03
 0.30500000E+01  0.11131E-02
 0.31000001E+01  0.12580E-02
 0.31500001E+01  0.14375E-02
 0.32000000E+01  0.15629E-02
 0.32500000E+01  0.17027E-02
 0.33000000E+01  0.18176E-02
 0.33500001E+01  0.19633E-02
 0.34000001E+01  0.20842E-02
 0.34500000E+01  0.21533E-02
 0.35000000E+01  0.22227E-02
 0.35500000E+01  0.22296E-02
 0.36000001E+01  0.22486E-02
 0.36500001E+01  0.22374E-02
 0.37000000E+01  0.22083E-02
 0.37500000E+01  0.21289E-02
 0.38000000E+01  0.20362E-02
 0.38500001E+01  0.19171E-02
 0.39000001E+01  0.17649E-02
 0.39500000E+01  0.16458E-02
 0.40000000E+01  0.14639E-02
 0.40500002E+01  0.12317E-02
 0.40999999E+01  0.97245E-03
 0.41500001E+01  0.69504E-03
 0.42000003E+01  0.42687E-03
 0.42500000E+01  0.19004E-03
 0.43000002E+01 -0.31326E-04
 0.43499999E+01 -0.26038E-03
 0.44000001E+01 -0.44182E-03
 0.44500003E+01 -0.61718E-03
 0.45000000E+01 -0.77914E-03
 0.45500002E+01 -0.90332E-03
 0.45999999E+01 -0.10195E-02
 0.46500001E+01 -0.11130E-02
 0.47000003E+01 -0.12258E-02
 0.47500000E+01 -0.13177E-02
 0.48000002E+01 -0.14046E-02
 0.48499999E+01 -0.14754E-02
 0.49000001E+01 -0.15404E-02
 0.49500003E+01 -0.15943E-02
 0.50000000E+01 -0.16442E-02
 0.50500002E+01 -0.16876E-02
 0.50999999E+01 -0.17000E-02
 0.51500001E+01 -0.17072E-02
 0.52000003E+01 -0.16805E-02
 0.52500000E+01 -0.16894E-02
 0.53000002E+01 -0.16876E-02
 0.53499999E+01 -0.16639E-02
 0.54000001E+01 -0.16177E-02
 0.54500003E+01 -0.15322E-02
 0.55000000E+01 -0.14490E-02
 0.55500002E+01 -0.13434E-02
 0.55999999E+01 -0.12074E-02
 0.56500001E+01 -0.10569E-02
 0.57000003E+01 -0.85510E-03
 0.57500000E+01 -0.64270E-03
 0.58000002E+01 -0.40790E-03
 0.58499999E+01 -0.17659E-03
 0.59000001E+01  0.36560E-04
 0.59500003E+01  0.29029E-03
 0.60000000E+01  0.49669E-03
 0.60500002E+01  0.69975E-03
 0.60999999E+01  0.84438E-03
 0.61500001E+01  0.95817E-03
 0.62000003E+01  0.11010E-02
 0.62500000E+01  0.12216E-02
 0.63000002E+01  0.13515E-02
 0.63499999E+01  0.14184E-02
 0.64000001E+01  0.14418E-02
 0.64500003E+01  0.14630E-02
 0.65000000E+01  0.14485E-02
 0.65500002E+01  0.14182E-02
 0.65999999E+01  0.13980E-02
 0.66500001E+01  0.13577E-02
 0.67000003E+01  0.13197E-02
 0.67500000E+01  0.12942E-02
 0.68000002E+01  0.12686E-02
 0.68499999E+01  0.12353E-02
 0.69000001E+01  0.11842E-02
 0.69500003E+01  0.11510E-02
 0.70000000E+01  0.10857E-02
 0.70500002E+01  0.10282E-02
 0.70999999E+01  0.95276E-03
 0.71500001E+01  0.87279E-03
 0.72000003E+01  0.77844E-03
 0.72500000E+01  0.67153E-03
 0.73000002E+01  0.57145E-03
 0.73499999E+01  0.43127E-03
 0.74000001E+01  0.29730E-03
 0.74500003E+01  0.18957E-03
 0.75000000E+01  0.81646E-04
 0.75500002E+01 -0.69518E-04
 0.75999999E+01 -0.17472E-03
 0.76500001E+01 -0.29312E-03
 0.77000003E+01 -0.40359E-03
 0.77500000E+01 -0.51330E-03
 0.78000002E+01 -0.63341E-03
 0.78499999E+01 -0.74408E-03
 0.79000001E+01 -0.85943E-03
 0.79500003E+01 -0.93983E-03
 0.80000000E+01 -0.10363E-02
 0.80500002E+01 -0.10911E-02
 0.81000004E+01 -0.11101E-02
 0.81500006E+01 -0.11149E-02
 0.81999998E+01 -0.10822E-02
 0.82500000E+01 -0.10123E-02
 0.83000002E+01 -0.92077E-03
 0.83500004E+01 -0.82165E-03
 0.84000006E+01 -0.72958E-03
 0.84499998E+01 -0.67438E-03
 0.85000000E+01 -0.59298E-03
 0.85500002E+01 -0.52796E-03
 0.86000004E+01 -0.44281E-03
 0.86500006E+01 -0.36917E-03
 0.86999998E+01 -0.33257E-03
 0.87500000E+01 -0.29552E-03
 0.88000002E+01 -0.29369E-03
 0.88500004E+01 -0.27550E-03
 0.89000006E+01 -0.27487E-03
 0.89499998E+01 -0.23858E-03
 0.90000000E+01 -0.19416E-03
 0.90500002E+01 -0.15035E-03
 0.91000004E+01 -0.12399E-03
 0.91500006E+01 -0.73706E-04
 0.91999998E+01  0.47656E-05
 0.92500000E+01  0.90358E-04
 0.93000002E+01  0.19456E-03
 0.93500004E+01  0.27429E-03
 0.94000006E+01  0.39674E-03
 0.94499998E+01  0.48885E-03
 0.95000000E+01  0.54171E-03
 0.95500002E+01  0.59007E-03
 0.96000004E+01  0.61151E-03
 0.96500006E+01  0.60695E-03
 0.96999998E+01  0.64052E-03
 0.97500000E+01  0.66989E-03
 0.98000002E+01  0.66954E-03
 0.98500004E+01  0.70618E-03
 0.99000006E+01  0.70591E-03
 0.99499998E+01  0.73054E-03
 0.10000000E+02  0.78952E-03
 0.10050000E+02  0.81811E-03
 0.10100000E+02  0.85583E-03
 0.10150001E+02  0.83905E-03
 0.10200000E+02  0.84400E-03
 0.10250000E+02  0.83824E-03
 0.10300000E+02  0.80151E-03
 0.10350000E+02  0.79544E-03
 0.10400001E+02  0.79756E-03
 0.10450000E+02  0.78415E-03
 0.10500000E+02  0.74258E-03
 0.10550000E+02  0.73383E-03
 0.10600000E+02  0.70733E-03
 0.10650001E+02  0.66703E-03
 0.10700000E+02  0.60033E-03
 0.10750000E+02  0.54926E-03
 0.10800000E+02  0.48155E-03
 0.10850000E+02  0.41000E-03
 0.10900001E+02  0.31758E-03
 0.10950000E+02  0.20988E-03
 0.11000000E+02  0.11539E-03
 0.11050000E+02  0.27656E-04
 0.11100000E+02 -0.18982E-04
 0.11150001E+02 -0.92686E-04
 0.11200000E+02 -0.12501E-03
 0.11250000E+02 -0.16411E-03
 0.11300000E+02 -0.19879E-03
 0.11350000E+02 -0.18717E-03
 0.11400001E+02 -0.21157E-03
 0.11450000E+02 -0.22354E-03
 0.11500000E+02 -0.21096E-03
 0.11550000E+02 -0.21555E-03
 0.11600000E+02 -0.20922E-03
 0.11650001E+02 -0.21434E-03
 0.11700000E+02 -0.19440E-03
 0.11750000E+02 -0.17823E-03
 0.11800000E+02 -0.13747E-03
 0.11850000E+02 -0.89993E-04
 0.11900001E+02 -0.75615E-04
 0.11950000E+02 -0.61721E-04
 0.12000000E+02 -0.81904E-04
 0.12050000E+02 -0.96870E-04
 0.12100000E+02 -0.83265E-04
 0.12150001E+02 -0.89348E-04
 0.12200000E+02 -0.11974E-03
 0.12250000E+02 -0.13165E-03
 0.12300000E+02 -0.13670E-03
 0.12350000E+02 -0.11752E-03
 0.12400001E+02 -0.79039E-04
 0.12450000E+02 -0.14389E-04
 0.12500000E+02  0.27020E-04
 0.12550000E+02  0.72987E-04
 0.12600000E+02  0.14040E-03
 0.12650001E+02  0.21725E-03
 0.12700000E+02  0.27729E-03
 0.12750000E+02  0.32290E-03
 0.12800000E+02  0.38360E-03
 0.12850000E+02  0.43043E-03
 0.12900001E+02  0.48699E-03
 0.12950000E+02  0.52352E-03
 0.13000000E+02  0.56369E-03
 0.13050000E+02  0.58692E-03
 0.13100000E+02  0.58390E-03
 0.13150001E+02  0.61297E-03
 0.13200000E+02  0.64877E-03
 0.13250000E+02  0.69742E-03
 0.13300000E+02  0.71832E-03
 0.13350000E+02  0.73199E-03
 0.13400001E+02  0.75516E-03
 0.13450000E+02  0.77478E-03
 0.13500000E+02  0.81110E-03
 0.13550000E+02  0.84779E-03
 0.13600000E+02  0.91385E-03
 0.13650001E+02  0.10097E-02
 0.13700000E+02  0.10672E-02
 0.13750000E+02  0.11059E-02
 0.13800000E+02  0.11391E-02
 0.13850000E+02  0.11138E-02
 0.13900001E+02  0.11075E-02
 0.13950000E+02  0.10958E-02
 0.14000000E+02  0.10327E-02
 0.14050000E+02  0.91784E-03
 0.14100000E+02  0.76390E-03
 0.14150001E+02  0.60744E-03
 0.14200000E+02  0.44384E-03
 0.14250000E+02  0.24515E-03
 0.14300000E+02  0.44808E-04
 0.14350000E+02 -0.15187E-03
 0.14400001E+02 -0.34398E-03
 0.14450000E+02 -0.51186E-03
 0.14500000E+02 -0.68722E-03
 0.14550000E+02 -0.83873E-03
 0.14600000E+02 -0.93040E-03
 0.14650001E+02 -0.10056E-02
 0.14700000E+02 -0.10470E-02
 0.14750000E+02 -0.10517E-02
 0.14800000E+02 -0.10553E-02
 0.14850000E+02 -0.10253E-02
 0.14900001E+02 -0.98311E-03
 0.14950000E+02 -0.91715E-03
 0.15000000E+02 -0.82514E-03
 0.15050000E+02 -0.73167E-03
 0.15100000E+02 -0.66344E-03
 0.15150001E+02 -0.60281E-03
 0.15200000E+02 -0.54993E-03
 0.15250000E+02 -0.51089E-03
 0.15300000E+02 -0.45950E-03
 0.15350000E+02 -0.41317E-03
 0.15400001E+02 -0.34534E-03
 0.15450000E+02 -0.29611E-03
 0.15500000E+02 -0.27000E-03
 0.15550000E+02 -0.22342E-03
 0.15600000E+02 -0.17744E-03
 0.15650001E+02 -0.96244E-04
 0.15700000E+02  0.17120E-04
 0.15750000E+02  0.14300E-03
 0.15800000E+02  0.27244E-03
 0.15850000E+02  0.40352E-03
 0.15900001E+02  0.51833E-03
 0.15950000E+02  0.62962E-03
 0.16000000E+02  0.74554E-03
 0.16050001E+02  0.85225E-03
 0.16100000E+02  0.97627E-03
 0.16150000E+02  0.10951E-02
 0.16200001E+02  0.11502E-02
 0.16250000E+02  0.11800E-02
 0.16300001E+02  0.12190E-02
 0.16350000E+02  0.12217E-02
 0.16400000E+02  0.12308E-02
 0.16450001E+02  0.12372E-02
 0.16500000E+02  0.12346E-02
 0.16550001E+02  0.12093E-02
 0.16600000E+02  0.11874E-02
 0.16650000E+02  0.11759E-02
 0.16700001E+02  0.11406E-02
 0.16750000E+02  0.10965E-02
 0.16800001E+02  0.10493E-02
 0.16850000E+02  0.97143E-03
 0.16900000E+02  0.86428E-03
 0.16950001E+02  0.79151E-03
 0.17000000E+02  0.71738E-03
 0.17050001E+02  0.64549E-03
 0.17100000E+02  0.56565E-03
 0.17150000E+02  0.45317E-03
 0.17200001E+02  0.34839E-03
 0.17250000E+02  0.27854E-03
 0.17300001E+02  0.20524E-03
 0.17350000E+02  0.15005E-03
 0.17400000E+02  0.99280E-04
 0.17450001E+02  0.48870E-04
 0.17500000E+02  0.33876E-04
 0.17550001E+02  0.13844E-04
 0.17600000E+02  0.13884E-04
 0.17650000E+02  0.20046E-04
 0.17700001E+02  0.40697E-05
 0.17750000E+02 -0.38295E-04
 0.17800001E+02 -0.45628E-04
 0.17850000E+02 -0.11631E-04
 0.17900000E+02 -0.33331E-05
 0.17950001E+02 -0.27360E-04
 0.18000000E+02 -0.71035E-04
 0.18050001E+02 -0.11530E-03
 0.18100000E+02 -0.16095E-03
 0.18150000E+02 -0.17887E-03
 0.18200001E+02 -0.16886E-03
 0.18250000E+02 -0.15492E-03
 0.18300001E+02 -0.14900E-03
 0.18350000E+02 -0.21559E-03
 0.18400000E+02 -0.14013E-03
 0.18450001E+02 -0.22039E-03
 0.18500000E+02 -0.48396E-03
 0.18550001E+02 -0.28387E-03
 0.18600000E+02 -0.42064E-03
 0.18650000E+02 -0.17647E-03
 0.18700001E+02 -0.56503E-03
 0.18750000E+02  0.27659E-03
 0.18800001E+02 -0.65816E-03
 0.18850000E+02  0.48367E-03
 0.18900000E+02 -0.37249E-03
 0.18950001E+02  0.90019E-03
 0.19000000E+02 -0.44254E-03
 0.19050001E+02  0.70756E-03
 0.19100000E+02 -0.59736E-03
 0.19150000E+02 -0.50554E-04
 0.19200001E+02 -0.15877E-02
 0.19250000E+02 -0.14796E-02
 0.19300001E+02  0.12770E-02
 0.19350000E+02  0.77369E-02
 0.19400000E+02  0.23049E-01
 0.19450001E+02  0.23733E-01
 0.19500000E+02  0.57604E-01
 0.19550001E+02  0.47178E-01
 0.19600000E+02  0.21594E-01
 0.19650000E+02  0.13683E-01
 0.19700001E+02  0.22393E-01
 0.19750000E+02 -0.24869E-01
 0.19800001E+02 -0.28371E-01
 0.19850000E+02 -0.68604E-02
 0.19900000E+02 -0.42386E-01
 0.19950001E+02 -0.25674E-01
 0.20000000E+02  0.23631E-01
 0.20050001E+02  0.36757E-01
 0.20100000E+02  0.38222E-01
 0.20150000E+02  0.97122E-02
 0.20200001E+02  0.34800E-02
 0.20250000E+02 -0.13832E-01
 0.20300001E+02 -0.90939E-02
 0.20350000E+02  0.68491E-01
 0.20400000E+02  0.16326E-01
 0.20450001E+02 -0.31366E-01
 0.20500000E+02  0.21983E-01
 0.20550001E+02  0.60696E-01
 0.20600000E+02 -0.44655E-01
 0.20650000E+02  0.17603E-01
 0.20700001E+02  0.46811E-01
 0.20750000E+02 -0.11523E-01
 0.20800001E+02 -0.80520E-01
 0.20850000E+02 -0.10118E+00
 0.20900000E+02  0.65420E-01
 0.20950001E+02  0.42551E-01
 0.21000000E+02 -0.14692E-01
 0.21050001E+02  0.10594E+00
 0.21100000E+02  0.23148E-01
 0.21150000E+02 -0.11458E+00
 0.21200001E+02 -0.66881E-01
 0.21250000E+02  0.51409E-01
 0.21300001E+02  0.13935E+00
 0.21350000E+02 -0.12781E-01
 0.21400000E+02 -0.13892E+00
 0.21450001E+02 -0.11389E+00
 0.21500000E+02 -0.86103E-01
 0.21550001E+02 -0.49638E-01
 0.21600000E+02  0.13550E+00
 0.21650000E+02 -0.96462E-03
 0.21700001E+02 -0.26564E+00
 0.21750000E+02 -0.89798E-01
 0.21800001E+02  0.22192E+00
 0.21850000E+02  0.33697E+00
 0.21900000E+02  0.60070E-01
 0.21950001E+02 -0.19044E+00
 0.22000000E+02 -0.14967E+00
 0.22050001E+02  0.47149E-02
 0.22100000E+02  0.44042E-01
 0.22150000E+02  0.21139E-01
 0.22200001E+02  0.24673E-01
 0.22250000E+02 -0.28183E-01
 0.22300001E+02 -0.81012E-01
 0.22350000E+02 -0.44488E-01
 0.22400000E+02 -0.76281E-02
 0.22450001E+02  0.20482E-02
 0.22500000E+02  0.68257E-01
 0.22550001E+02  0.53106E-01
 0.22600000E+02  0.42704E-02
 0.22650000E+02  0.31260E-01
 0.22700001E+02  0.42683E-03
 0.22750000E+02 -0.90176E-01
 0.22800001E+02 -0.28647E-01
 0.22850000E+02 -0.18255E-01
 0.22900000E+02 -0.95768E-02
 0.22950001E+02  0.12184E+00
 0.23000000E+02  0.17032E+00
 0.23050001E+02  0.55494E-01
 0.23100000E+02 -0.11313E+00
 0.23150000E+02 -0.10984E+00
 0.23200001E+02 -0.17081E+00
 0.23250000E+02 -0.18937E+00
 0.23300001E+02  0.39813E-01
 0.23350000E+02  0.17833E+00
 0.23400000E+02  0.13337E+00
 0.23450001E+02  0.32783E-01
 0.23500000E+02 -0.48402E-01
 0.23550001E+02 -0.97718E-01
 0.23600000E+02 -0.86301E-01
 0.23650000E+02 -0.41197E-01
 0.23700001E+02  0.11177E-01
 0.23750000E+02  0.10377E+00
 0.23800001E+02  0.75462E-01
 0.23850000E+02 -0.29349E-01
 0.23900000E+02 -0.26332E-02
 0.23950001E+02  0.65225E-01
 0.24000000E+02  0.77363E-01
 0.24050001E+02  0.56183E-01
 0.24100000E+02  0.43831E-01
 0.24150000E+02 -0.60784E-01
 0.24200001E+02 -0.12766E+00
 0.24250000E+02 -0.65328E-01
 0.24300001E+02  0.22281E-01
 0.24350000E+02  0.43700E-01
 0.24400000E+02 -0.66790E-02
 0.24450001E+02 -0.85632E-01
 0.24500000E+02 -0.15170E+00
 0.24550001E+02 -0.12253E+00
 0.24600000E+02 -0.93957E-01
 0.24650000E+02  0.14082E-01
 0.24700001E+02  0.14559E+00
 0.24750000E+02  0.13810E+00
 0.24800001E+02  0.11423E+00
 0.24850000E+02  0.15224E+00
 0.24900000E+02  0.14745E+00
 0.24950001E+02  0.10427E+00
 0.25000000E+02  0.99928E-01
 0.25050001E+02  0.48093E-01
 0.25100000E+02 -0.41238E-01
 0.25150000E+02 -0.48093E-01
 0.25200001E+02 -0.65710E-01
 0.25250000E+02 -0.10672E+00
 0.25300001E+02 -0.14136E+00
 0.25350000E+02 -0.14706E+00
 0.25400000E+02 -0.44492E-01
 0.25450001E+02  0.41883E-01
 0.25500000E+02  0.17811E-01
 0.25550001E+02  0.17178E-01
 0.25600000E+02  0.13737E+00
 0.25650000E+02  0.14741E+00
 0.25700001E+02  0.58996E-01
 0.25750000E+02  0.80544E-01
 0.25800001E+02  0.98298E-01
 0.25850000E+02  0.82106E-01
 0.25900000E+02  0.12558E+00
 0.25950001E+02  0.10543E+00
 0.26000000E+02  0.31203E-01
 0.26050001E+02 -0.42381E-01
 0.26100000E+02 -0.11400E+00
 0.26150000E+02 -0.11940E+00
 0.26200001E+02 -0.14360E+00
 0.26250000E+02 -0.21453E+00
 0.26300001E+02 -0.20509E+00
 0.26350000E+02 -0.58042E-01
 0.26400000E+02  0.50716E-01
 0.26450001E+02  0.92574E-01
 0.26500000E+02  0.15830E+00
 0.26550001E+02  0.16143E+00
 0.26600000E+02  0.27242E-01
 0.26650000E+02 -0.87051E-01
 0.26700001E+02 -0.99003E-02
 0.26750000E+02  0.82672E-01
 0.26800001E+02  0.41168E-01
 0.26850000E+02 -0.38789E-01
 0.26900000E+02 -0.88926E-01
 0.26950001E+02 -0.28464E-01
 0.27000000E+02  0.54117E-01
 0.27050001E+02  0.79703E-01
 0.27100000E+02  0.33525E-01
 0.27150000E+02 -0.59654E-01
 0.27200001E+02 -0.19176E-01
 0.27250000E+02  0.25283E-01
 0.27300001E+02 -0.35318E-01
 0.27350000E+02 -0.11784E+00
 0.27400000E+02 -0.25830E+00
 0.27450001E+02 -0.37342E+00
 0.27500000E+02 -0.31099E+00
 0.27550001E+02 -0.22638E+00
 0.27600000E+02 -0.13101E+00
 0.27650000E+02 -0.17737E-01
 0.27700001E+02  0.23750E-01
 0.27750000E+02  0.16871E+00
 0.27800001E+02  0.34949E+00
 0.27850000E+02  0.32682E+00
 0.27900000E+02  0.23665E+00
 0.27950001E+02  0.14051E+00
 0.28000000E+02  0.10667E-01
 0.28050001E+02 -0.96611E-01
 0.28100000E+02 -0.14739E+00
 0.28150000E+02 -0.15618E+00
 0.28200001E+02 -0.13291E+00
 0.28250000E+02 -0.55256E-01
 0.28300001E+02 -0.17891E-02
 0.28350000E+02  0.37289E-01
 0.28400000E+02 -0.28449E-01
 0.28450001E+02 -0.15309E+00
 0.28500000E+02 -0.21591E+00
 0.28550001E+02 -0.19827E+00
 0.28600000E+02 -0.78254E-01
 0.28650000E+02  0.10556E+00
 0.28700001E+02  0.14703E+00
 0.28750000E+02  0.15518E+00
 0.28800001E+02  0.17119E+00
 0.28850000E+02  0.10723E+00
 0.28900000E+02  0.12466E+00
 0.28950001E+02  0.17612E+00
 0.29000000E+02  0.12861E+00
 0.29050001E+02  0.41083E-01
 0.29100000E+02 -0.41476E-01
 0.29150000E+02 -0.16358E+00
 0.29200001E+02 -0.18161E+00
 0.29250000E+02 -0.15162E+00
 0.29300001E+02 -0.89554E-01
 0.29350000E+02 -0.59808E-02
 0.29400000E+02  0.10848E+00
 0.29450001E+02  0.24026E+00
 0.29500000E+02  0.24015E+00
 0.29550001E+02  0.12623E+00
 0.29600000E+02 -0.15275E-01
 0.29650000E+02 -0.45282E-01
 0.29700001E+02 -0.21467E-01
 0.29750000E+02 -0.76059E-02
 0.29800001E+02 -0.61947E-01
 0.29850000E+02 -0.11658E+00
 0.29900000E+02 -0.15174E+00
 0.29950001E+02 -0.17271E+00
 0.30000000E+02 -0.61993E-01
 0.30050001E+02  0.29771E-01
 0.30100000E+02  0.30760E-01
 0.30150000E+02  0.19143E-01
 0.30200001E+02  0.36566E-01
 0.30250000E+02  0.34238E-01
 0.30300001E+02  0.84337E-01
 0.30350000E+02  0.12878E+00
 0.30400000E+02  0.10429E+00
 0.30450001E+02  0.11763E+00
 0.30500000E+02  0.12109E+00
 0.30550001E+02  0.10555E+00
 0.30600000E+02  0.72430E-01
 0.30650000E+02 -0.92678E-02
 0.30700001E+02 -0.16757E+00
 0.30750000E+02 -0.30117E+00
 0.30800001E+02 -0.26073E+00
 0.30850000E+02 -0.13715E+00
 0.30900000E+02 -0.90822E-01
 0.30950001E+02 -0.52839E-01
 0.31000000E+02  0.25268E-01
 0.31050001E+02  0.14514E+00
 0.31100000E+02  0.27205E+00
 0.31150000E+02  0.34517E+00
 0.31200001E+02  0.34902E+00
 0.31250000E+02  0.22692E+00
 0.31300001E+02  0.12078E+00
 0.31350000E+02 -0.36133E-01
 0.31400000E+02 -0.24506E+00
 0.31450001E+02 -0.34730E+00
 0.31500000E+02 -0.36978E+00
 0.31550001E+02 -0.26872E+00
 0.31600000E+02 -0.86532E-01
 0.31650000E+02  0.47020E-01
 0.31700001E+02  0.10271E+00
 0.31750000E+02  0.18650E+00
 0.31800001E+02  0.25136E+00
 0.31850000E+02  0.24337E+00
 0.31900000E+02  0.18536E+00
 0.31950001E+02  0.67847E-01
 0.32000000E+02 -0.32180E-01
 0.32049999E+02 -0.66694E-01
 0.32100002E+02 -0.12382E+00
 0.32150002E+02 -0.16432E+00
 0.32200001E+02 -0.16585E+00
 0.32250000E+02 -0.15132E+00
 0.32299999E+02 -0.93914E-01
 0.32350002E+02 -0.65964E-01
 0.32400002E+02  0.34350E-02
 0.32450001E+02  0.81353E-01
 0.32500000E+02  0.84164E-01
 0.32549999E+02  0.82313E-01
 0.32600002E+02  0.11626E+00
 0.32650002E+02  0.11185E+00
 0.32700001E+02  0.10283E+00
 0.32750000E+02  0.87854E-01
 0.32799999E+02  0.51601E-01
 0.32850002E+02  0.84863E-01
 0.32900002E+02  0.11042E+00
 0.32950001E+02  0.12329E+00
 0.33000000E+02  0.82014E-01
 0.33049999E+02 -0.13289E-01
 0.33100002E+02 -0.56905E-01
 0.33150002E+02  0.46764E-03
 0.33200001E+02 -0.33491E-01
 0.33250000E+02 -0.10640E+00
 0.33299999E+02 -0.17629E+00
 0.33350002E+02 -0.24393E+00
 0.33400002E+02 -0.47211E-01
 0.33450001E+02  0.92084E-01
 0.33500000E+02  0.78209E-01
 0.33549999E+02  0.26226E-01
 0.33600002E+02  0.10643E+00
 0.33650002E+02  0.28520E+00
 0.33700001E+02  0.31564E+00
 0.33750000E+02  0.25045E+00
 0.33799999E+02  0.24867E+00
 0.33850002E+02  0.25099E+00
 0.33900002E+02  0.15354E+00
 0.33950001E+02  0.10141E+00
 0.34000000E+02  0.18120E-01
 0.34049999E+02 -0.22203E-01
 0.34100002E+02 -0.51364E-01
 0.34150002E+02  0.32751E-02
 0.34200001E+02  0.17130E+00
 0.34250000E+02  0.18350E+00
 0.34299999E+02  0.15003E+00
 0.34350002E+02  0.96639E-01
 0.34400002E+02 -0.11701E+00
 0.34450001E+02 -0.26679E+00
 0.34500000E+02 -0.27207E+00
 0.34549999E+02 -0.39888E+00
 0.34600002E+02 -0.42994E+00
 0.34650002E+02 -0.33013E+00
 0.34700001E+02 -0.45686E+00
 0.34750000E+02 -0.40602E+00
 0.34799999E+02 -0.13552E+00
 0.34850002E+02  0.89775E-01
 0.34900002E+02  0.34230E+00
 0.34950001E+02  0.42856E+00
 0.35000000E+02  0.46401E+00
 0.35049999E+02  0.29308E+00
 0.35100002E+02 -0.73467E-01
 0.35150002E+02 -0.42842E-01
 0.35200001E+02  0.24870E+00
 0.35250000E+02  0.30818E+00
 0.35299999E+02  0.10049E+00
 0.35350002E+02 -0.20333E+00
 0.35400002E+02 -0.20564E+00
 0.35450001E+02  0.50623E-01
 0.35500000E+02 -0.64308E-01
 0.35549999E+02 -0.32563E+00
 0.35600002E+02 -0.29422E+00
 0.35650002E+02 -0.34256E+00
 0.35700001E+02 -0.49174E+00
 0.35750000E+02 -0.35199E+00
 0.35799999E+02 -0.11279E+00
 0.35850002E+02 -0.12770E+00
 0.35900002E+02 -0.29829E+00
 0.35950001E+02 -0.17789E+00
 0.36000000E+02  0.40505E-01
 0.36049999E+02  0.12403E+00
 0.36100002E+02  0.31216E+00
 0.36150002E+02  0.47290E+00
 0.36200001E+02  0.43485E+00
 0.36250000E+02  0.18196E+00
 0.36299999E+02  0.80623E-02
 0.36350002E+02  0.18708E+00
 0.36400002E+02  0.30138E+00
 0.36450001E+02  0.10231E+00
 0.36500000E+02 -0.10085E+00
 0.36549999E+02 -0.17294E+00
 0.36600002E+02 -0.19897E-01
 0.36650002E+02  0.17539E+00
 0.36700001E+02  0.93264E-01
 0.36750000E+02 -0.33910E+00
 0.36799999E+02 -0.78828E+00
 0.36850002E+02 -0.83044E+00
 0.36900002E+02 -0.45247E+00
 0.36950001E+02 -0.81572E-01
 0.37000000E+02 -0.21624E+00
 0.37049999E+02 -0.45408E+00
 0.37100002E+02 -0.30346E+00
 0.37150002E+02  0.10430E+00
 0.37200001E+02  0.60477E+00
 0.37250000E+02  0.83943E+00
 0.37299999E+02  0.48933E+00
 0.37350002E+02  0.10583E+00
 0.37400002E+02  0.12766E+00
 0.37450001E+02  0.36657E+00
 0.37500000E+02  0.53240E+00
 0.37549999E+02  0.51455E+00
 0.37600002E+02  0.30746E+00
 0.37650002E+02 -0.26874E-01
 0.37700001E+02 -0.23314E+00
 0.37750000E+02 -0.34543E+00
 0.37799999E+02 -0.45012E+00
 0.37850002E+02 -0.58145E+00
 0.37900002E+02 -0.66858E+00
 0.37950001E+02 -0.60945E+00
 0.38000000E+02 -0.43329E+00
 0.38049999E+02 -0.27489E+00
 0.38100002E+02 -0.25054E+00
 0.38150002E+02 -0.18568E+00
 0.38200001E+02 -0.40181E-01
 0.38250000E+02 -0.13464E-03
 0.38299999E+02  0.81986E-01
 0.38350002E+02  0.39228E+00
 0.38400002E+02  0.73447E+00
 0.38450001E+02  0.10000E+01
 0.38500000E+02  0.99499E+00
 0.38549999E+02  0.54275E+00
 0.38600002E+02  0.31151E-01
 0.38650002E+02 -0.24288E+00
 0.38700001E+02 -0.35312E+00
 0.38750000E+02 -0.35415E+00
 0.38799999E+02 -0.34303E+00
 0.38850002E+02 -0.33047E+00
 0.38900002E+02 -0.22368E+00
 0.38950001E+02 -0.89175E-01
 0.39000000E+02  0.56043E-01
 0.39049999E+02  0.12169E+00
 0.39100002E+02  0.80094E-01
 0.39150002E+02  0.78430E-01
 0.39200001E+02 -0.54627E-02
 0.39250000E+02 -0.16573E-01
 0.39299999E+02  0.12180E+00
 0.39350002E+02  0.92400E-01
 0.39400002E+02  0.40820E-01
 0.39450001E+02  0.90154E-01
 0.39500000E+02  0.17795E-01
 0.39549999E+02  0.35108E-01
 0.39600002E+02  0.24949E+00
 0.39650002E+02  0.35065E+00
 0.39700001E+02  0.31232E+00
 0.39750000E+02  0.15991E+00
 0.39799999E+02  0.13284E-01
 0.39850002E+02 -0.26040E-01
 0.39900002E+02 -0.16775E-01
 0.39950001E+02 -0.13247E+00
 0.40000000E+02 -0.38502E+00
 0.40049999E+02 -0.51245E+00
 0.40100002E+02 -0.35394E+00
 0.40150002E+02 -0.70108E-02
 0.40200001E+02  0.30507E+00
 0.40250000E+02  0.43415E+00
 0.40299999E+02  0.38010E+00
 0.40350002E+02  0.20171E+00
 0.40400002E+02 -0.24832E-01
 0.40450001E+02 -0.17138E+00
 0.40500000E+02 -0.23392E+00
 0.40549999E+02 -0.18556E+00
 0.40600002E+02 -0.12484E+00
 0.40650002E+02 -0.12191E+00
 0.40700001E+02 -0.19764E+00
 0.40750000E+02 -0.26107E+00
 0.40799999E+02 -0.22590E+00
 0.40850002E+02 -0.27298E+00
 0.40900002E+02 -0.30164E+00
 0.40950001E+02 -0.21322E+00
 0.41000000E+02 -0.13308E+00
 0.41049999E+02 -0.43390E-01
 0.41100002E+02  0.36008E-01
 0.41150002E+02  0.14648E+00
 0.41200001E+02  0.25249E+00
 0.41250000E+02  0.23091E+00
 0.41299999E+02  0.12792E+00
 0.41350002E+02  0.49934E-01
 0.41400002E+02  0.30333E-01
 0.41450001E+02  0.25834E-01
 0.41500000E+02  0.15295E-02
 0.41549999E+02 -0.10356E+00
 0.41600002E+02 -0.16411E+00
 0.41650002E+02 -0.86692E-01
 0.41700001E+02  0.22363E-02
 0.41750000E+02  0.79287E-01
 0.41799999E+02  0.10369E+00
 0.41850002E+02  0.93982E-01
 0.41900002E+02  0.14777E+00
 0.41950001E+02  0.20889E+00
 0.42000000E+02  0.22024E+00
 0.42049999E+02  0.14889E+00
 0.42100002E+02  0.12506E+00
 0.42150002E+02  0.13357E+00
 0.42200001E+02  0.15185E+00
 0.42250000E+02  0.22010E+00
 0.42299999E+02  0.23595E+00
 0.42350002E+02  0.18747E+00
 0.42400002E+02  0.66670E-01
 0.42450001E+02 -0.11151E+00
 0.42500000E+02 -0.33457E+00
 0.42549999E+02 -0.51461E+00
 0.42600002E+02 -0.54528E+00
 0.42650002E+02 -0.47251E+00
 0.42700001E+02 -0.32488E+00
 0.42750000E+02 -0.34590E-01
 0.42799999E+02  0.26408E+00
 0.42850002E+02  0.38461E+00
 0.42900002E+02  0.35343E+00
 0.42950001E+02  0.23131E+00
 0.43000000E+02  0.90789E-01
 0.43049999E+02 -0.28918E-01
 0.43100002E+02 -0.14295E+00
 0.43150002E+02 -0.30156E+00
 0.43200001E+02 -0.40420E+00
 0.43250000E+02 -0.42303E+00
 0.43299999E+02 -0.42763E+00
 0.43350002E+02 -0.39507E+00
 0.43400002E+02 -0.39148E+00
 0.43450001E+02 -0.40180E+00
 0.43500000E+02 -0.36177E+00
 0.43549999E+02 -0.24417E+00
 0.43600002E+02 -0.11437E-01
 0.43650002E+02  0.27158E+00
 0.43700001E+02  0.50094E+00
 0.43750000E+02  0.58321E+00
 0.43799999E+02  0.54934E+00
 0.43850002E+02  0.50269E+00
 0.43900002E+02  0.39219E+00
 0.43950001E+02  0.25839E+00
 0.44000000E+02  0.10868E+00
 0.44049999E+02 -0.73414E-01
 0.44100002E+02 -0.27256E+00
 0.44150002E+02 -0.43691E+00
 0.44200001E+02 -0.44663E+00
 0.44250000E+02 -0.31294E+00
 0.44299999E+02 -0.19073E+00
 0.44350002E+02 -0.56849E-01
 0.44400002E+02  0.70535E-01
 0.44450001E+02  0.72462E-01
 0.44500000E+02  0.72242E-01
 0.44549999E+02  0.10859E+00
 0.44600002E+02  0.12602E+00
 0.44650002E+02  0.12207E+00
 0.44700001E+02  0.17346E+00
 0.44750000E+02  0.24632E+00
 0.44799999E+02  0.24349E+00
 0.44850002E+02  0.18320E+00
 0.44900002E+02  0.11569E+00
 0.44950001E+02  0.86368E-01
 0.45000000E+02  0.83454E-01
 0.45049999E+02  0.94066E-01
 0.45100002E+02  0.81203E-01
 0.45150002E+02 -0.24990E-01
 0.45200001E+02 -0.17802E+00
 0.45250000E+02 -0.26057E+00
 0.45299999E+02 -0.23953E+00
 0.45350002E+02 -0.21526E+00
 0.45400002E+02 -0.22945E+00
 0.45450001E+02 -0.20625E+00
 0.45500000E+02 -0.78679E-01
 0.45549999E+02  0.12585E+00
 0.45600002E+02  0.23031E+00
 0.45650002E+02  0.21358E+00
 0.45700001E+02  0.11064E+00
 0.45750000E+02 -0.43447E-01
 0.45799999E+02 -0.11508E+00
 0.45850002E+02 -0.56119E-01
 0.45900002E+02  0.73275E-01
 0.45950001E+02  0.19065E+00
 0.46000000E+02  0.30403E+00
 0.46049999E+02  0.33148E+00
 0.46100002E+02  0.25841E+00
 0.46150002E+02  0.15374E+00
 0.46200001E+02  0.54859E-01
 0.46250000E+02  0.39507E-02
 0.46299999E+02 -0.32288E-01
 0.46350002E+02 -0.99550E-01
 0.46400002E+02 -0.19319E+00
 0.46450001E+02 -0.24349E+00
 0.46500000E+02 -0.15436E+00
 0.46549999E+02  0.59413E-01
 0.46600002E+02  0.19285E+00
 0.46650002E+02  0.17460E+00
 0.46700001E+02  0.14348E+00
 0.46750000E+02  0.13544E+00
 0.46799999E+02  0.79911E-01
 0.46850002E+02 -0.63326E-01
 0.46900002E+02 -0.25251E+00
 0.46950001E+02 -0.32473E+00
 0.47000000E+02 -0.23670E+00
 0.47049999E+02 -0.98680E-01
 0.47100002E+02 -0.65524E-03
 0.47150002E+02  0.44034E-02
 0.47200001E+02 -0.66759E-02
 0.47250000E+02  0.31803E-01
 0.47299999E+02  0.68114E-01
 0.47350002E+02  0.73632E-01
 0.47400002E+02  0.81868E-01
 0.47450001E+02  0.11078E+00
 0.47500000E+02  0.13326E+00
 0.47549999E+02  0.99498E-01
 0.47600002E+02 -0.11567E-01
 0.47650002E+02 -0.94388E-01
 0.47700001E+02 -0.95966E-01
 0.47750000E+02 -0.65961E-01
 0.47799999E+02  0.15824E-01
 0.47850002E+02  0.13204E+00
 0.47900002E+02  0.21549E+00
 0.47950001E+02  0.28458E+00
 0.48000000E+02  0.32409E+00
 0.48049999E+02  0.22756E+00
 0.48100002E+02  0.53459E-01
 0.48150002E+02 -0.12294E+00
 0.48200001E+02 -0.27159E+00
 0.48250000E+02 -0.30932E+00
 0.48299999E+02 -0.22888E+00
 0.48350002E+02 -0.11580E+00
 0.48400002E+02 -0.12317E-01
 0.48450001E+02  0.14527E+00
 0.48500000E+02  0.30261E+00
 0.48549999E+02  0.36829E+00
 0.48600002E+02  0.33991E+00
 0.48650002E+02  0.22914E+00
 0.48700001E+02  0.19256E-01
 0.48750000E+02 -0.19669E+00
 0.48799999E+02 -0.27687E+00
 0.48850002E+02 -0.24477E+00
 0.48900002E+02 -0.18272E+00
 0.48950001E+02 -0.15799E+00
 0.49000000E+02 -0.15895E+00
 0.49049999E+02 -0.17373E+00
 0.49100002E+02 -0.19322E+00
 0.49150002E+02 -0.16215E+00
 0.49200001E+02 -0.14503E+00
 0.49250000E+02 -0.15185E+00
 0.49299999E+02 -0.10258E+00
 0.49350002E+02  0.61932E-02
 0.49400002E+02  0.13988E+00
 0.49450001E+02  0.22300E+00
 0.49500000E+02  0.27670E+00
 0.49549999E+02  0.33764E+00
 0.49600002E+02  0.34750E+00
 0.49650002E+02  0.28205E+00
 0.49700001E+02  0.13568E+00
 0.49750000E+02 -0.18630E-01
 0.49799999E+02 -0.11474E+00
 0.49850002E+02 -0.17693E+00
 0.49900002E+02 -0.23668E+00
 0.49950001E+02 -0.26010E+00
 0.50000000E+02 -0.19799E+00
 0.50049999E+02 -0.11213E+00
 0.50100002E+02 -0.62575E-01
 0.50150002E+02 -0.14856E-01
 0.50200001E+02  0.38147E-01
 0.50250000E+02  0.65959E-01
 0.50299999E+02  0.70481E-01
 0.50350002E+02  0.49595E-01
 0.50400002E+02  0.48649E-01
 0.50450001E+02  0.80834E-01
 0.50500000E+02  0.11578E+00
 0.50549999E+02  0.11118E+00
 0.50600002E+02  0.49734E-01
 0.50650002E+02 -0.31754E-01
 0.50700001E+02 -0.10615E+00
 0.50750000E+02 -0.14343E+00
 0.50799999E+02 -0.12827E+00
 0.50850002E+02 -0.71052E-01
 0.50900002E+02 -0.49529E-02
 0.50950001E+02  0.70746E-01
 0.51000000E+02  0.13358E+00
 0.51049999E+02  0.17633E+00
 0.51100002E+02  0.22698E+00
 0.51150002E+02  0.26254E+00
 0.51200001E+02  0.23696E+00
 0.51250000E+02  0.15214E+00
 0.51299999E+02  0.60778E-01
 0.51350002E+02 -0.34249E-01
 0.51400002E+02 -0.14935E+00
 0.51450001E+02 -0.25415E+00
 0.51500000E+02 -0.31569E+00
 0.51549999E+02 -0.33572E+00
 0.51600002E+02 -0.32916E+00
 0.51650002E+02 -0.30882E+00
 0.51700001E+02 -0.25385E+00
 0.51750000E+02 -0.14974E+00
 0.51799999E+02 -0.80081E-02
 0.51850002E+02  0.12356E+00
 0.51900002E+02  0.20178E+00
 0.51950001E+02  0.24808E+00
 0.52000000E+02  0.26408E+00
 0.52049999E+02  0.23475E+00
 0.52100002E+02  0.16496E+00
 0.52150002E+02  0.86831E-01
 0.52200001E+02  0.34143E-01
 0.52250000E+02  0.39913E-02
 0.52299999E+02 -0.49761E-01
 0.52350002E+02 -0.13176E+00
 0.52400002E+02 -0.18748E+00
 0.52450001E+02 -0.20715E+00
 0.52500000E+02 -0.22676E+00
 0.52549999E+02 -0.23761E+00
 0.52600002E+02 -0.18459E+00
 0.52650002E+02 -0.80423E-01
 0.52700001E+02  0.15093E-01
 0.52750000E+02  0.66382E-01
 0.52799999E+02  0.10467E+00
 0.52850002E+02  0.14964E+00
 0.52900002E+02  0.15113E+00
 0.52950001E+02  0.11098E+00
 0.53000000E+02  0.64089E-01
 0.53049999E+02  0.61331E-03
 0.53100002E+02 -0.29348E-01
 0.53150002E+02 -0.17565E-02
 0.53200001E+02 -0.48427E-02
 0.53250000E+02 -0.32587E-01
 0.53299999E+02 -0.30375E-01
 0.53350002E+02 -0.26891E-01
 0.53400002E+02 -0.53301E-01
 0.53450001E+02 -0.92256E-01
 0.53500000E+02 -0.12165E+00
 0.53549999E+02 -0.11985E+00
 0.53600002E+02 -0.72150E-01
 0.53650002E+02 -0.13090E-01
 0.53700001E+02  0.24424E-02
 0.53750000E+02  0.43738E-02
 0.53799999E+02  0.41516E-01
 0.53850002E+02  0.10286E+00
 0.53900002E+02  0.14589E+00
 0.53950001E+02  0.12263E+00
 0.54000000E+02  0.51146E-01
 0.54049999E+02  0.14446E-01
 0.54100002E+02  0.13303E-01
 0.54150002E+02 -0.13442E-01
 0.54200001E+02 -0.40464E-01
 0.54250000E+02 -0.68150E-01
 0.54299999E+02 -0.89233E-01
 0.54350002E+02 -0.69053E-01
 0.54400002E+02  0.21678E-02
 0.54450001E+02  0.91620E-01
 0.54500000E+02  0.17622E+00
 0.54549999E+02  0.25597E+00
 0.54600002E+02  0.26968E+00
 0.54650002E+02  0.20544E+00
 0.54700001E+02  0.89626E-01
 0.54750000E+02 -0.42263E-01
 0.54799999E+02 -0.13946E+00
 0.54850002E+02 -0.16333E+00
 0.54900002E+02 -0.13602E+00
 0.54950001E+02 -0.12961E+00
 0.55000000E+02 -0.14712E+00
 0.55049999E+02 -0.13556E+00
 0.55100002E+02 -0.10249E+00
 0.55150002E+02 -0.92082E-01
 0.55200001E+02 -0.91047E-01
 0.55250000E+02 -0.61363E-01
 0.55299999E+02 -0.42731E-03
 0.55350002E+02  0.48597E-01
 0.55400002E+02  0.77526E-01
 0.55450001E+02  0.10641E+00
 0.55500000E+02  0.12045E+00
 0.55549999E+02  0.83194E-01
 0.55600002E+02 -0.46235E-01
 0.55650002E+02 -0.20909E+00
 0.55700001E+02 -0.30070E+00
 0.55750000E+02 -0.28923E+00
 0.55799999E+02 -0.20589E+00
 0.55850002E+02 -0.86206E-01
 0.55900002E+02  0.34628E-01
 0.55950001E+02  0.15701E+00
 0.56000000E+02  0.28178E+00
 0.56049999E+02  0.36928E+00
 0.56100002E+02  0.40283E+00
 0.56150002E+02  0.35111E+00
 0.56200001E+02  0.24183E+00
 0.56250000E+02  0.13561E+00
 0.56299999E+02  0.43803E-01
 0.56350002E+02 -0.46312E-01
 0.56400002E+02 -0.11686E+00
 0.56450001E+02 -0.14623E+00
 0.56500000E+02 -0.13522E+00
 0.56549999E+02 -0.93837E-01
 0.56600002E+02 -0.65426E-01
 0.56650002E+02 -0.55047E-01
 0.56700001E+02 -0.30451E-01
 0.56750000E+02 -0.90383E-02
 0.56799999E+02 -0.18130E-01
 0.56850002E+02 -0.27419E-01
 0.56900002E+02 -0.14999E-01
 0.56950001E+02  0.12573E-01
 0.57000000E+02  0.30348E-01
 0.57049999E+02  0.44015E-01
 0.57100002E+02  0.90570E-01
 0.57150002E+02  0.13147E+00
 0.57200001E+02  0.13362E+00
 0.57250000E+02  0.12623E+00
 0.57299999E+02  0.11521E+00
 0.57350002E+02  0.76064E-01
 0.57400002E+02 -0.23601E-02
 0.57450001E+02 -0.86779E-01
 0.57500000E+02 -0.13971E+00
 0.57549999E+02 -0.15338E+00
 0.57600002E+02 -0.12257E+00
 0.57650002E+02 -0.45779E-01
 0.57700001E+02  0.31547E-01
 0.57750000E+02  0.66601E-01
 0.57799999E+02  0.71181E-01
 0.57850002E+02  0.49776E-01
 0.57900002E+02 -0.17410E-01
 0.57950001E+02 -0.11580E+00
 0.58000000E+02 -0.18474E+00
 0.58049999E+02 -0.18441E+00
 0.58100002E+02 -0.14429E+00
 0.58150002E+02 -0.88519E-01
 0.58200001E+02 -0.24851E-01
 0.58250000E+02  0.23548E-01
 0.58299999E+02  0.74337E-01
 0.58350002E+02  0.13293E+00
 0.58400002E+02  0.17748E+00
 0.58450001E+02  0.18811E+00
 0.58500000E+02  0.13138E+00
 0.58549999E+02  0.26230E-01
 0.58600002E+02 -0.52872E-01
 0.58650002E+02 -0.80948E-01
 0.58700001E+02 -0.90463E-01
 0.58750000E+02 -0.99002E-01
 0.58799999E+02 -0.10350E+00
 0.58850002E+02 -0.88832E-01
 0.58900002E+02 -0.48971E-01
 0.58950001E+02  0.11426E-02
 0.59000000E+02  0.40481E-01
 0.59049999E+02  0.48851E-01
 0.59100002E+02  0.66698E-02
 0.59150002E+02 -0.54034E-01
 0.59200001E+02 -0.91930E-01
 0.59250000E+02 -0.78486E-01
 0.59299999E+02 -0.10926E-01
 0.59350002E+02  0.48572E-01
 0.59400002E+02  0.83373E-01
 0.59450001E+02  0.94295E-01
 0.59500000E+02  0.96757E-01
 0.59549999E+02  0.99407E-01
 0.59600002E+02  0.79009E-01
 0.59650002E+02  0.49827E-01
 0.59700001E+02  0.29197E-01
 0.59750000E+02  0.10443E-01
 0.59799999E+02 -0.81000E-02
 0.59850002E+02 -0.24784E-01
 0.59900002E+02 -0.51119E-01
 0.59950001E+02 -0.81384E-01
 0.60000000E+02 -0.77346E-01
 0.60049999E+02 -0.47190E-01
 0.60100002E+02 -0.24074E-01
 0.60150002E+02 -0.12952E-01
 0.60200001E+02 -0.26405E-01
 0.60250000E+02 -0.32178E-01
 0.60299999E+02  0.57930E-02
 0.60350002E+02  0.64606E-01
 0.60400002E+02  0.10962E+00
 0.60450001E+02  0.13745E+00
 0.60500000E+02  0.13343E+00
 0.60549999E+02  0.80508E-01
 0.60600002E+02  0.15133E-01
 0.60650002E+02 -0.43384E-01
 0.60700001E+02 -0.87324E-01
 0.60750000E+02 -0.10545E+00
 0.60799999E+02 -0.10394E+00
 0.60850002E+02 -0.92605E-01
 0.60900002E+02 -0.78756E-01
 0.60950001E+02 -0.58628E-01
 0.61000000E+02 -0.39337E-01
 0.61049999E+02 -0.21752E-01
 0.61100002E+02 -0.13258E-01
 0.61150002E+02 -0.80869E-02
 0.61200001E+02  0.71417E-02
 0.61250000E+02  0.37080E-01
 0.61299999E+02  0.88618E-01
 0.61350002E+02  0.13395E+00
 0.61400002E+02  0.14836E+00
 0.61450001E+02  0.11549E+00
 0.61500000E+02  0.43774E-01
 0.61549999E+02 -0.30108E-01
 0.61600002E+02 -0.93124E-01
 0.61650002E+02 -0.14390E+00
 0.61700001E+02 -0.17153E+00
 0.61750000E+02 -0.17308E+00
 0.61799999E+02 -0.14210E+00
 0.61850002E+02 -0.83413E-01
 0.61900002E+02 -0.25010E-01
 0.61950001E+02  0.25083E-01
 0.62000000E+02  0.79429E-01
 0.62049999E+02  0.12850E+00
 0.62100002E+02  0.15105E+00
 0.62150002E+02  0.13922E+00
 0.62200001E+02  0.11981E+00
 0.62250000E+02  0.11264E+00
 0.62299999E+02  0.10533E+00
 0.62350002E+02  0.81318E-01
 0.62400002E+02  0.38834E-01
 0.62450001E+02  0.38058E-03
 0.62500000E+02 -0.24562E-01
 0.62549999E+02 -0.46181E-01
 0.62600002E+02 -0.71760E-01
 0.62650002E+02 -0.86953E-01
 0.62700001E+02 -0.87751E-01
 0.62750000E+02 -0.90538E-01
 0.62799999E+02 -0.82527E-01
 0.62850002E+02 -0.46188E-01
 0.62900002E+02 -0.13428E-01
 0.62950001E+02  0.17237E-01
 0.63000000E+02  0.66986E-01
 0.63049999E+02  0.11093E+00
 0.63100002E+02  0.13335E+00
 0.63150002E+02  0.15703E+00
 0.63200001E+02  0.17145E+00
 0.63250000E+02  0.13106E+00
 0.63299999E+02  0.56487E-01
 0.63350002E+02  0.51663E-03
 0.63400002E+02 -0.39988E-01
 0.63450001E+02 -0.72172E-01
 0.63500000E+02 -0.97706E-01
 0.63549999E+02 -0.11723E+00
 0.63600002E+02 -0.12543E+00
 0.63650002E+02 -0.12451E+00
 0.63700001E+02 -0.10728E+00
 0.63750000E+02 -0.72593E-01
 0.63799999E+02 -0.31069E-01
 0.63850002E+02 -0.96091E-02
 0.63900002E+02 -0.10528E-01
 0.63950001E+02 -0.18466E-01
 0.64000000E+02 -0.11955E-01
 0.64050003E+02  0.15698E-01
 0.64099998E+02  0.39091E-01
 0.64150002E+02  0.42416E-01
 0.64200005E+02  0.19979E-01
 0.64250000E+02 -0.30887E-02
 0.64300003E+02 -0.67505E-02
 0.64349998E+02  0.97751E-03
 0.64400002E+02  0.10735E-03
 0.64450005E+02 -0.23613E-01
 0.64500000E+02 -0.56601E-01
 0.64550003E+02 -0.81596E-01
 0.64599998E+02 -0.74553E-01
 0.64650002E+02 -0.44052E-01
 0.64700005E+02 -0.10893E-01
 0.64750000E+02  0.21445E-01
 0.64800003E+02  0.48019E-01
 0.64849998E+02  0.61867E-01
 0.64900002E+02  0.51960E-01
 0.64950005E+02  0.33155E-01
 0.65000000E+02  0.32471E-01
 0.65050003E+02  0.46404E-01
 0.65099998E+02  0.56302E-01
 0.65150002E+02  0.43493E-01
 0.65200005E+02  0.27247E-01
 0.65250000E+02  0.25868E-01
 0.65300003E+02  0.16180E-01
 0.65349998E+02  0.14170E-01
 0.65400002E+02  0.30030E-01
 0.65450005E+02  0.38587E-01
 0.65500000E+02  0.27226E-01
 0.65550003E+02  0.53942E-02
 0.65599998E+02 -0.18494E-01
 0.65650002E+02 -0.43406E-01
 0.65700005E+02 -0.61298E-01
 0.65750000E+02 -0.80355E-01
 0.65800003E+02 -0.11755E+00
 0.65849998E+02 -0.17661E+00
 0.65900002E+02 -0.21148E+00
 0.65950005E+02 -0.17795E+00
 0.66000000E+02 -0.11246E+00
 0.66050003E+02 -0.50971E-01
 0.66099998E+02  0.74159E-02
 0.66150002E+02  0.59112E-01
 0.66200005E+02  0.10813E+00
 0.66250000E+02  0.14664E+00
 0.66300003E+02  0.14263E+00
 0.66349998E+02  0.10824E+00
 0.66400002E+02  0.69429E-01
 0.66450005E+02  0.31005E-01
 0.66500000E+02  0.68254E-02
 0.66550003E+02 -0.57819E-02
 0.66599998E+02 -0.36660E-01
 0.66650002E+02 -0.92327E-01
 0.66700005E+02 -0.12757E+00
 0.66750000E+02 -0.12545E+00
 0.66800003E+02 -0.11220E+00
 0.66849998E+02 -0.98265E-01
 0.66900002E+02 -0.83424E-01
 0.66950005E+02 -0.53544E-01
 0.67000000E+02 -0.27786E-02
 0.67050003E+02  0.48454E-01
 0.67099998E+02  0.76359E-01
 0.67150002E+02  0.75952E-01
 0.67200005E+02  0.64021E-01
 0.67250000E+02  0.41633E-01
 0.67300003E+02  0.33944E-01
 0.67349998E+02  0.40257E-01
 0.67400002E+02  0.34207E-01
 0.67450005E+02  0.18599E-01
 0.67500000E+02 -0.65055E-02
 0.67550003E+02 -0.34917E-01
 0.67599998E+02 -0.58362E-01
 0.67650002E+02 -0.70441E-01
 0.67700005E+02 -0.66366E-01
 0.67750000E+02 -0.34628E-01
 0.67800003E+02  0.23548E-01
 0.67849998E+02  0.92644E-01
 0.67900002E+02  0.15727E+00
 0.67950005E+02  0.19096E+00
 0.68000000E+02  0.18128E+00
 0.68050003E+02  0.15395E+00
 0.68099998E+02  0.12685E+00
 0.68150002E+02  0.11010E+00
 0.68200005E+02  0.10197E+00
 0.68250000E+02  0.78595E-01
 0.68300003E+02  0.39064E-01
 0.68349998E+02 -0.22061E-02
 0.68400002E+02 -0.48490E-01
 0.68450005E+02 -0.90257E-01
 0.68500000E+02 -0.12326E+00
 0.68550003E+02 -0.14741E+00
 0.68599998E+02 -0.14796E+00
 0.68650002E+02 -0.13405E+00
 0.68700005E+02 -0.11825E+00
 0.68750000E+02 -0.95096E-01
 0.68800003E+02 -0.61090E-01
 0.68849998E+02 -0.20821E-01
 0.68900002E+02  0.21964E-01
 0.68950005E+02  0.66325E-01
 0.69000000E+02  0.11535E+00
 0.69050003E+02  0.15017E+00
 0.69099998E+02  0.16327E+00
 0.69150002E+02  0.15636E+00
 0.69200005E+02  0.11955E+00
 0.69250000E+02  0.52990E-01
 0.69300003E+02 -0.15545E-01
 0.69349998E+02 -0.67003E-01
 0.69400002E+02 -0.11150E+00
 0.69450005E+02 -0.14830E+00
 0.69500000E+02 -0.17885E+00
 0.69550003E+02 -0.19271E+00
 0.69599998E+02 -0.18493E+00
 0.69650002E+02 -0.16881E+00
 0.69700005E+02 -0.14760E+00
 0.69750000E+02 -0.10518E+00
 0.69800003E+02 -0.32356E-01
 0.69849998E+02  0.53110E-01
 0.69900002E+02  0.12217E+00
 0.69950005E+02  0.14981E+00
 0.70000000E+02  0.12969E+00
 0.70050003E+02  0.83403E-01
 0.70099998E+02  0.40706E-01
 0.70150002E+02 -0.14027E-02
 0.70200005E+02 -0.45570E-01
 0.70250000E+02 -0.78487E-01
 0.70300003E+02 -0.85479E-01
 0.70349998E+02 -0.69855E-01
 0.70400002E+02 -0.40640E-01
 0.70450005E+02 -0.75086E-02
 0.70500000E+02  0.66421E-02
 0.70550003E+02 -0.46402E-02
 0.70599998E+02 -0.28353E-01
 0.70650002E+02 -0.44400E-01
 0.70700005E+02 -0.43074E-01
 0.70750000E+02 -0.18963E-01
 0.70800003E+02  0.11169E-01
 0.70849998E+02  0.42766E-01
 0.70900002E+02  0.77687E-01
 0.70950005E+02  0.95729E-01
 0.71000000E+02  0.97468E-01
 0.71050003E+02  0.10145E+00
 0.71099998E+02  0.10956E+00
 0.71150002E+02  0.10091E+00
 0.71200005E+02  0.63748E-01
 0.71250000E+02  0.13207E-01
 0.71300003E+02 -0.31869E-01
 0.71349998E+02 -0.57052E-01
 0.71400002E+02 -0.61461E-01
 0.71450005E+02 -0.56198E-01
 0.71500000E+02 -0.31683E-01
 0.71550003E+02  0.85749E-03
 0.71599998E+02  0.21700E-01
 0.71650002E+02  0.38657E-01
 0.71700005E+02  0.46696E-01
 0.71750000E+02  0.33436E-01
 0.71800003E+02  0.13751E-01
 0.71849998E+02 -0.44813E-02
 0.71900002E+02 -0.23513E-01
 0.71950005E+02 -0.43607E-01
 0.72000000E+02 -0.59981E-01
 0.72050003E+02 -0.58274E-01
 0.72099998E+02 -0.36720E-01
 0.72150002E+02 -0.43858E-02
 0.72200005E+02  0.22923E-01
 0.72250000E+02  0.38756E-01
 0.72300003E+02  0.40190E-01
 0.72349998E+02  0.39797E-01
 0.72400002E+02  0.45192E-01
 0.72450005E+02  0.57086E-01
 0.72500000E+02  0.68277E-01
 0.72550003E+02  0.63585E-01
 0.72599998E+02  0.48058E-01
 0.72650002E+02  0.28607E-01
 0.72700005E+02  0.12828E-01
 0.72750000E+02  0.18601E-02
 0.72800003E+02 -0.59755E-02
 0.72849998E+02 -0.24807E-01
 0.72900002E+02 -0.55638E-01
 0.72950005E+02 -0.77090E-01
 0.73000000E+02 -0.67422E-01
 0.73050003E+02 -0.39312E-01
 0.73099998E+02 -0.19217E-01
 0.73150002E+02 -0.15400E-01
 0.73200005E+02 -0.29521E-01
 0.73250000E+02 -0.44576E-01
 0.73300003E+02 -0.58418E-01
 0.73349998E+02 -0.68179E-01
 0.73400002E+02 -0.65532E-01
 0.73450005E+02 -0.54534E-01
 0.73500000E+02 -0.39696E-01
 0.73550003E+02 -0.17439E-01
 0.73599998E+02  0.98748E-02
 0.73650002E+02  0.20066E-01
 0.73700005E+02  0.87038E-02
 0.73750000E+02 -0.94050E-02
 0.73800003E+02 -0.26722E-01
 0.73849998E+02 -0.35538E-01
 0.73900002E+02 -0.23658E-01
 0.73950005E+02 -0.28688E-02
 0.74000000E+02  0.95425E-02
 0.74050003E+02  0.10569E-01
 0.74099998E+02  0.34678E-02
 0.74150002E+02 -0.75667E-02
 0.74200005E+02 -0.27519E-01
 0.74250000E+02 -0.43362E-01
 0.74300003E+02 -0.41573E-01
 0.74349998E+02 -0.31609E-01
 0.74400002E+02 -0.24106E-01
 0.74450005E+02 -0.20315E-01
 0.74500000E+02 -0.15707E-01
 0.74550003E+02 -0.15315E-02
 0.74599998E+02  0.16694E-01
 0.74650002E+02  0.28509E-01
 0.74700005E+02  0.34752E-01
 0.74750000E+02  0.45283E-01
 0.74800003E+02  0.67106E-01
 0.74849998E+02  0.87737E-01
 0.74900002E+02  0.10154E+00
 0.74950005E+02  0.10441E+00
 0.75000000E+02  0.93621E-01
 0.75050003E+02  0.81794E-01
 0.75099998E+02  0.72108E-01
 0.75150002E+02  0.55515E-01
 0.75200005E+02  0.27405E-01
 0.75250000E+02 -0.48378E-02
 0.75300003E+02 -0.30020E-01
 0.75349998E+02 -0.34909E-01
 0.75400002E+02 -0.21179E-01
 0.75450005E+02 -0.43252E-02
 0.75500000E+02  0.72453E-02
 0.75550003E+02  0.82884E-02
 0.75599998E+02  0.77599E-02
 0.75650002E+02  0.13119E-01
 0.75700005E+02  0.16790E-01
 0.75750000E+02  0.15573E-01
 0.75800003E+02  0.11716E-01
 0.75849998E+02  0.22439E-02
 0.75900002E+02 -0.11050E-01
 0.75950005E+02 -0.24698E-01
 0.76000000E+02 -0.35187E-01
 0.76050003E+02 -0.41014E-01
 0.76099998E+02 -0.47170E-01
 0.76150002E+02 -0.47611E-01
 0.76200005E+02 -0.36169E-01
 0.76250000E+02 -0.18097E-01
 0.76300003E+02 -0.75933E-02
 0.76349998E+02 -0.10055E-01
 0.76400002E+02 -0.19789E-01
 0.76450005E+02 -0.30103E-01
 0.76500000E+02 -0.25724E-01
 0.76550003E+02 -0.17607E-01
 0.76599998E+02 -0.24012E-01
 0.76650002E+02 -0.32753E-01
 0.76700005E+02 -0.30757E-01
 0.76750000E+02 -0.21119E-01
 0.76800003E+02 -0.95984E-02
 0.76849998E+02  0.79276E-02
 0.76900002E+02  0.30590E-01
 0.76950005E+02  0.46443E-01
 0.77000000E+02  0.48551E-01
 0.77050003E+02  0.45748E-01
 0.77099998E+02  0.42679E-01
 0.77150002E+02  0.40652E-01
 0.77200005E+02  0.37152E-01
 0.77250000E+02  0.25882E-01
 0.77300003E+02  0.10673E-01
 0.77349998E+02 -0.47519E-03
 0.77400002E+02 -0.62423E-02
 0.77450005E+02 -0.26498E-02
 0.77500000E+02  0.13083E-01
 0.77550003E+02  0.27770E-01
 0.77599998E+02  0.33082E-01
 0.77650002E+02  0.26045E-01
 0.77700005E+02  0.13405E-01
 0.77750000E+02  0.37193E-02
 0.77800003E+02 -0.43407E-02
 0.77849998E+02 -0.17491E-01
 0.77900002E+02 -0.32072E-01
 0.77950005E+02 -0.43501E-01
 0.78000000E+02 -0.45090E-01
 0.78050003E+02 -0.33851E-01
 0.78099998E+02 -0.20995E-01
 0.78150002E+02 -0.67990E-02
 0.78200005E+02  0.62152E-02
 0.78250000E+02  0.13387E-01
 0.78300003E+02  0.10267E-01
 0.78349998E+02  0.26973E-04
 0.78400002E+02 -0.82146E-02
 0.78450005E+02 -0.75159E-02
 0.78500000E+02  0.67817E-02
 0.78550003E+02  0.29744E-01
 0.78599998E+02  0.53571E-01
 0.78650002E+02  0.74297E-01
 0.78700005E+02  0.88056E-01
 0.78750000E+02  0.90683E-01
 0.78800003E+02  0.82091E-01
 0.78849998E+02  0.63511E-01
 0.78900002E+02  0.32253E-01
 0.78950005E+02 -0.95426E-02
 0.79000000E+02 -0.56978E-01
 0.79050003E+02 -0.11033E+00
 0.79099998E+02 -0.15236E+00
 0.79150002E+02 -0.16664E+00
 0.79200005E+02 -0.15765E+00
 0.79250000E+02 -0.13274E+00
 0.79300003E+02 -0.88201E-01
 0.79349998E+02 -0.27117E-01
 0.79400002E+02  0.34818E-01
 0.79450005E+02  0.90613E-01
 0.79500000E+02  0.13470E+00
 0.79550003E+02  0.15731E+00
 0.79599998E+02  0.15108E+00
 0.79650002E+02  0.12748E+00
 0.79700005E+02  0.91902E-01
 0.79750000E+02  0.53683E-01
 0.79800003E+02  0.22724E-01
 0.79849998E+02 -0.28952E-02
 0.79900002E+02 -0.19426E-01
 0.79950005E+02 -0.32808E-01
 0.80000000E+02 -0.43886E-01
 0.80050003E+02 -0.53620E-01
 0.80099998E+02 -0.64644E-01
 0.80150002E+02 -0.69344E-01
 0.80200005E+02 -0.70367E-01
 0.80250000E+02 -0.70259E-01
 0.80300003E+02 -0.55424E-01
 0.80349998E+02 -0.29596E-01
 0.80400002E+02 -0.92776E-03
 0.80450005E+02  0.32067E-01
 0.80500000E+02  0.53546E-01
 0.80550003E+02  0.56277E-01
 0.80599998E+02  0.52143E-01
 0.80650002E+02  0.33530E-01
 0.80700005E+02  0.12494E-02
 0.80750000E+02 -0.24685E-01
 0.80800003E+02 -0.34362E-01
 0.80849998E+02 -0.34126E-01
 0.80900002E+02 -0.43560E-01
 0.80950005E+02 -0.55412E-01
 0.81000000E+02 -0.54490E-01
 0.81050003E+02 -0.43413E-01
 0.81099998E+02 -0.26832E-01
 0.81150002E+02 -0.65543E-02
 0.81200005E+02  0.15933E-01
 0.81250000E+02  0.28710E-01
 0.81300003E+02  0.25935E-01
 0.81349998E+02  0.12130E-01
 0.81400002E+02 -0.46371E-02
 0.81450005E+02 -0.24073E-01
 0.81500000E+02 -0.47253E-01
 0.81550003E+02 -0.59016E-01
 0.81599998E+02 -0.48339E-01
 0.81650002E+02 -0.22620E-01
 0.81700005E+02  0.86308E-02
 0.81750000E+02  0.41723E-01
 0.81800003E+02  0.65493E-01
 0.81849998E+02  0.73528E-01
 0.81900002E+02  0.71683E-01
 0.81950005E+02  0.61637E-01
 0.82000000E+02  0.46351E-01
 0.82050003E+02  0.28915E-01
 0.82099998E+02  0.10366E-01
 0.82150002E+02 -0.24484E-02
 0.82200005E+02 -0.62328E-02
 0.82250000E+02 -0.18148E-02
 0.82300003E+02  0.32329E-02
 0.82349998E+02 -0.14853E-03
 0.82400002E+02 -0.13738E-01
 0.82450005E+02 -0.34420E-01
 0.82500000E+02 -0.60511E-01
 0.82550003E+02 -0.83901E-01
 0.82599998E+02 -0.92617E-01
 0.82650002E+02 -0.85506E-01
 0.82700005E+02 -0.65058E-01
 0.82750000E+02 -0.36186E-01
 0.82800003E+02 -0.56810E-02
 0.82849998E+02  0.23989E-01
 0.82900002E+02  0.48638E-01
 0.82950005E+02  0.60022E-01
 0.83000000E+02  0.63548E-01
 0.83050003E+02  0.64117E-01
 0.83099998E+02  0.50680E-01
 0.83150002E+02  0.20132E-01
 0.83200005E+02 -0.96402E-02
 0.83250000E+02 -0.27034E-01
 0.83300003E+02 -0.33545E-01
 0.83349998E+02 -0.33263E-01
 0.83400002E+02 -0.34889E-01
 0.83450005E+02 -0.40855E-01
 0.83500000E+02 -0.45909E-01
 0.83550003E+02 -0.45445E-01
 0.83599998E+02 -0.39324E-01
 0.83650002E+02 -0.30774E-01
 0.83700005E+02 -0.21785E-01
 0.83750000E+02 -0.95572E-02
 0.83800003E+02  0.58311E-02
 0.83849998E+02  0.14437E-01
 0.83900002E+02  0.13110E-01
 0.83950005E+02  0.13458E-01
 0.84000000E+02  0.20793E-01
 0.84050003E+02  0.32542E-01
 0.84099998E+02  0.45470E-01
 0.84150002E+02  0.61042E-01
 0.84200005E+02  0.73628E-01
 0.84250000E+02  0.71510E-01
 0.84300003E+02  0.54117E-01
 0.84349998E+02  0.25744E-01
 0.84400002E+02 -0.73473E-02
 0.84450005E+02 -0.39345E-01
 0.84500000E+02 -0.58284E-01
 0.84550003E+02 -0.58341E-01
 0.84599998E+02 -0.42659E-01
 0.84650002E+02 -0.17505E-01
 0.84700005E+02  0.72121E-02
 0.84750000E+02  0.28425E-01
 0.84800003E+02  0.45576E-01
 0.84849998E+02  0.56050E-01
 0.84900002E+02  0.56516E-01
 0.84950005E+02  0.47578E-01
 0.85000000E+02  0.24326E-01
 0.85050003E+02 -0.12930E-01
 0.85099998E+02 -0.48647E-01
 0.85150002E+02 -0.72892E-01
 0.85200005E+02 -0.81423E-01
 0.85250000E+02 -0.70443E-01
 0.85300003E+02 -0.44492E-01
 0.85349998E+02 -0.85320E-02
 0.85400002E+02  0.32748E-01
 0.85450005E+02  0.67237E-01
 0.85500000E+02  0.86234E-01
 0.85550003E+02  0.88102E-01
 0.85599998E+02  0.79320E-01
 0.85650002E+02  0.62296E-01
 0.85700005E+02  0.38450E-01
 0.85750000E+02  0.15563E-01
 0.85800003E+02 -0.24182E-02
 0.85849998E+02 -0.13852E-01
 0.85900002E+02 -0.18915E-01
 0.85950005E+02 -0.19992E-01
 0.86000000E+02 -0.20965E-01
 0.86050003E+02 -0.22740E-01
 0.86099998E+02 -0.24582E-01
 0.86150002E+02 -0.24039E-01
 0.86200005E+02 -0.18961E-01
 0.86250000E+02 -0.18173E-01
 0.86300003E+02 -0.29974E-01
 0.86349998E+02 -0.44793E-01
 0.86400002E+02 -0.51375E-01
 0.86450005E+02 -0.49855E-01
 0.86500000E+02 -0.39355E-01
 0.86550003E+02 -0.17624E-01
 0.86599998E+02  0.12378E-01
 0.86650002E+02  0.38709E-01
 0.86700005E+02  0.51847E-01
 0.86750000E+02  0.55297E-01
 0.86800003E+02  0.56952E-01
 0.86849998E+02  0.60486E-01
 0.86900002E+02  0.60054E-01
 0.86950005E+02  0.46905E-01
 0.87000000E+02  0.22625E-01
 0.87050003E+02 -0.46587E-02
 0.87099998E+02 -0.23508E-01
 0.87150002E+02 -0.29930E-01
 0.87200005E+02 -0.33969E-01
 0.87250000E+02 -0.40038E-01
 0.87300003E+02 -0.43640E-01
 0.87349998E+02 -0.41798E-01
 0.87400002E+02 -0.39258E-01
 0.87450005E+02 -0.35704E-01
 0.87500000E+02 -0.27672E-01
 0.87550003E+02 -0.19353E-01
 0.87599998E+02 -0.15349E-01
 0.87650002E+02 -0.17532E-01
 0.87700005E+02 -0.22818E-01
 0.87750000E+02 -0.25416E-01
 0.87800003E+02 -0.24207E-01
 0.87849998E+02 -0.18862E-01
 0.87900002E+02 -0.11074E-01
 0.87950005E+02 -0.18003E-02
 0.88000000E+02  0.10707E-01
 0.88050003E+02  0.25818E-01
 0.88099998E+02  0.39918E-01
 0.88150002E+02  0.49086E-01
 0.88200005E+02  0.54401E-01
 0.88250000E+02  0.54537E-01
 0.88300003E+02  0.49101E-01
 0.88349998E+02  0.34858E-01
 0.88400002E+02  0.18365E-01
 0.88450005E+02  0.11957E-01
 0.88500000E+02  0.10097E-01
 0.88550003E+02  0.76642E-02
 0.88599998E+02  0.60196E-02
 0.88650002E+02  0.69778E-02
 0.88700005E+02  0.83128E-02
 0.88750000E+02  0.24544E-02
 0.88800003E+02 -0.11083E-01
 0.88849998E+02 -0.22790E-01
 0.88900002E+02 -0.28605E-01
 0.88950005E+02 -0.31156E-01
 0.89000000E+02 -0.30183E-01
 0.89050003E+02 -0.23822E-01
 0.89099998E+02 -0.14885E-01
 0.89150002E+02 -0.89832E-02
 0.89200005E+02 -0.59039E-02
 0.89250000E+02 -0.52098E-02
 0.89300003E+02 -0.68001E-02
 0.89349998E+02 -0.70413E-02
 0.89400002E+02 -0.42942E-02
 0.89450005E+02  0.12933E-02
 0.89500000E+02  0.94182E-02
 0.89550003E+02  0.15727E-01
 0.89599998E+02  0.14858E-01
 0.89650002E+02  0.95543E-02
 0.89700005E+02  0.23512E-02
 0.89750000E+02 -0.79564E-02
 0.89800003E+02 -0.21491E-01
 0.89849998E+02 -0.39373E-01
 0.89900002E+02 -0.55939E-01
 0.89950005E+02 -0.58701E-01
 0.90000000E+02 -0.45869E-01
 0.90050003E+02 -0.23503E-01
 0.90099998E+02  0.10079E-02
 0.90150002E+02  0.17935E-01
 0.90200005E+02  0.25875E-01
 0.90250000E+02  0.26346E-01
 0.90300003E+02  0.22511E-01
 0.90349998E+02  0.14973E-01
 0.90400002E+02  0.33660E-02
 0.90450005E+02 -0.48204E-02
 0.90500000E+02 -0.30206E-02
 0.90550003E+02  0.55333E-02
 0.90599998E+02  0.19080E-01
 0.90650002E+02  0.38528E-01
 0.90700005E+02  0.53252E-01
 0.90750000E+02  0.51695E-01
 0.90800003E+02  0.30030E-01
 0.90849998E+02 -0.40165E-02
 0.90900002E+02 -0.37087E-01
 0.90950005E+02 -0.57534E-01
 0.91000000E+02 -0.62905E-01
 0.91050003E+02 -0.62561E-01
 0.91099998E+02 -0.61424E-01
 0.91150002E+02 -0.58075E-01
 0.91200005E+02 -0.49133E-01
 0.91250000E+02 -0.32248E-01
 0.91300003E+02 -0.81488E-02
 0.91349998E+02  0.18553E-01
 0.91400002E+02  0.42749E-01
 0.91450005E+02  0.61056E-01
 0.91500000E+02  0.68206E-01
 0.91550003E+02  0.64697E-01
 0.91599998E+02  0.53631E-01
 0.91650002E+02  0.37344E-01
 0.91700005E+02  0.20547E-01
 0.91750000E+02  0.84791E-02
 0.91800003E+02 -0.53813E-03
 0.91849998E+02 -0.97722E-02
 0.91900002E+02 -0.16474E-01
 0.91950005E+02 -0.15875E-01
 0.92000000E+02 -0.96633E-02
 0.92050003E+02 -0.80231E-02
 0.92099998E+02 -0.80317E-02
 0.92150002E+02 -0.27247E-02
 0.92200005E+02  0.42660E-02
 0.92250000E+02  0.85776E-02
 0.92300003E+02  0.97029E-02
 0.92349998E+02  0.13453E-01
 0.92400002E+02  0.22464E-01
 0.92450005E+02  0.36238E-01
 0.92500000E+02  0.50715E-01
 0.92550003E+02  0.63301E-01
 0.92599998E+02  0.74130E-01
 0.92650002E+02  0.75721E-01
 0.92700005E+02  0.65718E-01
 0.92750000E+02  0.48737E-01
 0.92800003E+02  0.24794E-01
 0.92849998E+02 -0.46691E-02
 0.92900002E+02 -0.32673E-01
 0.92950005E+02 -0.53563E-01
 0.93000000E+02 -0.65682E-01
 0.93050003E+02 -0.70565E-01
 0.93099998E+02 -0.66073E-01
 0.93150002E+02 -0.57011E-01
 0.93200005E+02 -0.54509E-01
 0.93250000E+02 -0.61547E-01
 0.93300003E+02 -0.72006E-01
 0.93349998E+02 -0.77319E-01
 0.93400002E+02 -0.74987E-01
 0.93450005E+02 -0.60047E-01
 0.93500000E+02 -0.32296E-01
 0.93550003E+02  0.18978E-04
 0.93599998E+02  0.33370E-01
 0.93650002E+02  0.63938E-01
 0.93700005E+02  0.83589E-01
 0.93750000E+02  0.83309E-01
 0.93800003E+02  0.65555E-01
 0.93849998E+02  0.42044E-01
 0.93900002E+02  0.21033E-01
 0.93950005E+02  0.41694E-02
 0.94000000E+02 -0.92271E-02
 0.94050003E+02 -0.17308E-01
 0.94099998E+02 -0.18557E-01
 0.94150002E+02 -0.12195E-01
 0.94200005E+02  0.18558E-02
 0.94250000E+02  0.16530E-01
 0.94300003E+02  0.21915E-01
 0.94349998E+02  0.15506E-01
 0.94400002E+02  0.81912E-03
 0.94450005E+02 -0.14468E-01
 0.94500000E+02 -0.25344E-01
 0.94550003E+02 -0.28337E-01
 0.94599998E+02 -0.25268E-01
 0.94650002E+02 -0.20606E-01
 0.94700005E+02 -0.11336E-01
 0.94750000E+02  0.60357E-02
 0.94800003E+02  0.27294E-01
 0.94849998E+02  0.46291E-01
 0.94900002E+02  0.62060E-01
 0.94950005E+02  0.75007E-01
 0.95000000E+02  0.81912E-01
 0.95050003E+02  0.79994E-01
 0.95099998E+02  0.74342E-01
 0.95150002E+02  0.63957E-01
 0.95200005E+02  0.41056E-01
 0.95250000E+02  0.43368E-02
 0.95300003E+02 -0.38877E-01
 0.95349998E+02 -0.78907E-01
 0.95400002E+02 -0.10745E+00
 0.95450005E+02 -0.11909E+00
 0.95500000E+02 -0.11421E+00
 0.95550003E+02 -0.96305E-01
 0.95599998E+02 -0.68659E-01
 0.95650002E+02 -0.32676E-01
 0.95700005E+02  0.35864E-02
 0.95750000E+02  0.27746E-01
 0.95800003E+02  0.34163E-01
 0.95849998E+02  0.30450E-01
 0.95900002E+02  0.26755E-01
 0.95950005E+02  0.23509E-01
 0.96000000E+02  0.20449E-01
 0.96050003E+02  0.20438E-01
 0.96099998E+02  0.25421E-01
 0.96150002E+02  0.34497E-01
 0.96200005E+02  0.45609E-01
 0.96250000E+02  0.52870E-01
 0.96300003E+02  0.53946E-01
 0.96349998E+02  0.51200E-01
 0.96400002E+02  0.45219E-01
 0.96450005E+02  0.33480E-01
 0.96500000E+02  0.15102E-01
 0.96550003E+02 -0.45142E-02
 0.96599998E+02 -0.22842E-01
 0.96650002E+02 -0.38188E-01
 0.96700005E+02 -0.47367E-01
 0.96750000E+02 -0.50285E-01
 0.96800003E+02 -0.49969E-01
 0.96849998E+02 -0.47143E-01
 0.96900002E+02 -0.39330E-01
 0.96950005E+02 -0.26403E-01
 0.97000000E+02 -0.12862E-01
 0.97050003E+02 -0.48262E-02
 0.97099998E+02 -0.65281E-02
 0.97150002E+02 -0.13249E-01
 0.97200005E+02 -0.19618E-01
 0.97250000E+02 -0.23715E-01
 0.97300003E+02 -0.22325E-01
 0.97349998E+02 -0.15298E-01
 0.97400002E+02 -0.64016E-02
 0.97450005E+02  0.70176E-03
 0.97500000E+02  0.29914E-02
 0.97550003E+02 -0.10341E-02
 0.97599998E+02 -0.61001E-02
 0.97650002E+02 -0.78107E-02
 0.97700005E+02 -0.51266E-02
 0.97750000E+02  0.85427E-03
 0.97800003E+02  0.80323E-02
 0.97849998E+02  0.13706E-01
 0.97900002E+02  0.17547E-01
 0.97950005E+02  0.19220E-01
 0.98000000E+02  0.18484E-01
 0.98050003E+02  0.18841E-01
 0.98099998E+02  0.19362E-01
 0.98150002E+02  0.17067E-01
 0.98200005E+02  0.12257E-01
 0.98250000E+02  0.99884E-02
 0.98300003E+02  0.10285E-01
 0.98349998E+02  0.74121E-02
 0.98400002E+02  0.19413E-02
 0.98450005E+02 -0.31024E-02
 0.98500000E+02 -0.57788E-02
 0.98550003E+02 -0.88679E-02
 0.98599998E+02 -0.15158E-01
 0.98650002E+02 -0.22444E-01
 0.98700005E+02 -0.25591E-01
 0.98750000E+02 -0.20784E-01
 0.98800003E+02 -0.11083E-01
 0.98849998E+02 -0.53618E-02
 0.98900002E+02 -0.68055E-02
 0.98950005E+02 -0.98139E-02
 0.99000000E+02 -0.91777E-02
 0.99050003E+02 -0.36920E-02
 0.99099998E+02  0.22064E-02
 0.99150002E+02  0.60962E-02
 0.99200005E+02  0.77687E-02
 0.99250000E+02  0.77524E-02
 0.99300003E+02  0.58165E-02
 0.99349998E+02  0.13551E-02
 0.99400002E+02 -0.49214E-02
 0.99450005E+02 -0.90128E-02
 0.99500000E+02 -0.48881E-02
 0.99550003E+02  0.58539E-02
 0.99599998E+02  0.17204E-01
 0.99650002E+02  0.24033E-01
 0.99700005E+02  0.24522E-01
 0.99750000E+02  0.19563E-01
 0.99800003E+02  0.94291E-02
 0.99849998E+02 -0.49200E-02
 0.99900002E+02 -0.19949E-01
 0.99950005E+02 -0.31761E-01
 0.10000000E+03 -0.33754E-01
 0.10005000E+03 -0.24516E-01
 0.10010000E+03 -0.10548E-01
 0.10015000E+03  0.50482E-02
 0.10020000E+03  0.19375E-01
 0.10025000E+03  0.27936E-01
 0.10030000E+03  0.32216E-01
 0.10035000E+03  0.36286E-01
 0.10040000E+03  0.38926E-01
 0.10045000E+03  0.37488E-01
 0.10050000E+03  0.32804E-01
 0.10055000E+03  0.27741E-01
 0.10060000E+03  0.22025E-01
 0.10065000E+03  0.12931E-01
 0.10070000E+03  0.46420E-03
 0.10075000E+03 -0.12367E-01
 0.10080000E+03 -0.25439E-01
 0.10085000E+03 -0.37848E-01
 0.10090000E+03 -0.45673E-01
 0.10095000E+03 -0.47172E-01
 0.10100000E+03 -0.42797E-01
 0.10105000E+03 -0.33385E-01
 0.10110000E+03 -0.19626E-01
 0.10115000E+03 -0.34412E-02
 0.10120000E+03  0.10435E-01
 0.10125000E+03  0.19768E-01
 0.10130000E+03  0.23687E-01
 0.10135000E+03  0.19574E-01
 0.10140000E+03  0.12046E-01
 0.10145000E+03  0.67519E-02
 0.10150000E+03  0.58195E-02
 0.10155000E+03  0.10978E-01
 0.10160000E+03  0.19196E-01
 0.10165000E+03  0.21904E-01
 0.10170000E+03  0.18302E-01
 0.10175000E+03  0.17165E-01
 0.10180000E+03  0.20170E-01
 0.10185000E+03  0.20590E-01
 0.10190000E+03  0.12913E-01
 0.10195000E+03 -0.25376E-02
 0.10200000E+03 -0.21092E-01
 0.10205000E+03 -0.37084E-01
 0.10210000E+03 -0.47470E-01
 0.10215000E+03 -0.52564E-01
 0.10220000E+03 -0.52603E-01
 0.10225000E+03 -0.45476E-01
 0.10230000E+03 -0.31386E-01
 0.10235000E+03 -0.15348E-01
 0.10240000E+03 -0.50024E-02
 0.10245000E+03 -0.32619E-02
 0.10250000E+03 -0.58478E-02
 0.10255000E+03 -0.79389E-02
 0.10260000E+03 -0.78413E-02
 0.10265000E+03 -0.59423E-02
 0.10270000E+03 -0.22873E-02
 0.10275000E+03  0.20519E-02
 0.10280000E+03  0.88278E-02
 0.10285000E+03  0.17509E-01
 0.10290000E+03  0.26402E-01
 0.10295000E+03  0.36086E-01
 0.10300000E+03  0.43278E-01
 0.10305000E+03  0.45523E-01
 0.10310000E+03  0.43025E-01
 0.10315000E+03  0.35390E-01
 0.10320000E+03  0.22866E-01
 0.10325000E+03  0.10215E-01
 0.10330000E+03 -0.16395E-02
 0.10335000E+03 -0.14431E-01
 0.10340000E+03 -0.26397E-01
 0.10345000E+03 -0.37038E-01
 0.10350000E+03 -0.44244E-01
 0.10355000E+03 -0.44629E-01
 0.10360000E+03 -0.38696E-01
 0.10365000E+03 -0.28546E-01
 0.10370000E+03 -0.15045E-01
 0.10375000E+03 -0.17651E-02
 0.10380000E+03  0.90681E-02
 0.10385000E+03  0.16060E-01
 0.10390000E+03  0.18645E-01
 0.10395000E+03  0.20404E-01
 0.10400000E+03  0.21491E-01
 0.10405000E+03  0.23077E-01
 0.10410000E+03  0.25681E-01
 0.10415000E+03  0.26031E-01
 0.10420000E+03  0.25788E-01
 0.10425000E+03  0.27658E-01
 0.10430000E+03  0.28389E-01
 0.10435000E+03  0.24810E-01
 0.10440000E+03  0.16118E-01
 0.10445000E+03  0.46609E-02
 0.10450000E+03 -0.47273E-02
 0.10455000E+03 -0.10902E-01
 0.10460000E+03 -0.15776E-01
 0.10465000E+03 -0.22933E-01
 0.10470000E+03 -0.30725E-01
 0.10475000E+03 -0.34136E-01
 0.10480000E+03 -0.31495E-01
 0.10485000E+03 -0.23999E-01
 0.10490000E+03 -0.15833E-01
 0.10495000E+03 -0.10975E-01
 0.10500000E+03 -0.96277E-02
 0.10505000E+03 -0.97324E-02
 0.10510000E+03 -0.91768E-02
 0.10515000E+03 -0.43024E-02
 0.10520000E+03  0.67376E-02
 0.10525000E+03  0.18968E-01
 0.10530000E+03  0.27246E-01
 0.10535000E+03  0.31469E-01
 0.10540000E+03  0.33410E-01
 0.10545000E+03  0.32968E-01
 0.10550000E+03  0.26979E-01
 0.10555000E+03  0.12565E-01
 0.10560000E+03 -0.88873E-02
 0.10565000E+03 -0.30975E-01
 0.10570000E+03 -0.45876E-01
 0.10575000E+03 -0.48965E-01
 0.10580000E+03 -0.42187E-01
 0.10585000E+03 -0.32141E-01
 0.10590000E+03 -0.22717E-01
 0.10595000E+03 -0.14575E-01
 0.10600000E+03 -0.68787E-02
 0.10605000E+03 -0.17182E-02
 0.10610000E+03 -0.36334E-02
 0.10615000E+03 -0.10790E-01
 0.10620000E+03 -0.17787E-01
 0.10625000E+03 -0.22087E-01
 0.10630000E+03 -0.23118E-01
 0.10635000E+03 -0.18490E-01
 0.10640000E+03 -0.86871E-02
 0.10645000E+03  0.32237E-02
 0.10650000E+03  0.14122E-01
 0.10655000E+03  0.21834E-01
 0.10660000E+03  0.24420E-01
 0.10665000E+03  0.23221E-01
 0.10670000E+03  0.21352E-01
 0.10675000E+03  0.17453E-01
 0.10680000E+03  0.10240E-01
 0.10685000E+03  0.83782E-03
 0.10690000E+03 -0.66886E-02
 0.10695000E+03 -0.92345E-02
 0.10700000E+03 -0.68076E-02
 0.10705000E+03 -0.43418E-02
 0.10710000E+03 -0.47939E-02
 0.10715000E+03 -0.47562E-02
 0.10720000E+03 -0.16287E-02
 0.10725000E+03  0.42778E-02
 0.10730000E+03  0.12664E-01
 0.10735000E+03  0.21440E-01
 0.10740000E+03  0.25490E-01
 0.10745000E+03  0.23784E-01
 0.10750000E+03  0.17082E-01
 0.10755000E+03  0.39995E-02
 0.10760000E+03 -0.12482E-01
 0.10765000E+03 -0.23294E-01
 0.10770000E+03 -0.22439E-01
 0.10775000E+03 -0.10984E-01
 0.10780000E+03  0.87854E-02
 0.10785000E+03  0.28935E-01
 0.10790000E+03  0.38963E-01
 0.10795000E+03  0.39184E-01
 0.10800000E+03  0.34303E-01
 0.10805000E+03  0.27102E-01
 0.10810000E+03  0.18450E-01
 0.10815000E+03  0.95192E-02
 0.10820000E+03  0.12767E-02
 0.10825000E+03 -0.74152E-02
 0.10830000E+03 -0.16014E-01
 0.10835000E+03 -0.22052E-01
 0.10840000E+03 -0.24377E-01
 0.10845000E+03 -0.23202E-01
 0.10850000E+03 -0.19653E-01
 0.10855000E+03 -0.13956E-01
 0.10860000E+03 -0.46676E-02
 0.10865000E+03  0.76725E-02
 0.10870000E+03  0.19446E-01
 0.10875000E+03  0.27072E-01
 0.10880000E+03  0.29679E-01
 0.10885000E+03  0.25709E-01
 0.10890000E+03  0.16033E-01
 0.10895000E+03  0.57899E-02
 0.10900000E+03 -0.63211E-03
 0.10905000E+03 -0.29093E-02
 0.10910000E+03 -0.42403E-02
 0.10915000E+03 -0.42513E-02
 0.10920000E+03 -0.16649E-02
 0.10925000E+03  0.73079E-04
 0.10930000E+03 -0.96204E-03
 0.10935000E+03 -0.34766E-02
 0.10940000E+03 -0.58294E-02
 0.10945000E+03 -0.58289E-02
 0.10950000E+03 -0.19502E-02
 0.10955000E+03  0.46232E-02
 0.10960000E+03  0.11468E-01
 0.10965000E+03  0.16379E-01
 0.10970000E+03  0.18121E-01
 0.10975000E+03  0.16441E-01
 0.10980000E+03  0.11680E-01
 0.10985000E+03  0.51682E-02
 0.10990000E+03  0.83236E-03
 0.10995000E+03  0.20446E-02
 0.11000000E+03  0.69143E-02
 0.11005000E+03  0.11044E-01
 0.11010000E+03  0.11549E-01
 0.11015000E+03  0.56209E-02
 0.11020000E+03 -0.76948E-02
 0.11025000E+03 -0.21760E-01
 0.11030000E+03 -0.28240E-01
 0.11035000E+03 -0.25405E-01
 0.11040000E+03 -0.16790E-01
 0.11045000E+03 -0.61626E-02
 0.11050000E+03  0.22129E-02
 0.11055000E+03  0.49126E-02
 0.11060000E+03  0.27766E-02
 0.11065000E+03  0.20901E-03
 0.11070000E+03 -0.14736E-02
 0.11075000E+03 -0.51218E-02
 0.11080000E+03 -0.10265E-01
 0.11085000E+03 -0.13072E-01
 0.11090000E+03 -0.11437E-01
 0.11095000E+03 -0.62378E-02
 0.11100000E+03 -0.16591E-03
 0.11105000E+03  0.51965E-02
 0.11110000E+03  0.11814E-01
 0.11115000E+03  0.19225E-01
 0.11120000E+03  0.23289E-01
 0.11125000E+03  0.22291E-01
 0.11130000E+03  0.15717E-01
 0.11135000E+03  0.48995E-02
 0.11140000E+03 -0.55131E-02
 0.11145000E+03 -0.12784E-01
 0.11150000E+03 -0.14689E-01
 0.11155000E+03 -0.91222E-02
 0.11160000E+03  0.51667E-03
 0.11165000E+03  0.10010E-01
 0.11170000E+03  0.17448E-01
 0.11175000E+03  0.20379E-01
 0.11180000E+03  0.18103E-01
 0.11185000E+03  0.11618E-01
 0.11190000E+03  0.22505E-02
 0.11195000E+03 -0.92332E-02
 0.11200000E+03 -0.20867E-01
 0.11205000E+03 -0.28831E-01
 0.11210000E+03 -0.31508E-01
 0.11215000E+03 -0.29327E-01
 0.11220000E+03 -0.22035E-01
 0.11225000E+03 -0.11062E-01
 0.11230000E+03 -0.15010E-02
 0.11235000E+03  0.36936E-02
 0.11240000E+03  0.53687E-02
 0.11245000E+03  0.48719E-02
 0.11250000E+03  0.15737E-02
 0.11255000E+03 -0.63459E-02
 0.11260000E+03 -0.15570E-01
 0.11265000E+03 -0.21729E-01
 0.11270000E+03 -0.24663E-01
 0.11275000E+03 -0.22399E-01
 0.11280000E+03 -0.15482E-01
 0.11285000E+03 -0.80342E-02
 0.11290000E+03 -0.32372E-03
 0.11295000E+03  0.95039E-02
 0.11300000E+03  0.21450E-01
 0.11305000E+03  0.33422E-01
 0.11310000E+03  0.41868E-01
 0.11315000E+03  0.45723E-01
 0.11320000E+03  0.46665E-01
 0.11325000E+03  0.45455E-01
 0.11330000E+03  0.42637E-01
 0.11335000E+03  0.36601E-01
 0.11340000E+03  0.24875E-01
 0.11345000E+03  0.63475E-02
 0.11350000E+03 -0.15468E-01
 0.11355000E+03 -0.35177E-01
 0.11360000E+03 -0.48334E-01
 0.11365000E+03 -0.50400E-01
 0.11370000E+03 -0.41544E-01
 0.11375000E+03 -0.26685E-01
 0.11380000E+03 -0.86172E-02
 0.11385000E+03  0.11050E-01
 0.11390000E+03  0.27444E-01
 0.11395000E+03  0.36600E-01
 0.11400000E+03  0.38271E-01
 0.11405000E+03  0.35948E-01
 0.11410000E+03  0.31711E-01
 0.11415000E+03  0.26024E-01
 0.11420000E+03  0.19900E-01
 0.11425000E+03  0.12737E-01
 0.11430000E+03  0.44188E-02
 0.11435000E+03 -0.26377E-02
 0.11440000E+03 -0.69961E-02
 0.11445000E+03 -0.10233E-01
 0.11450000E+03 -0.12627E-01
 0.11455000E+03 -0.12511E-01
 0.11460000E+03 -0.79513E-02
 0.11465000E+03  0.63539E-03
 0.11470000E+03  0.92150E-02
 0.11475000E+03  0.13609E-01
 0.11480000E+03  0.13634E-01
 0.11485000E+03  0.96728E-02
 0.11490000E+03  0.22210E-02
 0.11495000E+03 -0.52308E-02
 0.11500000E+03 -0.11064E-01
 0.11505000E+03 -0.15794E-01
 0.11510000E+03 -0.19438E-01
 0.11515000E+03 -0.21499E-01
 0.11520000E+03 -0.22224E-01
 0.11525000E+03 -0.21050E-01
 0.11530000E+03 -0.16491E-01
 0.11535000E+03 -0.76499E-02
 0.11540000E+03  0.31229E-02
 0.11545000E+03  0.12903E-01
 0.11550000E+03  0.20807E-01
 0.11555000E+03  0.24694E-01
 0.11560000E+03  0.24530E-01
 0.11565000E+03  0.21882E-01
 0.11570000E+03  0.17151E-01
 0.11575000E+03  0.10272E-01
 0.11580000E+03  0.16616E-02
 0.11585000E+03 -0.72944E-02
 0.11590000E+03 -0.15034E-01
 0.11595000E+03 -0.21006E-01
 0.11600000E+03 -0.25230E-01
 0.11605000E+03 -0.27508E-01
 0.11610000E+03 -0.28773E-01
 0.11615000E+03 -0.30848E-01
 0.11620000E+03 -0.34833E-01
 0.11625000E+03 -0.39463E-01
 0.11630000E+03 -0.42581E-01
 0.11635000E+03 -0.41466E-01
 0.11640000E+03 -0.34631E-01
 0.11645000E+03 -0.23158E-01
 0.11650000E+03 -0.85057E-02
 0.11655000E+03  0.70774E-02
 0.11660000E+03  0.20852E-01
 0.11665000E+03  0.30376E-01
 0.11670000E+03  0.34124E-01
 0.11675000E+03  0.31938E-01
 0.11680000E+03  0.26787E-01
 0.11685000E+03  0.21568E-01
 0.11690000E+03  0.16468E-01
 0.11695000E+03  0.11248E-01
 0.11700000E+03  0.60251E-02
 0.11705000E+03  0.15304E-02
 0.11710000E+03 -0.37679E-02
 0.11715000E+03 -0.98849E-02
 0.11720000E+03 -0.13705E-01
 0.11725000E+03 -0.14224E-01
 0.11730000E+03 -0.11754E-01
 0.11735000E+03 -0.65776E-02
 0.11740000E+03  0.13442E-02
 0.11745000E+03  0.11280E-01
 0.11750000E+03  0.19871E-01
 0.11755000E+03  0.23244E-01
 0.11760000E+03  0.21168E-01
 0.11765000E+03  0.16250E-01
 0.11770000E+03  0.10856E-01
 0.11775000E+03  0.50974E-02
 0.11780000E+03 -0.48050E-03
 0.11785000E+03 -0.45140E-02
 0.11790000E+03 -0.66829E-02
 0.11795000E+03 -0.65935E-02
 0.11800000E+03 -0.53603E-02
 0.11805000E+03 -0.46452E-02
 0.11810000E+03 -0.45791E-02
 0.11815000E+03 -0.42865E-02
 0.11820000E+03 -0.41007E-02
 0.11825000E+03 -0.38451E-02
 0.11830000E+03 -0.29139E-02
 0.11835000E+03 -0.19632E-02
 0.11840000E+03 -0.89240E-03
 0.11845000E+03  0.62472E-03
 0.11850000E+03  0.18845E-02
 0.11855000E+03  0.18877E-02
 0.11860000E+03 -0.39801E-03
 0.11865000E+03 -0.44496E-02
 0.11870000E+03 -0.68207E-02
 0.11875000E+03 -0.57551E-02
 0.11880000E+03 -0.33901E-02
 0.11885000E+03 -0.14511E-02
 0.11890000E+03  0.21782E-02
 0.11895000E+03  0.68021E-02
 0.11900000E+03  0.93756E-02
 0.11905000E+03  0.10433E-01
 0.11910000E+03  0.99443E-02
 0.11915000E+03  0.76980E-02
 0.11920000E+03  0.44148E-02
 0.11925000E+03  0.31050E-02
 0.11930000E+03  0.34753E-02
 0.11935000E+03  0.54418E-02
 0.11940000E+03  0.85232E-02
 0.11945000E+03  0.12373E-01
 0.11950000E+03  0.15362E-01
 0.11955000E+03  0.16021E-01
 0.11960000E+03  0.13385E-01
 0.11965000E+03  0.68391E-02
 0.11970000E+03 -0.82552E-03
 0.11975000E+03 -0.81956E-02
 0.11980000E+03 -0.12555E-01
 0.11985000E+03 -0.17123E-01
 0.11990000E+03 -0.17919E-01
 0.11995000E+03 -0.20262E-01
 0.12000000E+03 -0.98751E-02
