 0.00000000E+00  0.10833E-02
 0.50000001E-01  0.16411E-02
 0.10000000E+00  0.14462E-02
 0.15000001E+00  0.15350E-02
 0.20000000E+00  0.14218E-02
 0.25000000E+00  0.14193E-02
 0.30000001E+00  0.13140E-02
 0.34999999E+00  0.12592E-02
 0.40000001E+00  0.11793E-02
 0.45000002E+00  0.10925E-02
 0.50000000E+00  0.95376E-03
 0.55000001E+00  0.78822E-03
 0.60000002E+00  0.63259E-03
 0.65000004E+00  0.51819E-03
 0.69999999E+00  0.40320E-03
 0.75000000E+00  0.25358E-03
 0.80000001E+00  0.13090E-03
 0.85000002E+00 -0.20126E-04
 0.90000004E+00 -0.13078E-03
 0.94999999E+00 -0.23832E-03
 0.10000000E+01 -0.32897E-03
 0.10500001E+01 -0.40854E-03
 0.11000000E+01 -0.47880E-03
 0.11500000E+01 -0.51094E-03
 0.12000000E+01 -0.51488E-03
 0.12500000E+01 -0.48764E-03
 0.13000001E+01 -0.45014E-03
 0.13500000E+01 -0.35575E-03
 0.14000000E+01 -0.26494E-03
 0.14500000E+01 -0.14055E-03
 0.15000000E+01  0.17816E-04
 0.15500001E+01  0.13163E-03
 0.16000000E+01  0.30383E-03
 0.16500000E+01  0.46323E-03
 0.17000000E+01  0.65030E-03
 0.17500000E+01  0.84799E-03
 0.18000001E+01  0.10326E-02
 0.18500000E+01  0.11802E-02
 0.19000000E+01  0.12906E-02
 0.19500000E+01  0.13884E-02
 0.20000000E+01  0.14757E-02
 0.20500000E+01  0.15385E-02
 0.21000001E+01  0.15676E-02
 0.21500001E+01  0.15792E-02
 0.22000000E+01  0.15636E-02
 0.22500000E+01  0.15502E-02
 0.23000000E+01  0.15600E-02
 0.23500001E+01  0.15982E-02
 0.24000001E+01  0.16019E-02
 0.24500000E+01  0.16043E-02
 0.25000000E+01  0.16042E-02
 0.25500000E+01  0.15729E-02
 0.26000001E+01  0.15767E-02
 0.26500001E+01  0.15399E-02
 0.27000000E+01  0.15118E-02
 0.27500000E+01  0.14596E-02
 0.28000000E+01  0.13679E-02
 0.28500001E+01  0.12950E-02
 0.29000001E+01  0.12051E-02
 0.29500000E+01  0.11592E-02
 0.30000000E+01  0.10779E-02
 0.30500000E+01  0.10196E-02
 0.31000001E+01  0.97256E-03
 0.31500001E+01  0.94161E-03
 0.32000000E+01  0.95840E-03
 0.32500000E+01  0.96282E-03
 0.33000000E+01  0.96601E-03
 0.33500001E+01  0.95947E-03
 0.34000001E+01  0.93802E-03
 0.34500000E+01  0.89266E-03
 0.35000000E+01  0.88214E-03
 0.35500000E+01  0.86475E-03
 0.36000001E+01  0.85343E-03
 0.36500001E+01  0.84537E-03
 0.37000000E+01  0.80697E-03
 0.37500000E+01  0.80591E-03
 0.38000000E+01  0.78647E-03
 0.38500001E+01  0.81770E-03
 0.39000001E+01  0.89301E-03
 0.39500000E+01  0.95047E-03
 0.40000000E+01  0.10357E-02
 0.40500002E+01  0.11331E-02
 0.40999999E+01  0.12552E-02
 0.41500001E+01  0.14006E-02
 0.42000003E+01  0.15566E-02
 0.42500000E+01  0.16728E-02
 0.43000002E+01  0.17626E-02
 0.43499999E+01  0.18383E-02
 0.44000001E+01  0.18487E-02
 0.44500003E+01  0.17980E-02
 0.45000000E+01  0.17329E-02
 0.45500002E+01  0.16466E-02
 0.45999999E+01  0.15402E-02
 0.46500001E+01  0.14269E-02
 0.47000003E+01  0.12797E-02
 0.47500000E+01  0.11446E-02
 0.48000002E+01  0.99889E-03
 0.48499999E+01  0.83716E-03
 0.49000001E+01  0.72493E-03
 0.49500003E+01  0.62693E-03
 0.50000000E+01  0.53725E-03
 0.50500002E+01  0.43071E-03
 0.50999999E+01  0.30557E-03
 0.51500001E+01  0.21571E-03
 0.52000003E+01  0.12959E-03
 0.52500000E+01  0.59064E-04
 0.53000002E+01  0.15994E-04
 0.53499999E+01 -0.10349E-05
 0.54000001E+01 -0.21957E-06
 0.54500003E+01 -0.15058E-04
 0.55000000E+01 -0.24989E-04
 0.55500002E+01 -0.24104E-04
 0.55999999E+01  0.13616E-04
 0.56500001E+01  0.49640E-04
 0.57000003E+01  0.52764E-04
 0.57500000E+01  0.70093E-04
 0.58000002E+01  0.94549E-04
 0.58499999E+01  0.12214E-03
 0.59000001E+01  0.15993E-03
 0.59500003E+01  0.17400E-03
 0.60000000E+01  0.21717E-03
 0.60500002E+01  0.28489E-03
 0.60999999E+01  0.36098E-03
 0.61500001E+01  0.47638E-03
 0.62000003E+01  0.58836E-03
 0.62500000E+01  0.71376E-03
 0.63000002E+01  0.85250E-03
 0.63499999E+01  0.10081E-02
 0.64000001E+01  0.11580E-02
 0.64500003E+01  0.12979E-02
 0.65000000E+01  0.14189E-02
 0.65500002E+01  0.15578E-02
 0.65999999E+01  0.17099E-02
 0.66500001E+01  0.18018E-02
 0.67000003E+01  0.18665E-02
 0.67500000E+01  0.19013E-02
 0.68000002E+01  0.19194E-02
 0.68499999E+01  0.19283E-02
 0.69000001E+01  0.19129E-02
 0.69500003E+01  0.18581E-02
 0.70000000E+01  0.18136E-02
 0.70500002E+01  0.17513E-02
 0.70999999E+01  0.16933E-02
 0.71500001E+01  0.16576E-02
 0.72000003E+01  0.16003E-02
 0.72500000E+01  0.15551E-02
 0.73000002E+01  0.14541E-02
 0.73499999E+01  0.13672E-02
 0.74000001E+01  0.13002E-02
 0.74500003E+01  0.12224E-02
 0.75000000E+01  0.11497E-02
 0.75500002E+01  0.10958E-02
 0.75999999E+01  0.99135E-03
 0.76500001E+01  0.90047E-03
 0.77000003E+01  0.85209E-03
 0.77500000E+01  0.77252E-03
 0.78000002E+01  0.72853E-03
 0.78499999E+01  0.65883E-03
 0.79000001E+01  0.63995E-03
 0.79500003E+01  0.61446E-03
 0.80000000E+01  0.56106E-03
 0.80500002E+01  0.55098E-03
 0.81000004E+01  0.51602E-03
 0.81500006E+01  0.49688E-03
 0.81999998E+01  0.47446E-03
 0.82500000E+01  0.43757E-03
 0.83000002E+01  0.41420E-03
 0.83500004E+01  0.40196E-03
 0.84000006E+01  0.41117E-03
 0.84499998E+01  0.43515E-03
 0.85000000E+01  0.47124E-03
 0.85500002E+01  0.53694E-03
 0.86000004E+01  0.59929E-03
 0.86500006E+01  0.68629E-03
 0.86999998E+01  0.76171E-03
 0.87500000E+01  0.82877E-03
 0.88000002E+01  0.91218E-03
 0.88500004E+01  0.10102E-02
 0.89000006E+01  0.11203E-02
 0.89499998E+01  0.11854E-02
 0.90000000E+01  0.12394E-02
 0.90500002E+01  0.12567E-02
 0.91000004E+01  0.13112E-02
 0.91500006E+01  0.13548E-02
 0.91999998E+01  0.13983E-02
 0.92500000E+01  0.14343E-02
 0.93000002E+01  0.14508E-02
 0.93500004E+01  0.14527E-02
 0.94000006E+01  0.14268E-02
 0.94499998E+01  0.13928E-02
 0.95000000E+01  0.13457E-02
 0.95500002E+01  0.13356E-02
 0.96000004E+01  0.13055E-02
 0.96500006E+01  0.12896E-02
 0.96999998E+01  0.12502E-02
 0.97500000E+01  0.11659E-02
 0.98000002E+01  0.10960E-02
 0.98500004E+01  0.98371E-03
 0.99000006E+01  0.87016E-03
 0.99499998E+01  0.77372E-03
 0.10000000E+02  0.65119E-03
 0.10050000E+02  0.53873E-03
 0.10100000E+02  0.40917E-03
 0.10150001E+02  0.30208E-03
 0.10200000E+02  0.23954E-03
 0.10250000E+02  0.18043E-03
 0.10300000E+02  0.10573E-03
 0.10350000E+02  0.55077E-04
 0.10400001E+02  0.27137E-04
 0.10450000E+02  0.11094E-05
 0.10500000E+02 -0.16750E-04
 0.10550000E+02 -0.21231E-04
 0.10600000E+02 -0.26768E-04
 0.10650001E+02 -0.27274E-04
 0.10700000E+02  0.65705E-05
 0.10750000E+02  0.15448E-04
 0.10800000E+02  0.71770E-04
 0.10850000E+02  0.15307E-03
 0.10900001E+02  0.25324E-03
 0.10950000E+02  0.35277E-03
 0.11000000E+02  0.43002E-03
 0.11050000E+02  0.53647E-03
 0.11100000E+02  0.64514E-03
 0.11150001E+02  0.76181E-03
 0.11200000E+02  0.86119E-03
 0.11250000E+02  0.94247E-03
 0.11300000E+02  0.99417E-03
 0.11350000E+02  0.10490E-02
 0.11400001E+02  0.10958E-02
 0.11450000E+02  0.11243E-02
 0.11500000E+02  0.11445E-02
 0.11550000E+02  0.11683E-02
 0.11600000E+02  0.11976E-02
 0.11650001E+02  0.12215E-02
 0.11700000E+02  0.12246E-02
 0.11750000E+02  0.12522E-02
 0.11800000E+02  0.12462E-02
 0.11850000E+02  0.12322E-02
 0.11900001E+02  0.12644E-02
 0.11950000E+02  0.12949E-02
 0.12000000E+02  0.13234E-02
 0.12050000E+02  0.13519E-02
 0.12100000E+02  0.13969E-02
 0.12150001E+02  0.14429E-02
 0.12200000E+02  0.15155E-02
 0.12250000E+02  0.15489E-02
 0.12300000E+02  0.15778E-02
 0.12350000E+02  0.15772E-02
 0.12400001E+02  0.15449E-02
 0.12450000E+02  0.15343E-02
 0.12500000E+02  0.15006E-02
 0.12550000E+02  0.14668E-02
 0.12600000E+02  0.14197E-02
 0.12650001E+02  0.13496E-02
 0.12700000E+02  0.13099E-02
 0.12750000E+02  0.12977E-02
 0.12800000E+02  0.12663E-02
 0.12850000E+02  0.12210E-02
 0.12900001E+02  0.11588E-02
 0.12950000E+02  0.10968E-02
 0.13000000E+02  0.10462E-02
 0.13050000E+02  0.10170E-02
 0.13100000E+02  0.97887E-03
 0.13150001E+02  0.92635E-03
 0.13200000E+02  0.89472E-03
 0.13250000E+02  0.86378E-03
 0.13300000E+02  0.85821E-03
 0.13350000E+02  0.82631E-03
 0.13400001E+02  0.77648E-03
 0.13450000E+02  0.73092E-03
 0.13500000E+02  0.69288E-03
 0.13550000E+02  0.65144E-03
 0.13600000E+02  0.57642E-03
 0.13650001E+02  0.45196E-03
 0.13700000E+02  0.34798E-03
 0.13750000E+02  0.23218E-03
 0.13800000E+02  0.11241E-03
 0.13850000E+02  0.12297E-04
 0.13900001E+02 -0.10048E-03
 0.13950000E+02 -0.14841E-03
 0.14000000E+02 -0.20940E-03
 0.14050000E+02 -0.24956E-03
 0.14100000E+02 -0.24272E-03
 0.14150001E+02 -0.20695E-03
 0.14200000E+02 -0.16742E-03
 0.14250000E+02 -0.71622E-04
 0.14300000E+02  0.25841E-04
 0.14350000E+02  0.13692E-03
 0.14400001E+02  0.26513E-03
 0.14450000E+02  0.35685E-03
 0.14500000E+02  0.48541E-03
 0.14550000E+02  0.58481E-03
 0.14600000E+02  0.67596E-03
 0.14650001E+02  0.76134E-03
 0.14700000E+02  0.84629E-03
 0.14750000E+02  0.92026E-03
 0.14800000E+02  0.97266E-03
 0.14850000E+02  0.10264E-02
 0.14900001E+02  0.10615E-02
 0.14950000E+02  0.10859E-02
 0.15000000E+02  0.11070E-02
 0.15050000E+02  0.11258E-02
 0.15100000E+02  0.11639E-02
 0.15150001E+02  0.12027E-02
 0.15200000E+02  0.12498E-02
 0.15250000E+02  0.12984E-02
 0.15300000E+02  0.13356E-02
 0.15350000E+02  0.13807E-02
 0.15400001E+02  0.14127E-02
 0.15450000E+02  0.14646E-02
 0.15500000E+02  0.15304E-02
 0.15550000E+02  0.16052E-02
 0.15600000E+02  0.16973E-02
 0.15650001E+02  0.17701E-02
 0.15700000E+02  0.18202E-02
 0.15750000E+02  0.18786E-02
 0.15800000E+02  0.19108E-02
 0.15850000E+02  0.19157E-02
 0.15900001E+02  0.18928E-02
 0.15950000E+02  0.18295E-02
 0.16000000E+02  0.17521E-02
 0.16050001E+02  0.16294E-02
 0.16100000E+02  0.15099E-02
 0.16150000E+02  0.13993E-02
 0.16200001E+02  0.12435E-02
 0.16250000E+02  0.10956E-02
 0.16300001E+02  0.98834E-03
 0.16350000E+02  0.87916E-03
 0.16400000E+02  0.78277E-03
 0.16450001E+02  0.68183E-03
 0.16500000E+02  0.57209E-03
 0.16550001E+02  0.49557E-03
 0.16600000E+02  0.39668E-03
 0.16650000E+02  0.31362E-03
 0.16700001E+02  0.25832E-03
 0.16750000E+02  0.18777E-03
 0.16800001E+02  0.13364E-03
 0.16850000E+02  0.88734E-04
 0.16900000E+02  0.49500E-04
 0.16950001E+02  0.47573E-04
 0.17000000E+02  0.68764E-04
 0.17050001E+02  0.82600E-04
 0.17100000E+02  0.97415E-04
 0.17150000E+02  0.11296E-03
 0.17200001E+02  0.12503E-03
 0.17250000E+02  0.15577E-03
 0.17300001E+02  0.21175E-03
 0.17350000E+02  0.24733E-03
 0.17400000E+02  0.29031E-03
 0.17450001E+02  0.35095E-03
 0.17500000E+02  0.39285E-03
 0.17550001E+02  0.43123E-03
 0.17600000E+02  0.45718E-03
 0.17650000E+02  0.50503E-03
 0.17700001E+02  0.58634E-03
 0.17750000E+02  0.68236E-03
 0.17800001E+02  0.76992E-03
 0.17850000E+02  0.84257E-03
 0.17900000E+02  0.93274E-03
 0.17950001E+02  0.97924E-03
 0.18000000E+02  0.10304E-02
 0.18050001E+02  0.11047E-02
 0.18100000E+02  0.11592E-02
 0.18150000E+02  0.12568E-02
 0.18200001E+02  0.13218E-02
 0.18250000E+02  0.13394E-02
 0.18300001E+02  0.13075E-02
 0.18350000E+02  0.12928E-02
 0.18400000E+02  0.13170E-02
 0.18450001E+02  0.97137E-03
 0.18500000E+02  0.10664E-02
 0.18550001E+02  0.11443E-02
 0.18600000E+02  0.78873E-03
 0.18650000E+02  0.87923E-03
 0.18700001E+02  0.10037E-02
 0.18750000E+02  0.16916E-02
 0.18800001E+02  0.86333E-03
 0.18850000E+02  0.24639E-02
 0.18900000E+02  0.12487E-02
 0.18950001E+02  0.25699E-02
 0.19000000E+02  0.59497E-03
 0.19050001E+02  0.27720E-02
 0.19100000E+02  0.80692E-03
 0.19150000E+02  0.37449E-02
 0.19200001E+02  0.57744E-02
 0.19250000E+02  0.17698E-01
 0.19300001E+02  0.30391E-01
 0.19350000E+02  0.51501E-01
 0.19400000E+02  0.65203E-01
 0.19450001E+02  0.87441E-01
 0.19500000E+02  0.10984E+00
 0.19550001E+02  0.58985E-01
 0.19600000E+02  0.65107E-01
 0.19650000E+02  0.68008E-01
 0.19700001E+02  0.24184E-02
 0.19750000E+02 -0.79401E-01
 0.19800001E+02 -0.50461E-01
 0.19850000E+02 -0.63244E-01
 0.19900000E+02 -0.11149E+00
 0.19950001E+02 -0.13575E-01
 0.20000000E+02  0.22063E-01
 0.20050001E+02  0.14578E-01
 0.20100000E+02  0.71824E-02
 0.20150000E+02  0.60581E-01
 0.20200001E+02  0.10355E+00
 0.20250000E+02  0.65976E-02
 0.20300001E+02  0.69212E-01
 0.20350000E+02  0.92138E-01
 0.20400000E+02 -0.67729E-02
 0.20450001E+02  0.78090E-01
 0.20500000E+02  0.16193E+00
 0.20550001E+02  0.51596E-01
 0.20600000E+02 -0.31688E-01
 0.20650000E+02  0.11892E+00
 0.20700001E+02  0.29312E-01
 0.20750000E+02 -0.17213E+00
 0.20800001E+02 -0.26960E+00
 0.20850000E+02 -0.95877E-01
 0.20900000E+02  0.64145E-01
 0.20950001E+02 -0.13575E+00
 0.21000000E+02 -0.21824E-02
 0.21050001E+02  0.20155E-01
 0.21100000E+02 -0.80099E-01
 0.21150000E+02  0.66206E-01
 0.21200001E+02  0.70199E-01
 0.21250000E+02  0.73793E-01
 0.21300001E+02  0.15858E-01
 0.21350000E+02 -0.28496E-01
 0.21400000E+02  0.89081E-01
 0.21450001E+02  0.15207E-01
 0.21500000E+02 -0.44381E-01
 0.21550001E+02  0.12160E-02
 0.21600000E+02 -0.77251E-01
 0.21650000E+02 -0.18889E+00
 0.21700001E+02 -0.29990E-01
 0.21750000E+02  0.32895E-01
 0.21800001E+02 -0.14336E+00
 0.21850000E+02 -0.35349E-01
 0.21900000E+02  0.14226E+00
 0.21950001E+02  0.17483E+00
 0.22000000E+02 -0.35528E-01
 0.22050001E+02 -0.12192E+00
 0.22100000E+02  0.65552E-02
 0.22150000E+02 -0.63596E-01
 0.22200001E+02 -0.48663E-01
 0.22250000E+02  0.10003E+00
 0.22300001E+02  0.15568E+00
 0.22350000E+02  0.15819E+00
 0.22400000E+02  0.70956E-01
 0.22450001E+02  0.51283E-01
 0.22500000E+02  0.19366E-02
 0.22550001E+02 -0.20445E+00
 0.22600000E+02 -0.13751E+00
 0.22650000E+02  0.11428E-01
 0.22700001E+02  0.89919E-02
 0.22750000E+02  0.29301E-01
 0.22800001E+02  0.11541E+00
 0.22850000E+02  0.41805E-03
 0.22900000E+02 -0.18330E+00
 0.22950001E+02 -0.95324E-01
 0.23000000E+02 -0.18137E-01
 0.23050001E+02 -0.36583E-01
 0.23100000E+02  0.34816E-02
 0.23150000E+02 -0.25907E-02
 0.23200001E+02 -0.13537E+00
 0.23250000E+02 -0.30301E-01
 0.23300001E+02  0.12771E+00
 0.23350000E+02  0.71058E-01
 0.23400000E+02  0.51326E-01
 0.23450001E+02  0.51034E-01
 0.23500000E+02  0.59239E-01
 0.23550001E+02 -0.13968E-01
 0.23600000E+02 -0.61579E-01
 0.23650000E+02  0.75260E-02
 0.23700001E+02  0.86827E-01
 0.23750000E+02  0.14512E+00
 0.23800001E+02  0.13838E-01
 0.23850000E+02 -0.63706E-01
 0.23900000E+02 -0.23108E-02
 0.23950001E+02  0.48131E-01
 0.24000000E+02 -0.70816E-01
 0.24050001E+02 -0.19313E+00
 0.24100000E+02 -0.14755E+00
 0.24150000E+02  0.80688E-02
 0.24200001E+02  0.88968E-01
 0.24250000E+02  0.33741E-01
 0.24300001E+02  0.56362E-01
 0.24350000E+02  0.19689E+00
 0.24400000E+02  0.30421E+00
 0.24450001E+02  0.88065E-01
 0.24500000E+02 -0.77847E-01
 0.24550001E+02 -0.91653E-01
 0.24600000E+02 -0.18341E+00
 0.24650000E+02 -0.20153E+00
 0.24700001E+02 -0.15585E+00
 0.24750000E+02  0.33909E-01
 0.24800001E+02  0.19223E+00
 0.24850000E+02  0.14201E+00
 0.24900000E+02  0.16105E+00
 0.24950001E+02  0.19437E+00
 0.25000000E+02  0.10252E+00
 0.25050001E+02 -0.48330E-01
 0.25100000E+02 -0.32194E-01
 0.25150000E+02  0.51735E-01
 0.25200001E+02 -0.73402E-01
 0.25250000E+02 -0.68310E-01
 0.25300001E+02  0.17156E-01
 0.25350000E+02  0.11128E-01
 0.25400000E+02  0.10144E+00
 0.25450001E+02  0.11257E+00
 0.25500000E+02  0.42350E-01
 0.25550001E+02  0.49003E-01
 0.25600000E+02  0.14169E+00
 0.25650000E+02  0.54078E-01
 0.25700001E+02 -0.15147E+00
 0.25750000E+02 -0.16573E+00
 0.25800001E+02 -0.10605E+00
 0.25850000E+02 -0.12123E-01
 0.25900000E+02  0.30932E-01
 0.25950001E+02 -0.98595E-02
 0.26000000E+02  0.65619E-01
 0.26050001E+02  0.59192E-01
 0.26100000E+02 -0.18605E-01
 0.26150000E+02 -0.20946E-01
 0.26200001E+02  0.10796E+00
 0.26250000E+02  0.18151E+00
 0.26300001E+02  0.27363E-01
 0.26350000E+02 -0.17151E-01
 0.26400000E+02 -0.57718E-01
 0.26450001E+02 -0.10034E+00
 0.26500000E+02 -0.87443E-01
 0.26550001E+02 -0.32190E-01
 0.26600000E+02  0.68833E-01
 0.26650000E+02  0.11999E+00
 0.26700001E+02  0.54527E-01
 0.26750000E+02 -0.11515E+00
 0.26800001E+02 -0.19345E+00
 0.26850000E+02 -0.11239E+00
 0.26900000E+02 -0.98680E-01
 0.26950001E+02 -0.21345E+00
 0.27000000E+02 -0.23131E+00
 0.27050001E+02 -0.18565E+00
 0.27100000E+02 -0.13565E+00
 0.27150000E+02 -0.13738E+00
 0.27200001E+02 -0.15708E+00
 0.27250000E+02 -0.18917E+00
 0.27300001E+02 -0.11928E+00
 0.27350000E+02  0.48311E-01
 0.27400000E+02  0.11478E+00
 0.27450001E+02  0.25428E+00
 0.27500000E+02  0.31386E+00
 0.27550001E+02  0.26090E+00
 0.27600000E+02  0.29014E+00
 0.27650000E+02  0.27503E+00
 0.27700001E+02  0.78087E-01
 0.27750000E+02 -0.12732E+00
 0.27800001E+02 -0.30935E+00
 0.27850000E+02 -0.45164E+00
 0.27900000E+02 -0.38058E+00
 0.27950001E+02 -0.23806E+00
 0.28000000E+02 -0.20003E+00
 0.28050001E+02 -0.18681E+00
 0.28100000E+02 -0.11691E+00
 0.28150000E+02 -0.57623E-01
 0.28200001E+02 -0.50915E-01
 0.28250000E+02 -0.13802E-01
 0.28300001E+02  0.83615E-01
 0.28350000E+02  0.12569E+00
 0.28400000E+02  0.17758E+00
 0.28450001E+02  0.26397E+00
 0.28500000E+02  0.28191E+00
 0.28550001E+02  0.18909E+00
 0.28600000E+02  0.16036E+00
 0.28650000E+02  0.15030E+00
 0.28700001E+02  0.49003E-01
 0.28750000E+02 -0.52784E-01
 0.28800001E+02 -0.21820E+00
 0.28850000E+02 -0.34661E+00
 0.28900000E+02 -0.26008E+00
 0.28950001E+02 -0.20098E+00
 0.29000000E+02 -0.21240E+00
 0.29050001E+02 -0.14218E+00
 0.29100000E+02 -0.10037E+00
 0.29150000E+02 -0.54882E-01
 0.29200001E+02  0.50221E-01
 0.29250000E+02  0.10902E+00
 0.29300001E+02  0.12172E+00
 0.29350000E+02  0.99725E-01
 0.29400000E+02  0.90667E-01
 0.29450001E+02  0.11803E+00
 0.29500000E+02  0.41511E-01
 0.29550001E+02  0.95111E-02
 0.29600000E+02  0.34641E-01
 0.29650000E+02  0.68710E-01
 0.29700001E+02  0.13350E+00
 0.29750000E+02  0.10058E+00
 0.29800001E+02  0.15840E-02
 0.29850000E+02 -0.22555E-01
 0.29900000E+02 -0.83284E-01
 0.29950001E+02 -0.10994E+00
 0.30000000E+02 -0.18258E-01
 0.30050001E+02 -0.23814E-01
 0.30100000E+02 -0.44958E-01
 0.30150000E+02 -0.75789E-01
 0.30200001E+02 -0.10746E+00
 0.30250000E+02 -0.30713E-01
 0.30300001E+02  0.14763E+00
 0.30350000E+02  0.19491E+00
 0.30400000E+02  0.16389E+00
 0.30450001E+02  0.13944E+00
 0.30500000E+02  0.85039E-01
 0.30550001E+02  0.70777E-01
 0.30600000E+02  0.32004E-01
 0.30650000E+02  0.38788E-01
 0.30700001E+02  0.60121E-01
 0.30750000E+02  0.80871E-01
 0.30800001E+02  0.14348E+00
 0.30850000E+02  0.93724E-01
 0.30900000E+02  0.30310E-01
 0.30950001E+02  0.34857E-01
 0.31000000E+02 -0.77239E-01
 0.31050001E+02 -0.10790E+00
 0.31100000E+02 -0.12986E+00
 0.31150000E+02 -0.18216E+00
 0.31200001E+02 -0.20060E+00
 0.31250000E+02 -0.14950E+00
 0.31300001E+02  0.36411E-01
 0.31350000E+02  0.10155E+00
 0.31400000E+02  0.17397E+00
 0.31450001E+02  0.20472E+00
 0.31500000E+02  0.15900E+00
 0.31550001E+02  0.13399E+00
 0.31600000E+02  0.52294E-01
 0.31650000E+02 -0.34535E-01
 0.31700001E+02 -0.11646E+00
 0.31750000E+02 -0.15921E+00
 0.31800001E+02 -0.14582E+00
 0.31850000E+02 -0.98737E-01
 0.31900000E+02 -0.45119E-01
 0.31950001E+02  0.77223E-01
 0.32000000E+02  0.16420E+00
 0.32049999E+02  0.15343E+00
 0.32100002E+02  0.29521E-01
 0.32150002E+02 -0.14769E+00
 0.32200001E+02 -0.22760E+00
 0.32250000E+02 -0.26287E+00
 0.32299999E+02 -0.30660E+00
 0.32350002E+02 -0.37753E+00
 0.32400002E+02 -0.29950E+00
 0.32450001E+02 -0.10058E+00
 0.32500000E+02  0.12684E+00
 0.32549999E+02  0.36969E+00
 0.32600002E+02  0.49504E+00
 0.32650002E+02  0.53400E+00
 0.32700001E+02  0.44195E+00
 0.32750000E+02  0.25613E+00
 0.32799999E+02  0.82753E-01
 0.32850002E+02 -0.89214E-01
 0.32900002E+02 -0.23658E+00
 0.32950001E+02 -0.40424E+00
 0.33000000E+02 -0.49701E+00
 0.33049999E+02 -0.51900E+00
 0.33100002E+02 -0.44230E+00
 0.33150002E+02 -0.29401E+00
 0.33200001E+02 -0.22844E+00
 0.33250000E+02 -0.97006E-01
 0.33299999E+02  0.64635E-01
 0.33350002E+02  0.16553E+00
 0.33400002E+02  0.11686E+00
 0.33450001E+02  0.12973E+00
 0.33500000E+02  0.11793E+00
 0.33549999E+02  0.57214E-01
 0.33600002E+02  0.13632E+00
 0.33650002E+02  0.17529E+00
 0.33700001E+02  0.90015E-01
 0.33750000E+02  0.99530E-01
 0.33799999E+02  0.22160E+00
 0.33850002E+02  0.18533E+00
 0.33900002E+02  0.24135E+00
 0.33950001E+02  0.34444E+00
 0.34000000E+02  0.22543E+00
 0.34049999E+02 -0.17256E+00
 0.34100002E+02 -0.43918E+00
 0.34150002E+02 -0.27246E+00
 0.34200001E+02 -0.27256E+00
 0.34250000E+02 -0.51262E+00
 0.34299999E+02 -0.43767E+00
 0.34350002E+02 -0.26116E+00
 0.34400002E+02 -0.19928E+00
 0.34450001E+02 -0.12313E+00
 0.34500000E+02 -0.43806E-01
 0.34549999E+02  0.20529E-01
 0.34600002E+02  0.27112E+00
 0.34650002E+02  0.43142E+00
 0.34700001E+02  0.31470E+00
 0.34750000E+02  0.46108E+00
 0.34799999E+02  0.74122E+00
 0.34850002E+02  0.77323E+00
 0.34900002E+02  0.43202E+00
 0.34950001E+02  0.13528E+00
 0.35000000E+02  0.49272E-01
 0.35049999E+02 -0.19799E+00
 0.35100002E+02 -0.45755E+00
 0.35150002E+02 -0.46336E+00
 0.35200001E+02 -0.34521E+00
 0.35250000E+02 -0.22017E+00
 0.35299999E+02 -0.15587E+00
 0.35350002E+02 -0.18986E+00
 0.35400002E+02 -0.28844E+00
 0.35450001E+02 -0.28251E+00
 0.35500000E+02 -0.93446E-01
 0.35549999E+02  0.11058E+00
 0.35600002E+02  0.28156E+00
 0.35650002E+02  0.23756E+00
 0.35700001E+02  0.13607E+00
 0.35750000E+02  0.25532E+00
 0.35799999E+02  0.46097E+00
 0.35850002E+02  0.22312E+00
 0.35900002E+02 -0.11500E+00
 0.35950001E+02  0.48410E-01
 0.36000000E+02  0.56414E+00
 0.36049999E+02  0.87054E+00
 0.36100002E+02  0.58072E+00
 0.36150002E+02  0.89317E-01
 0.36200001E+02 -0.33741E+00
 0.36250000E+02 -0.39033E+00
 0.36299999E+02 -0.28845E+00
 0.36350002E+02 -0.48467E+00
 0.36400002E+02 -0.68575E+00
 0.36450001E+02 -0.66321E+00
 0.36500000E+02 -0.54809E+00
 0.36549999E+02 -0.38549E+00
 0.36600002E+02 -0.12774E+00
 0.36650002E+02  0.37757E-01
 0.36700001E+02 -0.35179E-01
 0.36750000E+02 -0.40632E-01
 0.36799999E+02  0.32265E+00
 0.36850002E+02  0.80360E+00
 0.36900002E+02  0.10000E+01
 0.36950001E+02  0.77503E+00
 0.37000000E+02  0.40428E+00
 0.37049999E+02  0.20500E+00
 0.37100002E+02  0.16055E+00
 0.37150002E+02  0.15111E+00
 0.37200001E+02 -0.42161E-01
 0.37250000E+02 -0.40545E+00
 0.37299999E+02 -0.63243E+00
 0.37350002E+02 -0.55064E+00
 0.37400002E+02 -0.43155E+00
 0.37450001E+02 -0.60441E+00
 0.37500000E+02 -0.77186E+00
 0.37549999E+02 -0.76238E+00
 0.37600002E+02 -0.59524E+00
 0.37650002E+02 -0.13588E+00
 0.37700001E+02  0.37307E+00
 0.37750000E+02  0.60985E+00
 0.37799999E+02  0.53630E+00
 0.37850002E+02  0.51157E+00
 0.37900002E+02  0.59325E+00
 0.37950001E+02  0.64921E+00
 0.38000000E+02  0.66906E+00
 0.38049999E+02  0.42580E+00
 0.38100002E+02  0.48204E-01
 0.38150002E+02 -0.11436E+00
 0.38200001E+02 -0.17513E+00
 0.38250000E+02 -0.27714E+00
 0.38299999E+02 -0.41781E+00
 0.38350002E+02 -0.58169E+00
 0.38400002E+02 -0.62277E+00
 0.38450001E+02 -0.43369E+00
 0.38500000E+02 -0.16239E+00
 0.38549999E+02 -0.28683E-01
 0.38600002E+02 -0.14969E-01
 0.38650002E+02 -0.51878E-01
 0.38700001E+02  0.67109E-01
 0.38750000E+02  0.22122E+00
 0.38799999E+02  0.18984E+00
 0.38850002E+02  0.12903E+00
 0.38900002E+02  0.13794E+00
 0.38950001E+02  0.12091E+00
 0.39000000E+02  0.10787E-01
 0.39049999E+02 -0.19859E+00
 0.39100002E+02 -0.29466E+00
 0.39150002E+02 -0.29191E+00
 0.39200001E+02 -0.34346E+00
 0.39250000E+02 -0.29856E+00
 0.39299999E+02 -0.10850E+00
 0.39350002E+02  0.77692E-01
 0.39400002E+02  0.19256E+00
 0.39450001E+02  0.24939E+00
 0.39500000E+02  0.24811E+00
 0.39549999E+02  0.25894E+00
 0.39600002E+02  0.98326E-01
 0.39650002E+02 -0.60712E-01
 0.39700001E+02 -0.54052E-01
 0.39750000E+02 -0.66860E-01
 0.39799999E+02 -0.16172E+00
 0.39850002E+02 -0.18659E+00
 0.39900002E+02 -0.13820E+00
 0.39950001E+02 -0.10450E+00
 0.40000000E+02 -0.27920E-01
 0.40049999E+02  0.11766E+00
 0.40100002E+02  0.13514E+00
 0.40150002E+02 -0.60527E-01
 0.40200001E+02 -0.22738E+00
 0.40250000E+02 -0.18536E+00
 0.40299999E+02  0.89889E-01
 0.40350002E+02  0.29312E+00
 0.40400002E+02  0.32840E+00
 0.40450001E+02  0.28996E+00
 0.40500000E+02  0.31856E+00
 0.40549999E+02  0.35238E+00
 0.40600002E+02  0.32735E+00
 0.40650002E+02  0.28860E+00
 0.40700001E+02  0.15226E+00
 0.40750000E+02  0.41239E-01
 0.40799999E+02 -0.94205E-01
 0.40850002E+02 -0.34325E+00
 0.40900002E+02 -0.44019E+00
 0.40950001E+02 -0.44080E+00
 0.41000000E+02 -0.40906E+00
 0.41049999E+02 -0.28955E+00
 0.41100002E+02 -0.12884E+00
 0.41150002E+02 -0.15433E-01
 0.41200001E+02  0.80173E-01
 0.41250000E+02  0.24126E+00
 0.41299999E+02  0.35008E+00
 0.41350002E+02  0.36493E+00
 0.41400002E+02  0.31467E+00
 0.41450001E+02  0.22081E+00
 0.41500000E+02  0.11336E+00
 0.41549999E+02  0.61570E-01
 0.41600002E+02  0.17163E-01
 0.41650002E+02 -0.11587E+00
 0.41700001E+02 -0.34750E+00
 0.41750000E+02 -0.46777E+00
 0.41799999E+02 -0.44012E+00
 0.41850002E+02 -0.41236E+00
 0.41900002E+02 -0.43498E+00
 0.41950001E+02 -0.39301E+00
 0.42000000E+02 -0.28328E+00
 0.42049999E+02 -0.18968E+00
 0.42100002E+02 -0.90142E-01
 0.42150002E+02  0.39577E-01
 0.42200001E+02  0.18608E+00
 0.42250000E+02  0.34973E+00
 0.42299999E+02  0.49738E+00
 0.42350002E+02  0.48886E+00
 0.42400002E+02  0.42258E+00
 0.42450001E+02  0.35576E+00
 0.42500000E+02  0.23579E+00
 0.42549999E+02  0.78893E-01
 0.42600002E+02 -0.62280E-01
 0.42650002E+02 -0.11477E+00
 0.42700001E+02 -0.12796E+00
 0.42750000E+02 -0.17334E+00
 0.42799999E+02 -0.26375E+00
 0.42850002E+02 -0.32630E+00
 0.42900002E+02 -0.26773E+00
 0.42950001E+02 -0.17624E+00
 0.43000000E+02 -0.49376E-01
 0.43049999E+02  0.82641E-01
 0.43100002E+02  0.12577E+00
 0.43150002E+02  0.16267E+00
 0.43200001E+02  0.16264E+00
 0.43250000E+02  0.13568E+00
 0.43299999E+02  0.23033E+00
 0.43350002E+02  0.37175E+00
 0.43400002E+02  0.41231E+00
 0.43450001E+02  0.34841E+00
 0.43500000E+02  0.28198E+00
 0.43549999E+02  0.26273E+00
 0.43600002E+02  0.23318E+00
 0.43650002E+02  0.15179E+00
 0.43700001E+02  0.25293E-01
 0.43750000E+02 -0.11708E+00
 0.43799999E+02 -0.20824E+00
 0.43850002E+02 -0.21402E+00
 0.43900002E+02 -0.18856E+00
 0.43950001E+02 -0.12028E+00
 0.44000000E+02 -0.76385E-03
 0.44049999E+02  0.97573E-01
 0.44100002E+02  0.13687E+00
 0.44150002E+02  0.13064E+00
 0.44200001E+02  0.11596E+00
 0.44250000E+02  0.86278E-01
 0.44299999E+02  0.57947E-01
 0.44350002E+02  0.58739E-01
 0.44400002E+02  0.11136E-02
 0.44450001E+02 -0.34914E-01
 0.44500000E+02  0.17539E-01
 0.44549999E+02  0.92129E-01
 0.44600002E+02  0.10049E+00
 0.44650002E+02  0.65604E-01
 0.44700001E+02  0.67746E-01
 0.44750000E+02  0.29042E-01
 0.44799999E+02 -0.86545E-01
 0.44850002E+02 -0.21548E+00
 0.44900002E+02 -0.26125E+00
 0.44950001E+02 -0.21406E+00
 0.45000000E+02 -0.11685E+00
 0.45049999E+02  0.32262E-02
 0.45100002E+02  0.75670E-01
 0.45150002E+02  0.11191E+00
 0.45200001E+02  0.15282E+00
 0.45250000E+02  0.14857E+00
 0.45299999E+02  0.13290E+00
 0.45350002E+02  0.12339E+00
 0.45400002E+02  0.82808E-01
 0.45450001E+02 -0.17156E-01
 0.45500000E+02 -0.93058E-01
 0.45549999E+02 -0.10194E+00
 0.45600002E+02 -0.13319E+00
 0.45650002E+02 -0.17996E+00
 0.45700001E+02 -0.19084E+00
 0.45750000E+02 -0.10991E+00
 0.45799999E+02  0.80629E-02
 0.45850002E+02  0.15331E-01
 0.45900002E+02 -0.61144E-01
 0.45950001E+02 -0.64763E-01
 0.46000000E+02 -0.44098E-01
 0.46049999E+02 -0.26693E-01
 0.46100002E+02 -0.11166E-01
 0.46150002E+02  0.29655E-01
 0.46200001E+02  0.10222E+00
 0.46250000E+02  0.81998E-01
 0.46299999E+02  0.62754E-01
 0.46350002E+02  0.10241E+00
 0.46400002E+02  0.14910E+00
 0.46450001E+02  0.13625E+00
 0.46500000E+02  0.42411E-01
 0.46549999E+02 -0.62268E-01
 0.46600002E+02 -0.14934E+00
 0.46650002E+02 -0.17350E+00
 0.46700001E+02 -0.20556E+00
 0.46750000E+02 -0.27272E+00
 0.46799999E+02 -0.26981E+00
 0.46850002E+02 -0.19095E+00
 0.46900002E+02 -0.46940E-01
 0.46950001E+02  0.12435E+00
 0.47000000E+02  0.29606E+00
 0.47049999E+02  0.42788E+00
 0.47100002E+02  0.41560E+00
 0.47150002E+02  0.29407E+00
 0.47200001E+02  0.16484E+00
 0.47250000E+02  0.97205E-01
 0.47299999E+02  0.36443E-01
 0.47350002E+02 -0.53583E-01
 0.47400002E+02 -0.12135E+00
 0.47450001E+02 -0.14355E+00
 0.47500000E+02 -0.12837E+00
 0.47549999E+02 -0.86436E-01
 0.47600002E+02 -0.24496E-01
 0.47650002E+02 -0.33514E-01
 0.47700001E+02 -0.98928E-01
 0.47750000E+02 -0.16247E+00
 0.47799999E+02 -0.18921E+00
 0.47850002E+02 -0.21939E+00
 0.47900002E+02 -0.30318E+00
 0.47950001E+02 -0.34831E+00
 0.48000000E+02 -0.34666E+00
 0.48049999E+02 -0.28351E+00
 0.48100002E+02 -0.14736E+00
 0.48150002E+02 -0.46652E-02
 0.48200001E+02  0.88893E-01
 0.48250000E+02  0.10821E+00
 0.48299999E+02  0.12625E+00
 0.48350002E+02  0.13104E+00
 0.48400002E+02  0.11622E+00
 0.48450001E+02  0.54587E-01
 0.48500000E+02 -0.63972E-01
 0.48549999E+02 -0.14232E+00
 0.48600002E+02 -0.12814E+00
 0.48650002E+02 -0.86397E-01
 0.48700001E+02 -0.78553E-01
 0.48750000E+02 -0.37453E-01
 0.48799999E+02  0.44330E-01
 0.48850002E+02  0.15466E+00
 0.48900002E+02  0.24289E+00
 0.48950001E+02  0.27565E+00
 0.49000000E+02  0.27914E+00
 0.49049999E+02  0.23802E+00
 0.49100002E+02  0.12538E+00
 0.49150002E+02  0.20061E-01
 0.49200001E+02 -0.38656E-01
 0.49250000E+02 -0.75315E-01
 0.49299999E+02 -0.10031E+00
 0.49350002E+02 -0.14798E+00
 0.49400002E+02 -0.19172E+00
 0.49450001E+02 -0.21370E+00
 0.49500000E+02 -0.19932E+00
 0.49549999E+02 -0.19308E+00
 0.49600002E+02 -0.18543E+00
 0.49650002E+02 -0.14026E+00
 0.49700001E+02 -0.89181E-01
 0.49750000E+02 -0.60534E-01
 0.49799999E+02 -0.30208E-01
 0.49850002E+02  0.42737E-01
 0.49900002E+02  0.13511E+00
 0.49950001E+02  0.21481E+00
 0.50000000E+02  0.22804E+00
 0.50049999E+02  0.19478E+00
 0.50100002E+02  0.11299E+00
 0.50150002E+02  0.45183E-01
 0.50200001E+02  0.14395E-01
 0.50250000E+02  0.16520E-02
 0.50299999E+02  0.23855E-01
 0.50350002E+02  0.54121E-01
 0.50400002E+02  0.54722E-01
 0.50450001E+02  0.29825E-01
 0.50500000E+02  0.50679E-01
 0.50549999E+02  0.38773E-01
 0.50600002E+02 -0.29502E-01
 0.50650002E+02 -0.12678E+00
 0.50700001E+02 -0.23187E+00
 0.50750000E+02 -0.30588E+00
 0.50799999E+02 -0.35238E+00
 0.50850002E+02 -0.36889E+00
 0.50900002E+02 -0.32150E+00
 0.50950001E+02 -0.21148E+00
 0.51000000E+02 -0.10335E+00
 0.51049999E+02 -0.35000E-01
 0.51100002E+02 -0.79744E-02
 0.51150002E+02  0.26040E-01
 0.51200001E+02  0.94995E-01
 0.51250000E+02  0.15801E+00
 0.51299999E+02  0.19769E+00
 0.51350002E+02  0.19823E+00
 0.51400002E+02  0.17495E+00
 0.51450001E+02  0.17098E+00
 0.51500000E+02  0.16827E+00
 0.51549999E+02  0.15268E+00
 0.51600002E+02  0.14219E+00
 0.51650002E+02  0.11390E+00
 0.51700001E+02  0.35613E-01
 0.51750000E+02 -0.35575E-01
 0.51799999E+02 -0.63172E-01
 0.51850002E+02 -0.11296E+00
 0.51900002E+02 -0.16334E+00
 0.51950001E+02 -0.16048E+00
 0.52000000E+02 -0.13989E+00
 0.52049999E+02 -0.13756E+00
 0.52100002E+02 -0.14239E+00
 0.52150002E+02 -0.13765E+00
 0.52200001E+02 -0.99218E-01
 0.52250000E+02 -0.30429E-02
 0.52299999E+02  0.81226E-01
 0.52350002E+02  0.12830E+00
 0.52400002E+02  0.17589E+00
 0.52450001E+02  0.23124E+00
 0.52500000E+02  0.24182E+00
 0.52549999E+02  0.18071E+00
 0.52600002E+02  0.85170E-01
 0.52650002E+02  0.34243E-01
 0.52700001E+02  0.15036E-01
 0.52750000E+02  0.98159E-02
 0.52799999E+02  0.48133E-01
 0.52850002E+02  0.38239E-01
 0.52900002E+02 -0.12576E-01
 0.52950001E+02 -0.26964E-01
 0.53000000E+02 -0.17879E-01
 0.53049999E+02  0.13555E-01
 0.53100002E+02  0.64664E-01
 0.53150002E+02  0.98051E-01
 0.53200001E+02  0.98136E-01
 0.53250000E+02  0.10295E+00
 0.53299999E+02  0.11671E+00
 0.53350002E+02  0.86298E-01
 0.53400002E+02  0.29581E-01
 0.53450001E+02 -0.24884E-01
 0.53500000E+02 -0.72873E-01
 0.53549999E+02 -0.10530E+00
 0.53600002E+02 -0.10632E+00
 0.53650002E+02 -0.79505E-01
 0.53700001E+02 -0.33073E-01
 0.53750000E+02  0.25239E-01
 0.53799999E+02  0.77260E-01
 0.53850002E+02  0.13240E+00
 0.53900002E+02  0.16287E+00
 0.53950001E+02  0.13510E+00
 0.54000000E+02  0.59434E-01
 0.54049999E+02 -0.79535E-02
 0.54100002E+02 -0.60200E-01
 0.54150002E+02 -0.10293E+00
 0.54200001E+02 -0.12883E+00
 0.54250000E+02 -0.16743E+00
 0.54299999E+02 -0.20547E+00
 0.54350002E+02 -0.19420E+00
 0.54400002E+02 -0.13207E+00
 0.54450001E+02 -0.10249E+00
 0.54500000E+02 -0.11882E+00
 0.54549999E+02 -0.13549E+00
 0.54600002E+02 -0.86410E-01
 0.54650002E+02  0.32535E-01
 0.54700001E+02  0.14677E+00
 0.54750000E+02  0.18943E+00
 0.54799999E+02  0.14588E+00
 0.54850002E+02  0.10767E+00
 0.54900002E+02  0.10887E+00
 0.54950001E+02  0.12289E+00
 0.55000000E+02  0.13071E+00
 0.55049999E+02  0.10791E+00
 0.55100002E+02  0.78283E-01
 0.55150002E+02  0.67378E-01
 0.55200001E+02  0.67840E-01
 0.55250000E+02  0.45956E-01
 0.55299999E+02 -0.32701E-01
 0.55350002E+02 -0.14572E+00
 0.55400002E+02 -0.22422E+00
 0.55450001E+02 -0.24391E+00
 0.55500000E+02 -0.21728E+00
 0.55549999E+02 -0.15336E+00
 0.55600002E+02 -0.80973E-01
 0.55650002E+02 -0.32298E-01
 0.55700001E+02  0.38680E-01
 0.55750000E+02  0.13114E+00
 0.55799999E+02  0.18149E+00
 0.55850002E+02  0.17249E+00
 0.55900002E+02  0.11314E+00
 0.55950001E+02  0.41998E-01
 0.56000000E+02 -0.34792E-01
 0.56049999E+02 -0.97179E-01
 0.56100002E+02 -0.13856E+00
 0.56150002E+02 -0.15537E+00
 0.56200001E+02 -0.15765E+00
 0.56250000E+02 -0.14925E+00
 0.56299999E+02 -0.14807E+00
 0.56350002E+02 -0.12678E+00
 0.56400002E+02 -0.59917E-01
 0.56450001E+02  0.13861E-02
 0.56500000E+02  0.39040E-01
 0.56549999E+02  0.60190E-01
 0.56600002E+02  0.89044E-01
 0.56650002E+02  0.12090E+00
 0.56700001E+02  0.14264E+00
 0.56750000E+02  0.11241E+00
 0.56799999E+02  0.45514E-01
 0.56850002E+02 -0.34111E-01
 0.56900002E+02 -0.10331E+00
 0.56950001E+02 -0.10188E+00
 0.57000000E+02 -0.63908E-01
 0.57049999E+02 -0.44212E-01
 0.57100002E+02 -0.43410E-01
 0.57150002E+02 -0.52718E-01
 0.57200001E+02 -0.48453E-01
 0.57250000E+02 -0.41424E-01
 0.57299999E+02 -0.41528E-01
 0.57350002E+02 -0.21789E-01
 0.57400002E+02  0.33920E-01
 0.57450001E+02  0.10956E+00
 0.57500000E+02  0.14586E+00
 0.57549999E+02  0.13528E+00
 0.57600002E+02  0.10382E+00
 0.57650002E+02  0.97254E-01
 0.57700001E+02  0.11798E+00
 0.57750000E+02  0.14021E+00
 0.57799999E+02  0.13298E+00
 0.57850002E+02  0.91869E-01
 0.57900002E+02  0.62782E-01
 0.57950001E+02  0.55352E-01
 0.58000000E+02  0.62983E-01
 0.58049999E+02  0.77896E-01
 0.58100002E+02  0.79623E-01
 0.58150002E+02  0.69290E-01
 0.58200001E+02  0.54799E-01
 0.58250000E+02  0.11330E-02
 0.58299999E+02 -0.74419E-01
 0.58350002E+02 -0.16271E+00
 0.58400002E+02 -0.23638E+00
 0.58450001E+02 -0.24461E+00
 0.58500000E+02 -0.19971E+00
 0.58549999E+02 -0.14197E+00
 0.58600002E+02 -0.96677E-01
 0.58650002E+02 -0.44266E-01
 0.58700001E+02  0.14250E-01
 0.58750000E+02  0.75009E-01
 0.58799999E+02  0.12997E+00
 0.58850002E+02  0.15972E+00
 0.58900002E+02  0.15451E+00
 0.58950001E+02  0.10271E+00
 0.59000000E+02  0.29920E-01
 0.59049999E+02 -0.20773E-01
 0.59100002E+02 -0.48565E-01
 0.59150002E+02 -0.64002E-01
 0.59200001E+02 -0.86222E-01
 0.59250000E+02 -0.10643E+00
 0.59299999E+02 -0.12770E+00
 0.59350002E+02 -0.12581E+00
 0.59400002E+02 -0.78354E-01
 0.59450001E+02 -0.30285E-01
 0.59500000E+02  0.82092E-03
 0.59549999E+02 -0.59714E-02
 0.59600002E+02 -0.32844E-01
 0.59650002E+02 -0.43708E-01
 0.59700001E+02 -0.43782E-01
 0.59750000E+02 -0.39605E-01
 0.59799999E+02 -0.27163E-01
 0.59850002E+02  0.14042E-02
 0.59900002E+02  0.57291E-01
 0.59950001E+02  0.12052E+00
 0.60000000E+02  0.15674E+00
 0.60049999E+02  0.15015E+00
 0.60100002E+02  0.11594E+00
 0.60150002E+02  0.74358E-01
 0.60200001E+02  0.36962E-01
 0.60250000E+02  0.31358E-02
 0.60299999E+02 -0.42460E-01
 0.60350002E+02 -0.96650E-01
 0.60400002E+02 -0.15184E+00
 0.60450001E+02 -0.17339E+00
 0.60500000E+02 -0.14861E+00
 0.60549999E+02 -0.73697E-01
 0.60600002E+02  0.33710E-01
 0.60650002E+02  0.11621E+00
 0.60700001E+02  0.16091E+00
 0.60750000E+02  0.17671E+00
 0.60799999E+02  0.17158E+00
 0.60850002E+02  0.14550E+00
 0.60900002E+02  0.97729E-01
 0.60950001E+02  0.18923E-01
 0.61000000E+02 -0.64258E-01
 0.61049999E+02 -0.11942E+00
 0.61100002E+02 -0.13053E+00
 0.61150002E+02 -0.85192E-01
 0.61200001E+02 -0.36554E-01
 0.61250000E+02 -0.13136E-01
 0.61299999E+02 -0.89489E-02
 0.61350002E+02 -0.13794E-01
 0.61400002E+02 -0.14246E-01
 0.61450001E+02 -0.15850E-02
 0.61500000E+02  0.25100E-01
 0.61549999E+02  0.38012E-01
 0.61600002E+02  0.52738E-01
 0.61650002E+02  0.88217E-01
 0.61700001E+02  0.12083E+00
 0.61750000E+02  0.10882E+00
 0.61799999E+02  0.59636E-01
 0.61850002E+02 -0.17503E-02
 0.61900002E+02 -0.72554E-01
 0.61950001E+02 -0.10770E+00
 0.62000000E+02 -0.11201E+00
 0.62049999E+02 -0.11063E+00
 0.62100002E+02 -0.12195E+00
 0.62150002E+02 -0.15368E+00
 0.62200001E+02 -0.16525E+00
 0.62250000E+02 -0.14870E+00
 0.62299999E+02 -0.11138E+00
 0.62350002E+02 -0.49969E-01
 0.62400002E+02  0.30040E-01
 0.62450001E+02  0.10724E+00
 0.62500000E+02  0.17400E+00
 0.62549999E+02  0.21793E+00
 0.62600002E+02  0.21074E+00
 0.62650002E+02  0.16017E+00
 0.62700001E+02  0.83518E-01
 0.62750000E+02 -0.10355E-02
 0.62799999E+02 -0.55440E-01
 0.62850002E+02 -0.62033E-01
 0.62900002E+02 -0.48634E-01
 0.62950001E+02 -0.51595E-01
 0.63000000E+02 -0.73174E-01
 0.63049999E+02 -0.10895E+00
 0.63100002E+02 -0.15805E+00
 0.63150002E+02 -0.19788E+00
 0.63200001E+02 -0.20085E+00
 0.63250000E+02 -0.15625E+00
 0.63299999E+02 -0.68151E-01
 0.63350002E+02  0.24048E-01
 0.63400002E+02  0.89373E-01
 0.63450001E+02  0.13630E+00
 0.63500000E+02  0.16808E+00
 0.63549999E+02  0.18280E+00
 0.63600002E+02  0.17687E+00
 0.63650002E+02  0.15126E+00
 0.63700001E+02  0.11253E+00
 0.63750000E+02  0.74564E-01
 0.63799999E+02  0.45226E-01
 0.63850002E+02  0.89703E-02
 0.63900002E+02 -0.29376E-01
 0.63950001E+02 -0.43574E-01
 0.64000000E+02 -0.36678E-01
 0.64050003E+02 -0.45209E-01
 0.64099998E+02 -0.84401E-01
 0.64150002E+02 -0.13047E+00
 0.64200005E+02 -0.15533E+00
 0.64250000E+02 -0.15126E+00
 0.64300003E+02 -0.13462E+00
 0.64349998E+02 -0.93522E-01
 0.64400002E+02 -0.26953E-01
 0.64450005E+02  0.33854E-01
 0.64500000E+02  0.74199E-01
 0.64550003E+02  0.97701E-01
 0.64599998E+02  0.11850E+00
 0.64650002E+02  0.12620E+00
 0.64700005E+02  0.10877E+00
 0.64750000E+02  0.69270E-01
 0.64800003E+02  0.30271E-01
 0.64849998E+02  0.12979E-01
 0.64900002E+02 -0.48919E-02
 0.64950005E+02 -0.37924E-01
 0.65000000E+02 -0.80958E-01
 0.65050003E+02 -0.10165E+00
 0.65099998E+02 -0.80280E-01
 0.65150002E+02 -0.30798E-01
 0.65200005E+02  0.22105E-01
 0.65250000E+02  0.52271E-01
 0.65300003E+02  0.55937E-01
 0.65349998E+02  0.39443E-01
 0.65400002E+02 -0.56804E-02
 0.65450005E+02 -0.56398E-01
 0.65500000E+02 -0.78336E-01
 0.65550003E+02 -0.69482E-01
 0.65599998E+02 -0.26623E-01
 0.65650002E+02  0.37497E-01
 0.65700005E+02  0.10333E+00
 0.65750000E+02  0.14683E+00
 0.65800003E+02  0.16245E+00
 0.65849998E+02  0.15575E+00
 0.65900002E+02  0.14303E+00
 0.65950005E+02  0.12627E+00
 0.66000000E+02  0.96217E-01
 0.66050003E+02  0.60524E-01
 0.66099998E+02  0.26976E-01
 0.66150002E+02 -0.40334E-02
 0.66200005E+02 -0.30714E-01
 0.66250000E+02 -0.50401E-01
 0.66300003E+02 -0.69357E-01
 0.66349998E+02 -0.74828E-01
 0.66400002E+02 -0.75964E-01
 0.66450005E+02 -0.77558E-01
 0.66500000E+02 -0.65219E-01
 0.66550003E+02 -0.38439E-01
 0.66599998E+02 -0.29690E-01
 0.66650002E+02 -0.53422E-01
 0.66700005E+02 -0.80465E-01
 0.66750000E+02 -0.89266E-01
 0.66800003E+02 -0.76002E-01
 0.66849998E+02 -0.63290E-01
 0.66900002E+02 -0.55026E-01
 0.66950005E+02 -0.42357E-01
 0.67000000E+02 -0.23128E-01
 0.67050003E+02 -0.73780E-02
 0.67099998E+02 -0.20266E-02
 0.67150002E+02  0.21735E-02
 0.67200005E+02  0.59673E-02
 0.67250000E+02  0.30176E-02
 0.67300003E+02 -0.82216E-02
 0.67349998E+02 -0.13602E-01
 0.67400002E+02 -0.10265E-01
 0.67450005E+02 -0.11739E-01
 0.67500000E+02 -0.56677E-02
 0.67550003E+02  0.27281E-01
 0.67599998E+02  0.64936E-01
 0.67650002E+02  0.87117E-01
 0.67700005E+02  0.90781E-01
 0.67750000E+02  0.66041E-01
 0.67800003E+02  0.22443E-01
 0.67849998E+02 -0.15441E-01
 0.67900002E+02 -0.36590E-01
 0.67950005E+02 -0.47362E-01
 0.68000000E+02 -0.58055E-01
 0.68050003E+02 -0.69560E-01
 0.68099998E+02 -0.76294E-01
 0.68150002E+02 -0.64115E-01
 0.68200005E+02 -0.30810E-01
 0.68250000E+02  0.94064E-02
 0.68300003E+02  0.41105E-01
 0.68349998E+02  0.49798E-01
 0.68400002E+02  0.44505E-01
 0.68450005E+02  0.55430E-01
 0.68500000E+02  0.83957E-01
 0.68550003E+02  0.10777E+00
 0.68599998E+02  0.12971E+00
 0.68650002E+02  0.14792E+00
 0.68700005E+02  0.15662E+00
 0.68750000E+02  0.14889E+00
 0.68800003E+02  0.11378E+00
 0.68849998E+02  0.58925E-01
 0.68900002E+02  0.23135E-02
 0.68950005E+02 -0.51189E-01
 0.69000000E+02 -0.10930E+00
 0.69050003E+02 -0.15596E+00
 0.69099998E+02 -0.18159E+00
 0.69150002E+02 -0.19078E+00
 0.69200005E+02 -0.18719E+00
 0.69250000E+02 -0.16749E+00
 0.69300003E+02 -0.10969E+00
 0.69349998E+02 -0.21968E-01
 0.69400002E+02  0.65132E-01
 0.69450005E+02  0.13318E+00
 0.69500000E+02  0.17469E+00
 0.69550003E+02  0.19023E+00
 0.69599998E+02  0.17432E+00
 0.69650002E+02  0.12688E+00
 0.69700005E+02  0.56227E-01
 0.69750000E+02 -0.24000E-01
 0.69800003E+02 -0.96237E-01
 0.69849998E+02 -0.15061E+00
 0.69900002E+02 -0.18309E+00
 0.69950005E+02 -0.18899E+00
 0.70000000E+02 -0.16787E+00
 0.70050003E+02 -0.11737E+00
 0.70099998E+02 -0.61330E-01
 0.70150002E+02 -0.29275E-01
 0.70200005E+02 -0.19561E-01
 0.70250000E+02 -0.18644E-01
 0.70300003E+02 -0.88001E-02
 0.70349998E+02  0.84633E-02
 0.70400002E+02  0.19620E-01
 0.70450005E+02  0.18544E-01
 0.70500000E+02  0.13033E-01
 0.70550003E+02  0.64919E-02
 0.70599998E+02  0.23521E-02
 0.70650002E+02  0.59588E-02
 0.70700005E+02  0.18614E-01
 0.70750000E+02  0.34071E-01
 0.70800003E+02  0.37469E-01
 0.70849998E+02  0.25127E-01
 0.70900002E+02  0.14988E-01
 0.70950005E+02  0.11082E-01
 0.71000000E+02  0.10178E-01
 0.71050003E+02  0.13716E-01
 0.71099998E+02  0.18992E-01
 0.71150002E+02  0.26560E-01
 0.71200005E+02  0.28658E-01
 0.71250000E+02  0.23691E-01
 0.71300003E+02  0.24973E-01
 0.71349998E+02  0.45034E-01
 0.71400002E+02  0.60945E-01
 0.71450005E+02  0.60781E-01
 0.71500000E+02  0.61252E-01
 0.71550003E+02  0.55066E-01
 0.71599998E+02  0.45547E-01
 0.71650002E+02  0.54807E-01
 0.71700005E+02  0.72236E-01
 0.71750000E+02  0.82803E-01
 0.71800003E+02  0.75696E-01
 0.71849998E+02  0.43323E-01
 0.71900002E+02 -0.47463E-02
 0.71950005E+02 -0.53394E-01
 0.72000000E+02 -0.86101E-01
 0.72050003E+02 -0.11044E+00
 0.72099998E+02 -0.12618E+00
 0.72150002E+02 -0.12273E+00
 0.72200005E+02 -0.10540E+00
 0.72250000E+02 -0.82347E-01
 0.72300003E+02 -0.54733E-01
 0.72349998E+02 -0.22448E-01
 0.72400002E+02  0.56201E-03
 0.72450005E+02  0.14250E-01
 0.72500000E+02  0.19969E-01
 0.72550003E+02  0.22829E-01
 0.72599998E+02  0.26866E-01
 0.72650002E+02  0.21457E-01
 0.72700005E+02  0.85245E-02
 0.72750000E+02  0.30640E-02
 0.72800003E+02  0.23498E-02
 0.72849998E+02 -0.61505E-02
 0.72900002E+02 -0.19922E-01
 0.72950005E+02 -0.26628E-01
 0.73000000E+02 -0.62883E-02
 0.73050003E+02  0.32415E-01
 0.73099998E+02  0.54752E-01
 0.73150002E+02  0.38755E-01
 0.73200005E+02  0.40904E-02
 0.73250000E+02 -0.25872E-01
 0.73300003E+02 -0.44515E-01
 0.73349998E+02 -0.58850E-01
 0.73400002E+02 -0.68215E-01
 0.73450005E+02 -0.64539E-01
 0.73500000E+02 -0.57000E-01
 0.73550003E+02 -0.50499E-01
 0.73599998E+02 -0.44070E-01
 0.73650002E+02 -0.29448E-01
 0.73700005E+02 -0.68296E-02
 0.73750000E+02  0.16814E-01
 0.73800003E+02  0.20332E-01
 0.73849998E+02  0.64502E-02
 0.73900002E+02  0.11159E-02
 0.73950005E+02  0.30059E-02
 0.74000000E+02 -0.31690E-02
 0.74050003E+02 -0.13625E-01
 0.74099998E+02 -0.16384E-01
 0.74150002E+02 -0.14773E-01
 0.74200005E+02 -0.91772E-02
 0.74250000E+02  0.22104E-02
 0.74300003E+02  0.11737E-01
 0.74349998E+02  0.17130E-01
 0.74400002E+02  0.24148E-01
 0.74450005E+02  0.31670E-01
 0.74500000E+02  0.36965E-01
 0.74550003E+02  0.32647E-01
 0.74599998E+02  0.22038E-01
 0.74650002E+02  0.12629E-01
 0.74700005E+02  0.81538E-02
 0.74750000E+02  0.54082E-02
 0.74800003E+02 -0.10868E-01
 0.74849998E+02 -0.38144E-01
 0.74900002E+02 -0.57905E-01
 0.74950005E+02 -0.68183E-01
 0.75000000E+02 -0.66314E-01
 0.75050003E+02 -0.43106E-01
 0.75099998E+02 -0.10902E-01
 0.75150002E+02  0.80471E-02
 0.75200005E+02  0.83037E-02
 0.75250000E+02 -0.33206E-03
 0.75300003E+02 -0.18175E-02
 0.75349998E+02  0.12121E-01
 0.75400002E+02  0.24230E-01
 0.75450005E+02  0.24051E-01
 0.75500000E+02  0.13811E-01
 0.75550003E+02  0.62328E-02
 0.75599998E+02  0.13771E-01
 0.75650002E+02  0.24458E-01
 0.75700005E+02  0.21011E-01
 0.75750000E+02  0.89178E-02
 0.75800003E+02  0.38679E-02
 0.75849998E+02  0.37364E-02
 0.75900002E+02 -0.10355E-02
 0.75950005E+02 -0.21117E-02
 0.76000000E+02  0.12135E-01
 0.76050003E+02  0.35946E-01
 0.76099998E+02  0.56061E-01
 0.76150002E+02  0.62557E-01
 0.76200005E+02  0.64044E-01
 0.76250000E+02  0.62268E-01
 0.76300003E+02  0.63797E-01
 0.76349998E+02  0.74937E-01
 0.76400002E+02  0.82739E-01
 0.76450005E+02  0.87743E-01
 0.76500000E+02  0.97874E-01
 0.76550003E+02  0.10567E+00
 0.76599998E+02  0.97619E-01
 0.76650002E+02  0.71780E-01
 0.76700005E+02  0.30515E-01
 0.76750000E+02 -0.12653E-01
 0.76800003E+02 -0.40607E-01
 0.76849998E+02 -0.48148E-01
 0.76900002E+02 -0.45386E-01
 0.76950005E+02 -0.48139E-01
 0.77000000E+02 -0.55563E-01
 0.77050003E+02 -0.62724E-01
 0.77099998E+02 -0.68739E-01
 0.77150002E+02 -0.67559E-01
 0.77200005E+02 -0.55801E-01
 0.77250000E+02 -0.40089E-01
 0.77300003E+02 -0.29262E-01
 0.77349998E+02 -0.30598E-01
 0.77400002E+02 -0.48817E-01
 0.77450005E+02 -0.67816E-01
 0.77500000E+02 -0.73469E-01
 0.77550003E+02 -0.67241E-01
 0.77599998E+02 -0.55557E-01
 0.77650002E+02 -0.39177E-01
 0.77700005E+02 -0.14423E-01
 0.77750000E+02  0.14535E-01
 0.77800003E+02  0.38720E-01
 0.77849998E+02  0.46842E-01
 0.77900002E+02  0.42689E-01
 0.77950005E+02  0.33407E-01
 0.78000000E+02  0.24661E-01
 0.78050003E+02  0.16581E-01
 0.78099998E+02  0.63413E-02
 0.78150002E+02 -0.45751E-02
 0.78200005E+02 -0.20706E-01
 0.78250000E+02 -0.47480E-01
 0.78300003E+02 -0.71074E-01
 0.78349998E+02 -0.75195E-01
 0.78400002E+02 -0.65012E-01
 0.78450005E+02 -0.59877E-01
 0.78500000E+02 -0.64427E-01
 0.78550003E+02 -0.64671E-01
 0.78599998E+02 -0.48381E-01
 0.78650002E+02 -0.17668E-01
 0.78700005E+02  0.96751E-02
 0.78750000E+02  0.26834E-01
 0.78800003E+02  0.34016E-01
 0.78849998E+02  0.40377E-01
 0.78900002E+02  0.48193E-01
 0.78950005E+02  0.66638E-01
 0.79000000E+02  0.96603E-01
 0.79050003E+02  0.12399E+00
 0.79099998E+02  0.14896E+00
 0.79150002E+02  0.16573E+00
 0.79200005E+02  0.15949E+00
 0.79250000E+02  0.12580E+00
 0.79300003E+02  0.75049E-01
 0.79349998E+02  0.19990E-01
 0.79400002E+02 -0.28883E-01
 0.79450005E+02 -0.66573E-01
 0.79500000E+02 -0.92570E-01
 0.79550003E+02 -0.11243E+00
 0.79599998E+02 -0.12460E+00
 0.79650002E+02 -0.13421E+00
 0.79700005E+02 -0.14083E+00
 0.79750000E+02 -0.13359E+00
 0.79800003E+02 -0.11610E+00
 0.79849998E+02 -0.85861E-01
 0.79900002E+02 -0.44192E-01
 0.79950005E+02 -0.13187E-02
 0.80000000E+02  0.43578E-01
 0.80050003E+02  0.77746E-01
 0.80099998E+02  0.92588E-01
 0.80150002E+02  0.98590E-01
 0.80200005E+02  0.95263E-01
 0.80250000E+02  0.84369E-01
 0.80300003E+02  0.77987E-01
 0.80349998E+02  0.70901E-01
 0.80400002E+02  0.58125E-01
 0.80450005E+02  0.37644E-01
 0.80500000E+02  0.53868E-03
 0.80550003E+02 -0.37558E-01
 0.80599998E+02 -0.55495E-01
 0.80650002E+02 -0.52179E-01
 0.80700005E+02 -0.43764E-01
 0.80750000E+02 -0.44789E-01
 0.80800003E+02 -0.49352E-01
 0.80849998E+02 -0.54403E-01
 0.80900002E+02 -0.63387E-01
 0.80950005E+02 -0.76041E-01
 0.81000000E+02 -0.89677E-01
 0.81050003E+02 -0.84876E-01
 0.81099998E+02 -0.53712E-01
 0.81150002E+02 -0.82004E-02
 0.81200005E+02  0.39559E-01
 0.81250000E+02  0.85631E-01
 0.81300003E+02  0.12185E+00
 0.81349998E+02  0.13194E+00
 0.81400002E+02  0.12286E+00
 0.81450005E+02  0.10422E+00
 0.81500000E+02  0.74798E-01
 0.81550003E+02  0.36805E-01
 0.81599998E+02 -0.47805E-02
 0.81650002E+02 -0.40173E-01
 0.81700005E+02 -0.60161E-01
 0.81750000E+02 -0.68886E-01
 0.81800003E+02 -0.74817E-01
 0.81849998E+02 -0.76122E-01
 0.81900002E+02 -0.69596E-01
 0.81950005E+02 -0.54649E-01
 0.82000000E+02 -0.30988E-01
 0.82050003E+02 -0.31273E-03
 0.82099998E+02  0.22577E-01
 0.82150002E+02  0.22447E-01
 0.82200005E+02  0.54139E-02
 0.82250000E+02 -0.15840E-01
 0.82300003E+02 -0.35816E-01
 0.82349998E+02 -0.45854E-01
 0.82400002E+02 -0.34766E-01
 0.82450005E+02 -0.14234E-01
 0.82500000E+02  0.26264E-02
 0.82550003E+02  0.19850E-01
 0.82599998E+02  0.36105E-01
 0.82650002E+02  0.45885E-01
 0.82700005E+02  0.46924E-01
 0.82750000E+02  0.33520E-01
 0.82800003E+02  0.12523E-01
 0.82849998E+02 -0.60734E-03
 0.82900002E+02 -0.97054E-02
 0.82950005E+02 -0.21182E-01
 0.83000000E+02 -0.31904E-01
 0.83050003E+02 -0.31614E-01
 0.83099998E+02 -0.22027E-01
 0.83150002E+02 -0.11305E-01
 0.83200005E+02  0.69503E-03
 0.83250000E+02  0.98010E-02
 0.83300003E+02  0.17913E-01
 0.83349998E+02  0.29400E-01
 0.83400002E+02  0.39129E-01
 0.83450005E+02  0.49028E-01
 0.83500000E+02  0.56735E-01
 0.83550003E+02  0.59000E-01
 0.83599998E+02  0.58674E-01
 0.83650002E+02  0.50034E-01
 0.83700005E+02  0.30170E-01
 0.83750000E+02  0.84415E-02
 0.83800003E+02 -0.10159E-01
 0.83849998E+02 -0.27820E-01
 0.83900002E+02 -0.38964E-01
 0.83950005E+02 -0.41003E-01
 0.84000000E+02 -0.35903E-01
 0.84050003E+02 -0.35256E-01
 0.84099998E+02 -0.43591E-01
 0.84150002E+02 -0.50903E-01
 0.84200005E+02 -0.52802E-01
 0.84250000E+02 -0.49520E-01
 0.84300003E+02 -0.37807E-01
 0.84349998E+02 -0.15616E-01
 0.84400002E+02  0.10922E-01
 0.84450005E+02  0.38630E-01
 0.84500000E+02  0.63070E-01
 0.84550003E+02  0.77944E-01
 0.84599998E+02  0.76593E-01
 0.84650002E+02  0.56320E-01
 0.84700005E+02  0.29699E-01
 0.84750000E+02  0.62264E-02
 0.84800003E+02 -0.97640E-02
 0.84849998E+02 -0.17934E-01
 0.84900002E+02 -0.24752E-01
 0.84950005E+02 -0.27519E-01
 0.85000000E+02 -0.19663E-01
 0.85050003E+02  0.17675E-02
 0.85099998E+02  0.28899E-01
 0.85150002E+02  0.43403E-01
 0.85200005E+02  0.39207E-01
 0.85250000E+02  0.23238E-01
 0.85300003E+02  0.21930E-02
 0.85349998E+02 -0.21856E-01
 0.85400002E+02 -0.41925E-01
 0.85450005E+02 -0.46668E-01
 0.85500000E+02 -0.37496E-01
 0.85550003E+02 -0.20071E-01
 0.85599998E+02 -0.38203E-02
 0.85650002E+02 -0.13360E-02
 0.85700005E+02 -0.27839E-02
 0.85750000E+02  0.43543E-02
 0.85800003E+02  0.13766E-01
 0.85849998E+02  0.17965E-01
 0.85900002E+02  0.14391E-01
 0.85950005E+02  0.94621E-02
 0.86000000E+02  0.54390E-02
 0.86050003E+02 -0.58889E-04
 0.86099998E+02 -0.65082E-02
 0.86150002E+02 -0.17317E-01
 0.86200005E+02 -0.26392E-01
 0.86250000E+02 -0.28119E-01
 0.86300003E+02 -0.19807E-01
 0.86349998E+02 -0.18255E-02
 0.86400002E+02  0.11226E-01
 0.86450005E+02  0.10041E-01
 0.86500000E+02 -0.43074E-02
 0.86550003E+02 -0.24767E-01
 0.86599998E+02 -0.45398E-01
 0.86650002E+02 -0.62309E-01
 0.86700005E+02 -0.70796E-01
 0.86750000E+02 -0.71134E-01
 0.86800003E+02 -0.67738E-01
 0.86849998E+02 -0.61656E-01
 0.86900002E+02 -0.46972E-01
 0.86950005E+02 -0.26828E-01
 0.87000000E+02 -0.66925E-02
 0.87050003E+02  0.10081E-01
 0.87099998E+02  0.23766E-01
 0.87150002E+02  0.40275E-01
 0.87200005E+02  0.55198E-01
 0.87250000E+02  0.63066E-01
 0.87300003E+02  0.63346E-01
 0.87349998E+02  0.59008E-01
 0.87400002E+02  0.57963E-01
 0.87450005E+02  0.62830E-01
 0.87500000E+02  0.67992E-01
 0.87550003E+02  0.63936E-01
 0.87599998E+02  0.50618E-01
 0.87650002E+02  0.32048E-01
 0.87700005E+02  0.13278E-01
 0.87750000E+02  0.12886E-02
 0.87800003E+02 -0.72169E-02
 0.87849998E+02 -0.12427E-01
 0.87900002E+02 -0.10115E-01
 0.87950005E+02  0.15447E-02
 0.88000000E+02  0.16646E-01
 0.88050003E+02  0.28429E-01
 0.88099998E+02  0.29302E-01
 0.88150002E+02  0.17545E-01
 0.88200005E+02  0.43636E-04
 0.88250000E+02 -0.12886E-01
 0.88300003E+02 -0.16345E-01
 0.88349998E+02 -0.20556E-01
 0.88400002E+02 -0.27781E-01
 0.88450005E+02 -0.34205E-01
 0.88500000E+02 -0.36384E-01
 0.88550003E+02 -0.33160E-01
 0.88599998E+02 -0.26864E-01
 0.88650002E+02 -0.21210E-01
 0.88700005E+02 -0.15103E-01
 0.88750000E+02 -0.28617E-02
 0.88800003E+02  0.11981E-01
 0.88849998E+02  0.19564E-01
 0.88900002E+02  0.17571E-01
 0.88950005E+02  0.13577E-01
 0.89000000E+02  0.91110E-02
 0.89050003E+02 -0.70314E-03
 0.89099998E+02 -0.15050E-01
 0.89150002E+02 -0.26342E-01
 0.89200005E+02 -0.32938E-01
 0.89250000E+02 -0.40798E-01
 0.89300003E+02 -0.48658E-01
 0.89349998E+02 -0.51513E-01
 0.89400002E+02 -0.45254E-01
 0.89450005E+02 -0.33068E-01
 0.89500000E+02 -0.22144E-01
 0.89550003E+02 -0.12865E-01
 0.89599998E+02 -0.34269E-02
 0.89650002E+02  0.85669E-02
 0.89700005E+02  0.20518E-01
 0.89750000E+02  0.29014E-01
 0.89800003E+02  0.37686E-01
 0.89849998E+02  0.43552E-01
 0.89900002E+02  0.43320E-01
 0.89950005E+02  0.41435E-01
 0.90000000E+02  0.34827E-01
 0.90050003E+02  0.25313E-01
 0.90099998E+02  0.11781E-01
 0.90150002E+02 -0.64312E-02
 0.90200005E+02 -0.19386E-01
 0.90250000E+02 -0.23698E-01
 0.90300003E+02 -0.22128E-01
 0.90349998E+02 -0.23340E-01
 0.90400002E+02 -0.33323E-01
 0.90450005E+02 -0.48024E-01
 0.90500000E+02 -0.60813E-01
 0.90550003E+02 -0.71909E-01
 0.90599998E+02 -0.82423E-01
 0.90650002E+02 -0.88863E-01
 0.90700005E+02 -0.79733E-01
 0.90750000E+02 -0.48989E-01
 0.90800003E+02 -0.31843E-02
 0.90849998E+02  0.43950E-01
 0.90900002E+02  0.83308E-01
 0.90950005E+02  0.11252E+00
 0.91000000E+02  0.12588E+00
 0.91050003E+02  0.12499E+00
 0.91099998E+02  0.11467E+00
 0.91150002E+02  0.95753E-01
 0.91200005E+02  0.68060E-01
 0.91250000E+02  0.38644E-01
 0.91300003E+02  0.11852E-01
 0.91349998E+02 -0.14116E-01
 0.91400002E+02 -0.36380E-01
 0.91450005E+02 -0.51955E-01
 0.91500000E+02 -0.59521E-01
 0.91550003E+02 -0.54764E-01
 0.91599998E+02 -0.34139E-01
 0.91650002E+02 -0.68166E-02
 0.91700005E+02  0.17992E-01
 0.91750000E+02  0.37996E-01
 0.91800003E+02  0.52138E-01
 0.91849998E+02  0.60943E-01
 0.91900002E+02  0.61291E-01
 0.91950005E+02  0.56506E-01
 0.92000000E+02  0.52227E-01
 0.92050003E+02  0.49712E-01
 0.92099998E+02  0.46434E-01
 0.92150002E+02  0.36962E-01
 0.92200005E+02  0.20766E-01
 0.92250000E+02 -0.39983E-03
 0.92300003E+02 -0.21651E-01
 0.92349998E+02 -0.41846E-01
 0.92400002E+02 -0.61334E-01
 0.92450005E+02 -0.75750E-01
 0.92500000E+02 -0.85538E-01
 0.92550003E+02 -0.93527E-01
 0.92599998E+02 -0.95568E-01
 0.92650002E+02 -0.86986E-01
 0.92700005E+02 -0.65241E-01
 0.92750000E+02 -0.35397E-01
 0.92800003E+02 -0.82971E-02
 0.92849998E+02  0.11839E-01
 0.92900002E+02  0.27197E-01
 0.92950005E+02  0.39447E-01
 0.93000000E+02  0.42995E-01
 0.93050003E+02  0.37742E-01
 0.93099998E+02  0.30827E-01
 0.93150002E+02  0.24629E-01
 0.93200005E+02  0.21266E-01
 0.93250000E+02  0.22283E-01
 0.93300003E+02  0.21888E-01
 0.93349998E+02  0.14060E-01
 0.93400002E+02 -0.12021E-02
 0.93450005E+02 -0.16698E-01
 0.93500000E+02 -0.30184E-01
 0.93550003E+02 -0.46515E-01
 0.93599998E+02 -0.62019E-01
 0.93650002E+02 -0.68178E-01
 0.93700005E+02 -0.61708E-01
 0.93750000E+02 -0.44360E-01
 0.93800003E+02 -0.22472E-01
 0.93849998E+02 -0.36913E-02
 0.93900002E+02  0.11401E-01
 0.93950005E+02  0.24287E-01
 0.94000000E+02  0.33433E-01
 0.94050003E+02  0.39579E-01
 0.94099998E+02  0.42006E-01
 0.94150002E+02  0.40200E-01
 0.94200005E+02  0.37358E-01
 0.94250000E+02  0.33843E-01
 0.94300003E+02  0.27759E-01
 0.94349998E+02  0.22113E-01
 0.94400002E+02  0.19833E-01
 0.94450005E+02  0.18580E-01
 0.94500000E+02  0.17317E-01
 0.94550003E+02  0.15405E-01
 0.94599998E+02  0.13356E-01
 0.94650002E+02  0.94612E-02
 0.94700005E+02  0.18210E-02
 0.94750000E+02 -0.73128E-02
 0.94800003E+02 -0.17680E-01
 0.94849998E+02 -0.30823E-01
 0.94900002E+02 -0.43746E-01
 0.94950005E+02 -0.50060E-01
 0.95000000E+02 -0.49135E-01
 0.95050003E+02 -0.40558E-01
 0.95099998E+02 -0.24753E-01
 0.95150002E+02 -0.80590E-02
 0.95200005E+02  0.72853E-02
 0.95250000E+02  0.27081E-01
 0.95300003E+02  0.53722E-01
 0.95349998E+02  0.76291E-01
 0.95400002E+02  0.85191E-01
 0.95450005E+02  0.82374E-01
 0.95500000E+02  0.74098E-01
 0.95550003E+02  0.65571E-01
 0.95599998E+02  0.58344E-01
 0.95650002E+02  0.46231E-01
 0.95700005E+02  0.26938E-01
 0.95750000E+02  0.15070E-02
 0.95800003E+02 -0.28986E-01
 0.95849998E+02 -0.56587E-01
 0.95900002E+02 -0.72189E-01
 0.95950005E+02 -0.73192E-01
 0.96000000E+02 -0.66408E-01
 0.96050003E+02 -0.56745E-01
 0.96099998E+02 -0.45781E-01
 0.96150002E+02 -0.30950E-01
 0.96200005E+02 -0.13709E-01
 0.96250000E+02 -0.18012E-02
 0.96300003E+02  0.39771E-02
 0.96349998E+02  0.93156E-02
 0.96400002E+02  0.14954E-01
 0.96450005E+02  0.17411E-01
 0.96500000E+02  0.17570E-01
 0.96550003E+02  0.15516E-01
 0.96599998E+02  0.13228E-01
 0.96650002E+02  0.14573E-01
 0.96700005E+02  0.14859E-01
 0.96750000E+02  0.99086E-02
 0.96800003E+02  0.44448E-03
 0.96849998E+02 -0.11381E-01
 0.96900002E+02 -0.21175E-01
 0.96950005E+02 -0.30396E-01
 0.97000000E+02 -0.39454E-01
 0.97050003E+02 -0.46847E-01
 0.97099998E+02 -0.50289E-01
 0.97150002E+02 -0.44334E-01
 0.97200005E+02 -0.31896E-01
 0.97250000E+02 -0.20555E-01
 0.97300003E+02 -0.10043E-01
 0.97349998E+02  0.27984E-02
 0.97400002E+02  0.18191E-01
 0.97450005E+02  0.32406E-01
 0.97500000E+02  0.39317E-01
 0.97550003E+02  0.38816E-01
 0.97599998E+02  0.31993E-01
 0.97650002E+02  0.22051E-01
 0.97700005E+02  0.12340E-01
 0.97750000E+02  0.27354E-02
 0.97800003E+02 -0.48400E-02
 0.97849998E+02 -0.55665E-02
 0.97900002E+02 -0.72841E-03
 0.97950005E+02  0.91869E-03
 0.98000000E+02 -0.41468E-02
 0.98050003E+02 -0.13507E-01
 0.98099998E+02 -0.21344E-01
 0.98150002E+02 -0.24402E-01
 0.98200005E+02 -0.21133E-01
 0.98250000E+02 -0.80460E-02
 0.98300003E+02  0.10723E-01
 0.98349998E+02  0.26386E-01
 0.98400002E+02  0.33504E-01
 0.98450005E+02  0.34222E-01
 0.98500000E+02  0.37187E-01
 0.98550003E+02  0.46400E-01
 0.98599998E+02  0.59750E-01
 0.98650002E+02  0.72157E-01
 0.98700005E+02  0.79426E-01
 0.98750000E+02  0.80044E-01
 0.98800003E+02  0.73748E-01
 0.98849998E+02  0.61212E-01
 0.98900002E+02  0.42826E-01
 0.98950005E+02  0.19034E-01
 0.99000000E+02 -0.47242E-02
 0.99050003E+02 -0.21803E-01
 0.99099998E+02 -0.28262E-01
 0.99150002E+02 -0.28077E-01
 0.99200005E+02 -0.26412E-01
 0.99250000E+02 -0.21372E-01
 0.99300003E+02 -0.12719E-01
 0.99349998E+02 -0.43500E-02
 0.99400002E+02 -0.60786E-03
 0.99450005E+02 -0.33226E-02
 0.99500000E+02 -0.12788E-01
 0.99550003E+02 -0.23641E-01
 0.99599998E+02 -0.31320E-01
 0.99650002E+02 -0.34466E-01
 0.99700005E+02 -0.32679E-01
 0.99750000E+02 -0.26178E-01
 0.99800003E+02 -0.16190E-01
 0.99849998E+02 -0.69553E-02
 0.99900002E+02 -0.17385E-02
 0.99950005E+02 -0.12771E-02
 0.10000000E+03  0.30133E-03
 0.10005000E+03  0.46134E-02
 0.10010000E+03  0.67881E-02
 0.10015000E+03  0.46352E-02
 0.10020000E+03 -0.22724E-02
 0.10025000E+03 -0.13905E-01
 0.10030000E+03 -0.29185E-01
 0.10035000E+03 -0.43429E-01
 0.10040000E+03 -0.55709E-01
 0.10045000E+03 -0.65830E-01
 0.10050000E+03 -0.68993E-01
 0.10055000E+03 -0.64478E-01
 0.10060000E+03 -0.54482E-01
 0.10065000E+03 -0.41672E-01
 0.10070000E+03 -0.27407E-01
 0.10075000E+03 -0.84897E-02
 0.10080000E+03  0.15054E-01
 0.10085000E+03  0.37141E-01
 0.10090000E+03  0.50821E-01
 0.10095000E+03  0.54243E-01
 0.10100000E+03  0.50624E-01
 0.10105000E+03  0.43063E-01
 0.10110000E+03  0.33989E-01
 0.10115000E+03  0.22234E-01
 0.10120000E+03  0.65575E-02
 0.10125000E+03 -0.90142E-02
 0.10130000E+03 -0.21589E-01
 0.10135000E+03 -0.28430E-01
 0.10140000E+03 -0.25745E-01
 0.10145000E+03 -0.15771E-01
 0.10150000E+03 -0.54176E-02
 0.10155000E+03  0.28227E-02
 0.10160000E+03  0.10000E-01
 0.10165000E+03  0.12485E-01
 0.10170000E+03  0.71570E-02
 0.10175000E+03 -0.34941E-02
 0.10180000E+03 -0.14058E-01
 0.10185000E+03 -0.18516E-01
 0.10190000E+03 -0.14302E-01
 0.10195000E+03 -0.46980E-02
 0.10200000E+03  0.62944E-02
 0.10205000E+03  0.18862E-01
 0.10210000E+03  0.32390E-01
 0.10215000E+03  0.41356E-01
 0.10220000E+03  0.41298E-01
 0.10225000E+03  0.33381E-01
 0.10230000E+03  0.22101E-01
 0.10235000E+03  0.10750E-01
 0.10240000E+03 -0.10755E-02
 0.10245000E+03 -0.12403E-01
 0.10250000E+03 -0.22432E-01
 0.10255000E+03 -0.31973E-01
 0.10260000E+03 -0.35340E-01
 0.10265000E+03 -0.28021E-01
 0.10270000E+03 -0.14427E-01
 0.10275000E+03 -0.98057E-04
 0.10280000E+03  0.10675E-01
 0.10285000E+03  0.16358E-01
 0.10290000E+03  0.20059E-01
 0.10295000E+03  0.21314E-01
 0.10300000E+03  0.16617E-01
 0.10305000E+03  0.82756E-02
 0.10310000E+03  0.38259E-03
 0.10315000E+03 -0.48223E-02
 0.10320000E+03 -0.65677E-02
 0.10325000E+03 -0.70635E-02
 0.10330000E+03 -0.96279E-02
 0.10335000E+03 -0.16367E-01
 0.10340000E+03 -0.23077E-01
 0.10345000E+03 -0.22163E-01
 0.10350000E+03 -0.10894E-01
 0.10355000E+03  0.78315E-02
 0.10360000E+03  0.27826E-01
 0.10365000E+03  0.46415E-01
 0.10370000E+03  0.60221E-01
 0.10375000E+03  0.63309E-01
 0.10380000E+03  0.53676E-01
 0.10385000E+03  0.34205E-01
 0.10390000E+03  0.10641E-01
 0.10395000E+03 -0.14986E-01
 0.10400000E+03 -0.39462E-01
 0.10405000E+03 -0.55339E-01
 0.10410000E+03 -0.59624E-01
 0.10415000E+03 -0.57640E-01
 0.10420000E+03 -0.53523E-01
 0.10425000E+03 -0.48388E-01
 0.10430000E+03 -0.40830E-01
 0.10435000E+03 -0.27616E-01
 0.10440000E+03 -0.13760E-01
 0.10445000E+03 -0.42756E-02
 0.10450000E+03  0.21686E-02
 0.10455000E+03  0.10472E-01
 0.10460000E+03  0.22082E-01
 0.10465000E+03  0.32850E-01
 0.10470000E+03  0.38211E-01
 0.10475000E+03  0.37323E-01
 0.10480000E+03  0.31791E-01
 0.10485000E+03  0.23033E-01
 0.10490000E+03  0.11110E-01
 0.10495000E+03 -0.39907E-02
 0.10500000E+03 -0.17886E-01
 0.10505000E+03 -0.24817E-01
 0.10510000E+03 -0.23454E-01
 0.10515000E+03 -0.16079E-01
 0.10520000E+03 -0.65160E-02
 0.10525000E+03 -0.10394E-02
 0.10530000E+03 -0.10399E-02
 0.10535000E+03 -0.61882E-02
 0.10540000E+03 -0.11744E-01
 0.10545000E+03 -0.10176E-01
 0.10550000E+03 -0.20571E-02
 0.10555000E+03  0.76911E-02
 0.10560000E+03  0.13763E-01
 0.10565000E+03  0.14704E-01
 0.10570000E+03  0.12975E-01
 0.10575000E+03  0.11151E-01
 0.10580000E+03  0.80056E-02
 0.10585000E+03  0.17411E-02
 0.10590000E+03 -0.61995E-02
 0.10595000E+03 -0.13748E-01
 0.10600000E+03 -0.18289E-01
 0.10605000E+03 -0.18946E-01
 0.10610000E+03 -0.15719E-01
 0.10615000E+03 -0.88272E-02
 0.10620000E+03  0.29670E-03
 0.10625000E+03  0.91706E-02
 0.10630000E+03  0.16733E-01
 0.10635000E+03  0.22586E-01
 0.10640000E+03  0.24592E-01
 0.10645000E+03  0.21060E-01
 0.10650000E+03  0.14545E-01
 0.10655000E+03  0.90129E-02
 0.10660000E+03  0.53339E-02
 0.10665000E+03  0.45610E-02
 0.10670000E+03  0.43386E-02
 0.10675000E+03  0.35486E-02
 0.10680000E+03  0.28829E-02
 0.10685000E+03  0.35127E-02
 0.10690000E+03  0.57609E-02
 0.10695000E+03  0.90903E-02
 0.10700000E+03  0.12896E-01
 0.10705000E+03  0.13408E-01
 0.10710000E+03  0.11325E-01
 0.10715000E+03  0.78988E-02
 0.10720000E+03  0.12137E-02
 0.10725000E+03 -0.70518E-02
 0.10730000E+03 -0.11589E-01
 0.10735000E+03 -0.11083E-01
 0.10740000E+03 -0.73449E-02
 0.10745000E+03 -0.13162E-02
 0.10750000E+03  0.86251E-02
 0.10755000E+03  0.21197E-01
 0.10760000E+03  0.33052E-01
 0.10765000E+03  0.40955E-01
 0.10770000E+03  0.42335E-01
 0.10775000E+03  0.39045E-01
 0.10780000E+03  0.34540E-01
 0.10785000E+03  0.31030E-01
 0.10790000E+03  0.28116E-01
 0.10795000E+03  0.24423E-01
 0.10800000E+03  0.17588E-01
 0.10805000E+03  0.88493E-02
 0.10810000E+03  0.28230E-04
 0.10815000E+03 -0.81566E-02
 0.10820000E+03 -0.16558E-01
 0.10825000E+03 -0.26083E-01
 0.10830000E+03 -0.33820E-01
 0.10835000E+03 -0.38920E-01
 0.10840000E+03 -0.39922E-01
 0.10845000E+03 -0.36733E-01
 0.10850000E+03 -0.31518E-01
 0.10855000E+03 -0.24364E-01
 0.10860000E+03 -0.16015E-01
 0.10865000E+03 -0.83602E-02
 0.10870000E+03 -0.67603E-02
 0.10875000E+03 -0.11063E-01
 0.10880000E+03 -0.14124E-01
 0.10885000E+03 -0.12974E-01
 0.10890000E+03 -0.86468E-02
 0.10895000E+03 -0.38573E-02
 0.10900000E+03  0.10572E-02
 0.10905000E+03  0.73733E-02
 0.10910000E+03  0.13439E-01
 0.10915000E+03  0.16686E-01
 0.10920000E+03  0.16563E-01
 0.10925000E+03  0.15069E-01
 0.10930000E+03  0.14097E-01
 0.10935000E+03  0.11756E-01
 0.10940000E+03  0.50879E-02
 0.10945000E+03 -0.44635E-02
 0.10950000E+03 -0.14030E-01
 0.10955000E+03 -0.22436E-01
 0.10960000E+03 -0.28315E-01
 0.10965000E+03 -0.30402E-01
 0.10970000E+03 -0.27365E-01
 0.10975000E+03 -0.20496E-01
 0.10980000E+03 -0.13189E-01
 0.10985000E+03 -0.51588E-02
 0.10990000E+03  0.49613E-02
 0.10995000E+03  0.16727E-01
 0.11000000E+03  0.28383E-01
 0.11005000E+03  0.38020E-01
 0.11010000E+03  0.45131E-01
 0.11015000E+03  0.48763E-01
 0.11020000E+03  0.48050E-01
 0.11025000E+03  0.42993E-01
 0.11030000E+03  0.35149E-01
 0.11035000E+03  0.26177E-01
 0.11040000E+03  0.17034E-01
 0.11045000E+03  0.95371E-02
 0.11050000E+03  0.58603E-02
 0.11055000E+03  0.48532E-02
 0.11060000E+03  0.39204E-02
 0.11065000E+03  0.33348E-02
 0.11070000E+03  0.26388E-02
 0.11075000E+03  0.10960E-02
 0.11080000E+03 -0.30705E-02
 0.11085000E+03 -0.11313E-01
 0.11090000E+03 -0.21738E-01
 0.11095000E+03 -0.32371E-01
 0.11100000E+03 -0.41164E-01
 0.11105000E+03 -0.44696E-01
 0.11110000E+03 -0.40263E-01
 0.11115000E+03 -0.30059E-01
 0.11120000E+03 -0.17882E-01
 0.11125000E+03 -0.63135E-02
 0.11130000E+03  0.24081E-02
 0.11135000E+03  0.87777E-02
 0.11140000E+03  0.13509E-01
 0.11145000E+03  0.16937E-01
 0.11150000E+03  0.20233E-01
 0.11155000E+03  0.23100E-01
 0.11160000E+03  0.23197E-01
 0.11165000E+03  0.19894E-01
 0.11170000E+03  0.14464E-01
 0.11175000E+03  0.93692E-02
 0.11180000E+03  0.68476E-02
 0.11185000E+03  0.48692E-02
 0.11190000E+03  0.19785E-02
 0.11195000E+03 -0.17496E-02
 0.11200000E+03 -0.60496E-02
 0.11205000E+03 -0.10028E-01
 0.11210000E+03 -0.15856E-01
 0.11215000E+03 -0.23011E-01
 0.11220000E+03 -0.25578E-01
 0.11225000E+03 -0.22195E-01
 0.11230000E+03 -0.15604E-01
 0.11235000E+03 -0.88995E-02
 0.11240000E+03 -0.45594E-02
 0.11245000E+03 -0.35234E-03
 0.11250000E+03  0.52774E-02
 0.11255000E+03  0.11130E-01
 0.11260000E+03  0.17005E-01
 0.11265000E+03  0.21391E-01
 0.11270000E+03  0.22542E-01
 0.11275000E+03  0.20773E-01
 0.11280000E+03  0.14424E-01
 0.11285000E+03  0.24039E-02
 0.11290000E+03 -0.12847E-01
 0.11295000E+03 -0.27577E-01
 0.11300000E+03 -0.39179E-01
 0.11305000E+03 -0.46837E-01
 0.11310000E+03 -0.48628E-01
 0.11315000E+03 -0.44247E-01
 0.11320000E+03 -0.35625E-01
 0.11325000E+03 -0.24851E-01
 0.11330000E+03 -0.12833E-01
 0.11335000E+03  0.65233E-03
 0.11340000E+03  0.14912E-01
 0.11345000E+03  0.28741E-01
 0.11350000E+03  0.41303E-01
 0.11355000E+03  0.50753E-01
 0.11360000E+03  0.54425E-01
 0.11365000E+03  0.52371E-01
 0.11370000E+03  0.44751E-01
 0.11375000E+03  0.32144E-01
 0.11380000E+03  0.17979E-01
 0.11385000E+03  0.44180E-02
 0.11390000E+03 -0.68354E-02
 0.11395000E+03 -0.12595E-01
 0.11400000E+03 -0.11408E-01
 0.11405000E+03 -0.54151E-02
 0.11410000E+03  0.13169E-02
 0.11415000E+03  0.72885E-02
 0.11420000E+03  0.13263E-01
 0.11425000E+03  0.16514E-01
 0.11430000E+03  0.15003E-01
 0.11435000E+03  0.11234E-01
 0.11440000E+03  0.75388E-02
 0.11445000E+03  0.48492E-02
 0.11450000E+03  0.34380E-02
 0.11455000E+03  0.89574E-03
 0.11460000E+03 -0.41323E-02
 0.11465000E+03 -0.10937E-01
 0.11470000E+03 -0.17879E-01
 0.11475000E+03 -0.21590E-01
 0.11480000E+03 -0.20839E-01
 0.11485000E+03 -0.16134E-01
 0.11490000E+03 -0.85286E-02
 0.11495000E+03  0.17000E-03
 0.11500000E+03  0.83409E-02
 0.11505000E+03  0.13975E-01
 0.11510000E+03  0.17781E-01
 0.11515000E+03  0.21656E-01
 0.11520000E+03  0.25070E-01
 0.11525000E+03  0.26250E-01
 0.11530000E+03  0.22429E-01
 0.11535000E+03  0.13605E-01
 0.11540000E+03  0.16177E-02
 0.11545000E+03 -0.10409E-01
 0.11550000E+03 -0.19807E-01
 0.11555000E+03 -0.26830E-01
 0.11560000E+03 -0.31623E-01
 0.11565000E+03 -0.31487E-01
 0.11570000E+03 -0.24389E-01
 0.11575000E+03 -0.12978E-01
 0.11580000E+03 -0.13772E-02
 0.11585000E+03  0.86655E-02
 0.11590000E+03  0.17756E-01
 0.11595000E+03  0.25642E-01
 0.11600000E+03  0.29546E-01
 0.11605000E+03  0.28090E-01
 0.11610000E+03  0.23971E-01
 0.11615000E+03  0.19235E-01
 0.11620000E+03  0.14225E-01
 0.11625000E+03  0.67976E-02
 0.11630000E+03 -0.39219E-02
 0.11635000E+03 -0.15237E-01
 0.11640000E+03 -0.25573E-01
 0.11645000E+03 -0.33212E-01
 0.11650000E+03 -0.37642E-01
 0.11655000E+03 -0.40527E-01
 0.11660000E+03 -0.40796E-01
 0.11665000E+03 -0.35721E-01
 0.11670000E+03 -0.26387E-01
 0.11675000E+03 -0.15186E-01
 0.11680000E+03 -0.28320E-02
 0.11685000E+03  0.85899E-02
 0.11690000E+03  0.15578E-01
 0.11695000E+03  0.16946E-01
 0.11700000E+03  0.14728E-01
 0.11705000E+03  0.10222E-01
 0.11710000E+03  0.32798E-02
 0.11715000E+03 -0.53076E-02
 0.11720000E+03 -0.12831E-01
 0.11725000E+03 -0.17205E-01
 0.11730000E+03 -0.19701E-01
 0.11735000E+03 -0.21914E-01
 0.11740000E+03 -0.22722E-01
 0.11745000E+03 -0.20200E-01
 0.11750000E+03 -0.14949E-01
 0.11755000E+03 -0.83489E-02
 0.11760000E+03 -0.71391E-03
 0.11765000E+03  0.80297E-02
 0.11770000E+03  0.16471E-01
 0.11775000E+03  0.23913E-01
 0.11780000E+03  0.30083E-01
 0.11785000E+03  0.32771E-01
 0.11790000E+03  0.30489E-01
 0.11795000E+03  0.23835E-01
 0.11800000E+03  0.15100E-01
 0.11805000E+03  0.68551E-02
 0.11810000E+03  0.13165E-02
 0.11815000E+03 -0.10395E-02
 0.11820000E+03 -0.57293E-03
 0.11825000E+03  0.21119E-02
 0.11830000E+03  0.54767E-02
 0.11835000E+03  0.73183E-02
 0.11840000E+03  0.86800E-02
 0.11845000E+03  0.11835E-01
 0.11850000E+03  0.16253E-01
 0.11855000E+03  0.20554E-01
 0.11860000E+03  0.22738E-01
 0.11865000E+03  0.21725E-01
 0.11870000E+03  0.19182E-01
 0.11875000E+03  0.16569E-01
 0.11880000E+03  0.12803E-01
 0.11885000E+03  0.70043E-02
 0.11890000E+03 -0.60192E-03
 0.11895000E+03 -0.97487E-02
 0.11900000E+03 -0.19286E-01
 0.11905000E+03 -0.25907E-01
 0.11910000E+03 -0.27643E-01
 0.11915000E+03 -0.23513E-01
 0.11920000E+03 -0.14214E-01
 0.11925000E+03 -0.28140E-02
 0.11930000E+03  0.79221E-02
 0.11935000E+03  0.17113E-01
 0.11940000E+03  0.24087E-01
 0.11945000E+03  0.27449E-01
 0.11950000E+03  0.24589E-01
 0.11955000E+03  0.16744E-01
 0.11960000E+03  0.65233E-02
 0.11965000E+03 -0.46290E-02
 0.11970000E+03 -0.14055E-01
 0.11975000E+03 -0.21144E-01
 0.11980000E+03 -0.24700E-01
 0.11985000E+03 -0.24833E-01
 0.11990000E+03 -0.19925E-01
 0.11995000E+03 -0.14978E-01
 0.12000000E+03 -0.54947E-02
