 0.00000000E+00 -0.87352E-04
 0.50000001E-01 -0.49915E-04
 0.10000000E+00 -0.44472E-04
 0.15000001E+00 -0.46733E-04
 0.20000000E+00 -0.67492E-04
 0.25000000E+00 -0.74458E-04
 0.30000001E+00 -0.73767E-04
 0.34999999E+00 -0.83572E-04
 0.40000001E+00 -0.10719E-03
 0.45000002E+00 -0.12654E-03
 0.50000000E+00 -0.14067E-03
 0.55000001E+00 -0.15672E-03
 0.60000002E+00 -0.17848E-03
 0.65000004E+00 -0.18791E-03
 0.69999999E+00 -0.19826E-03
 0.75000000E+00 -0.22001E-03
 0.80000001E+00 -0.23399E-03
 0.85000002E+00 -0.26042E-03
 0.90000004E+00 -0.28292E-03
 0.94999999E+00 -0.29058E-03
 0.10000000E+01 -0.30909E-03
 0.10500001E+01 -0.32144E-03
 0.11000000E+01 -0.32875E-03
 0.11500000E+01 -0.33703E-03
 0.12000000E+01 -0.33733E-03
 0.12500000E+01 -0.33609E-03
 0.13000001E+01 -0.32219E-03
 0.13500000E+01 -0.31594E-03
 0.14000000E+01 -0.31102E-03
 0.14500000E+01 -0.29225E-03
 0.15000000E+01 -0.27794E-03
 0.15500001E+01 -0.26535E-03
 0.16000000E+01 -0.25768E-03
 0.16500000E+01 -0.25283E-03
 0.17000000E+01 -0.25452E-03
 0.17500000E+01 -0.25542E-03
 0.18000001E+01 -0.24508E-03
 0.18500000E+01 -0.23752E-03
 0.19000000E+01 -0.23619E-03
 0.19500000E+01 -0.23403E-03
 0.20000000E+01 -0.22766E-03
 0.20500000E+01 -0.22159E-03
 0.21000001E+01 -0.20694E-03
 0.21500001E+01 -0.20549E-03
 0.22000000E+01 -0.19198E-03
 0.22500000E+01 -0.17444E-03
 0.23000000E+01 -0.17530E-03
 0.23500001E+01 -0.18111E-03
 0.24000001E+01 -0.19119E-03
 0.24500000E+01 -0.19235E-03
 0.25000000E+01 -0.18983E-03
 0.25500000E+01 -0.18845E-03
 0.26000001E+01 -0.18407E-03
 0.26500001E+01 -0.17185E-03
 0.27000000E+01 -0.16620E-03
 0.27500000E+01 -0.16163E-03
 0.28000000E+01 -0.16322E-03
 0.28500001E+01 -0.16438E-03
 0.29000001E+01 -0.16368E-03
 0.29500000E+01 -0.15929E-03
 0.30000000E+01 -0.16059E-03
 0.30500000E+01 -0.15974E-03
 0.31000001E+01 -0.15516E-03
 0.31500001E+01 -0.15425E-03
 0.32000000E+01 -0.15737E-03
 0.32500000E+01 -0.16052E-03
 0.33000000E+01 -0.16055E-03
 0.33500001E+01 -0.16525E-03
 0.34000001E+01 -0.16546E-03
 0.34500000E+01 -0.17024E-03
 0.35000000E+01 -0.18501E-03
 0.35500000E+01 -0.21105E-03
 0.36000001E+01 -0.22249E-03
 0.36500001E+01 -0.23965E-03
 0.37000000E+01 -0.25212E-03
 0.37500000E+01 -0.26368E-03
 0.38000000E+01 -0.27818E-03
 0.38500001E+01 -0.28077E-03
 0.39000001E+01 -0.28674E-03
 0.39500000E+01 -0.29279E-03
 0.40000000E+01 -0.29075E-03
 0.40500002E+01 -0.27624E-03
 0.40999999E+01 -0.27437E-03
 0.41500001E+01 -0.28210E-03
 0.42000003E+01 -0.29734E-03
 0.42500000E+01 -0.30537E-03
 0.43000002E+01 -0.31286E-03
 0.43499999E+01 -0.30611E-03
 0.44000001E+01 -0.31091E-03
 0.44500003E+01 -0.32900E-03
 0.45000000E+01 -0.33553E-03
 0.45500002E+01 -0.36016E-03
 0.45999999E+01 -0.37422E-03
 0.46500001E+01 -0.38747E-03
 0.47000003E+01 -0.39103E-03
 0.47500000E+01 -0.37970E-03
 0.48000002E+01 -0.38522E-03
 0.48499999E+01 -0.39252E-03
 0.49000001E+01 -0.38674E-03
 0.49500003E+01 -0.37913E-03
 0.50000000E+01 -0.37203E-03
 0.50500002E+01 -0.36345E-03
 0.50999999E+01 -0.35121E-03
 0.51500001E+01 -0.33395E-03
 0.52000003E+01 -0.32651E-03
 0.52500000E+01 -0.31616E-03
 0.53000002E+01 -0.30641E-03
 0.53499999E+01 -0.30532E-03
 0.54000001E+01 -0.30975E-03
 0.54500003E+01 -0.31057E-03
 0.55000000E+01 -0.30562E-03
 0.55500002E+01 -0.30452E-03
 0.55999999E+01 -0.31495E-03
 0.56500001E+01 -0.31495E-03
 0.57000003E+01 -0.30876E-03
 0.57500000E+01 -0.30780E-03
 0.58000002E+01 -0.29189E-03
 0.58499999E+01 -0.26947E-03
 0.59000001E+01 -0.23830E-03
 0.59500003E+01 -0.21993E-03
 0.60000000E+01 -0.20911E-03
 0.60500002E+01 -0.18371E-03
 0.60999999E+01 -0.14904E-03
 0.61500001E+01 -0.11225E-03
 0.62000003E+01 -0.71480E-04
 0.62500000E+01 -0.44057E-04
 0.63000002E+01 -0.47155E-05
 0.63499999E+01  0.27953E-04
 0.64000001E+01  0.47235E-04
 0.64500003E+01  0.76835E-04
 0.65000000E+01  0.98839E-04
 0.65500002E+01  0.13478E-03
 0.65999999E+01  0.14060E-03
 0.66500001E+01  0.14129E-03
 0.67000003E+01  0.15874E-03
 0.67500000E+01  0.17372E-03
 0.68000002E+01  0.17867E-03
 0.68499999E+01  0.16708E-03
 0.69000001E+01  0.16222E-03
 0.69500003E+01  0.15032E-03
 0.70000000E+01  0.13298E-03
 0.70500002E+01  0.11833E-03
 0.70999999E+01  0.98247E-04
 0.71500001E+01  0.82289E-04
 0.72000003E+01  0.66668E-04
 0.72500000E+01  0.58401E-04
 0.73000002E+01  0.41108E-04
 0.73499999E+01  0.13072E-04
 0.74000001E+01 -0.85141E-05
 0.74500003E+01 -0.33466E-04
 0.75000000E+01 -0.43676E-04
 0.75500002E+01 -0.57757E-04
 0.75999999E+01 -0.79832E-04
 0.76500001E+01 -0.12046E-03
 0.77000003E+01 -0.15947E-03
 0.77500000E+01 -0.18562E-03
 0.78000002E+01 -0.22205E-03
 0.78499999E+01 -0.25612E-03
 0.79000001E+01 -0.28023E-03
 0.79500003E+01 -0.31088E-03
 0.80000000E+01 -0.34999E-03
 0.80500002E+01 -0.39869E-03
 0.81000004E+01 -0.42328E-03
 0.81500006E+01 -0.44372E-03
 0.81999998E+01 -0.48506E-03
 0.82500000E+01 -0.51636E-03
 0.83000002E+01 -0.53249E-03
 0.83500004E+01 -0.54933E-03
 0.84000006E+01 -0.57179E-03
 0.84499998E+01 -0.57963E-03
 0.85000000E+01 -0.60978E-03
 0.85500002E+01 -0.63354E-03
 0.86000004E+01 -0.63024E-03
 0.86500006E+01 -0.62239E-03
 0.86999998E+01 -0.61240E-03
 0.87500000E+01 -0.60421E-03
 0.88000002E+01 -0.59686E-03
 0.88500004E+01 -0.57060E-03
 0.89000006E+01 -0.54837E-03
 0.89499998E+01 -0.52707E-03
 0.90000000E+01 -0.49333E-03
 0.90500002E+01 -0.46021E-03
 0.91000004E+01 -0.43064E-03
 0.91500006E+01 -0.39777E-03
 0.91999998E+01 -0.36357E-03
 0.92500000E+01 -0.33247E-03
 0.93000002E+01 -0.29719E-03
 0.93500004E+01 -0.25914E-03
 0.94000006E+01 -0.22977E-03
 0.94499998E+01 -0.20651E-03
 0.95000000E+01 -0.16447E-03
 0.95500002E+01 -0.13217E-03
 0.96000004E+01 -0.10409E-03
 0.96500006E+01 -0.69321E-04
 0.96999998E+01 -0.49966E-04
 0.97500000E+01 -0.35555E-04
 0.98000002E+01 -0.19969E-04
 0.98500004E+01  0.11743E-05
 0.99000006E+01  0.16006E-04
 0.99499998E+01  0.13026E-04
 0.10000000E+02  0.24632E-04
 0.10050000E+02  0.20272E-04
 0.10100000E+02  0.23765E-04
 0.10150001E+02  0.38507E-04
 0.10200000E+02  0.26426E-04
 0.10250000E+02  0.74612E-04
 0.10300000E+02  0.90134E-04
 0.10350000E+02 -0.11863E-03
 0.10400001E+02  0.12036E-03
 0.10450000E+02 -0.21934E-04
 0.10500000E+02 -0.57511E-03
 0.10550000E+02 -0.48087E-03
 0.10600000E+02 -0.26253E-03
 0.10650001E+02 -0.84683E-03
 0.10700000E+02 -0.14704E-03
 0.10750000E+02 -0.15244E-02
 0.10800000E+02 -0.49802E-04
 0.10850000E+02 -0.49975E-03
 0.10900001E+02 -0.34864E-03
 0.10950000E+02 -0.31853E-03
 0.11000000E+02  0.57993E-03
 0.11050000E+02  0.16736E-02
 0.11100000E+02 -0.31754E-03
 0.11150001E+02  0.13929E-02
 0.11200000E+02 -0.38305E-03
 0.11250000E+02  0.70269E-02
 0.11300000E+02  0.92932E-02
 0.11350000E+02  0.36821E-01
 0.11400001E+02  0.51692E-01
 0.11450000E+02  0.50950E-01
 0.11500000E+02  0.10893E+00
 0.11550000E+02  0.15367E+00
 0.11600000E+02  0.47347E-01
 0.11650001E+02  0.91922E-01
 0.11700000E+02  0.10747E+00
 0.11750000E+02  0.49275E-01
 0.11800000E+02  0.82366E-01
 0.11850000E+02 -0.11946E+00
 0.11900001E+02 -0.42222E-01
 0.11950000E+02 -0.34271E-01
 0.12000000E+02 -0.17491E+00
 0.12050000E+02 -0.18385E+00
 0.12100000E+02 -0.34563E-01
 0.12150001E+02  0.15337E+00
 0.12200000E+02  0.65948E-01
 0.12250000E+02  0.13551E+00
 0.12300000E+02  0.19112E+00
 0.12350000E+02  0.14759E+00
 0.12400001E+02  0.12410E+00
 0.12450000E+02  0.19769E+00
 0.12500000E+02  0.10568E+00
 0.12550000E+02  0.14911E-01
 0.12600000E+02  0.35683E-01
 0.12650001E+02 -0.41792E-01
 0.12700000E+02 -0.19695E+00
 0.12750000E+02 -0.20688E+00
 0.12800000E+02 -0.13529E+00
 0.12850000E+02 -0.16761E+00
 0.12900001E+02 -0.17891E+00
 0.12950000E+02 -0.37612E+00
 0.13000000E+02  0.24022E-01
 0.13050000E+02  0.58161E-01
 0.13100000E+02 -0.11984E+00
 0.13150001E+02  0.73355E-01
 0.13200000E+02  0.29263E+00
 0.13250000E+02  0.21600E+00
 0.13300000E+02 -0.94029E-01
 0.13350000E+02  0.45758E-02
 0.13400001E+02 -0.45362E-01
 0.13450000E+02 -0.15269E+00
 0.13500000E+02 -0.21661E+00
 0.13550000E+02  0.10642E-01
 0.13600000E+02  0.28905E-01
 0.13650001E+02 -0.49630E-01
 0.13700000E+02 -0.20180E-01
 0.13750000E+02  0.17365E-02
 0.13800000E+02  0.14157E-02
 0.13850000E+02  0.10364E-01
 0.13900001E+02 -0.64809E-01
 0.13950000E+02 -0.20747E-02
 0.14000000E+02 -0.12906E+00
 0.14050000E+02 -0.17026E-01
 0.14100000E+02  0.32711E+00
 0.14150001E+02  0.85961E-01
 0.14200000E+02  0.98153E-01
 0.14250000E+02  0.50889E-01
 0.14300000E+02  0.17536E+00
 0.14350000E+02  0.56546E-02
 0.14400001E+02 -0.40377E+00
 0.14450000E+02 -0.10819E+00
 0.14500000E+02 -0.12286E+00
 0.14550000E+02 -0.13197E+00
 0.14600000E+02  0.80538E-01
 0.14650001E+02  0.13061E-01
 0.14700000E+02  0.19849E+00
 0.14750000E+02  0.17749E+00
 0.14800000E+02  0.87693E-01
 0.14850000E+02  0.13864E+00
 0.14900001E+02  0.11290E+00
 0.14950000E+02  0.18177E+00
 0.15000000E+02 -0.63532E-01
 0.15050000E+02 -0.72095E-01
 0.15100000E+02  0.66962E-01
 0.15150001E+02 -0.94512E-01
 0.15200000E+02 -0.14801E+00
 0.15250000E+02 -0.12616E+00
 0.15300000E+02 -0.87632E-01
 0.15350000E+02  0.16260E-01
 0.15400001E+02  0.21136E-01
 0.15450000E+02 -0.40426E-01
 0.15500000E+02  0.35930E-01
 0.15550000E+02 -0.50286E-01
 0.15600000E+02 -0.64677E-01
 0.15650001E+02  0.12719E+00
 0.15700000E+02 -0.98258E-01
 0.15750000E+02 -0.12361E+00
 0.15800000E+02  0.24310E+00
 0.15850000E+02  0.24578E+00
 0.15900001E+02  0.20004E-01
 0.15950000E+02 -0.93392E-01
 0.16000000E+02  0.14986E+00
 0.16050001E+02  0.12844E+00
 0.16100000E+02 -0.19842E-01
 0.16150000E+02 -0.62800E-01
 0.16200001E+02 -0.10257E+00
 0.16250000E+02  0.10395E+00
 0.16300001E+02  0.71075E-01
 0.16350000E+02 -0.33047E-01
 0.16400000E+02 -0.15270E+00
 0.16450001E+02 -0.20747E+00
 0.16500000E+02 -0.56397E-01
 0.16550001E+02 -0.16531E-01
 0.16600000E+02 -0.72677E-01
 0.16650000E+02 -0.11364E+00
 0.16700001E+02 -0.27415E-01
 0.16750000E+02  0.19376E+00
 0.16800001E+02  0.21654E+00
 0.16850000E+02  0.25228E+00
 0.16900000E+02  0.25787E+00
 0.16950001E+02 -0.60985E-01
 0.17000000E+02 -0.13720E+00
 0.17050001E+02  0.38999E-01
 0.17100000E+02  0.84824E-01
 0.17150000E+02  0.33622E-01
 0.17200001E+02 -0.13746E-01
 0.17250000E+02 -0.86834E-01
 0.17300001E+02  0.37663E-01
 0.17350000E+02 -0.12678E-02
 0.17400000E+02 -0.53212E-01
 0.17450001E+02 -0.55543E-01
 0.17500000E+02 -0.75736E-01
 0.17550001E+02  0.17126E+00
 0.17600000E+02  0.17583E-02
 0.17650000E+02 -0.10514E+00
 0.17700001E+02  0.89223E-01
 0.17750000E+02  0.10940E+00
 0.17800001E+02  0.24678E-01
 0.17850000E+02 -0.68833E-01
 0.17900000E+02 -0.64241E-01
 0.17950001E+02 -0.66228E-01
 0.18000000E+02 -0.12318E+00
 0.18050001E+02 -0.16579E+00
 0.18100000E+02 -0.96800E-01
 0.18150000E+02 -0.70737E-01
 0.18200001E+02 -0.14629E-01
 0.18250000E+02 -0.55096E-01
 0.18300001E+02 -0.25139E-01
 0.18350000E+02 -0.17958E+00
 0.18400000E+02 -0.10984E+00
 0.18450001E+02  0.82256E-01
 0.18500000E+02 -0.41283E-01
 0.18550001E+02  0.59154E-01
 0.18600000E+02  0.91820E-01
 0.18650000E+02  0.52289E-01
 0.18700001E+02  0.28676E-01
 0.18750000E+02 -0.13728E-01
 0.18800001E+02  0.39026E-01
 0.18850000E+02  0.30789E+00
 0.18900000E+02  0.15449E+00
 0.18950001E+02  0.49068E-01
 0.19000000E+02 -0.82835E-01
 0.19050001E+02 -0.15172E+00
 0.19100000E+02  0.22918E+00
 0.19150000E+02  0.23786E+00
 0.19200001E+02 -0.74596E-01
 0.19250000E+02 -0.30180E-01
 0.19300001E+02 -0.97429E-01
 0.19350000E+02 -0.98749E-01
 0.19400000E+02  0.18411E+00
 0.19450001E+02  0.59958E-01
 0.19500000E+02 -0.24739E+00
 0.19550001E+02 -0.34483E+00
 0.19600000E+02  0.34656E-01
 0.19650000E+02  0.42914E+00
 0.19700001E+02  0.38713E+00
 0.19750000E+02 -0.43693E-01
 0.19800001E+02  0.36952E+00
 0.19850000E+02  0.48372E+00
 0.19900000E+02  0.81923E-01
 0.19950001E+02  0.28733E-01
 0.20000000E+02 -0.67107E-02
 0.20050001E+02 -0.14212E+00
 0.20100000E+02 -0.64236E+00
 0.20150000E+02 -0.86323E+00
 0.20200001E+02 -0.77446E+00
 0.20250000E+02 -0.22631E+00
 0.20300001E+02  0.21446E+00
 0.20350000E+02 -0.29032E+00
 0.20400000E+02 -0.11390E+00
 0.20450001E+02  0.78749E+00
 0.20500000E+02  0.51525E+00
 0.20550001E+02  0.40383E+00
 0.20600000E+02  0.61173E+00
 0.20650000E+02  0.20749E+00
 0.20700001E+02 -0.13681E-01
 0.20750000E+02  0.21893E+00
 0.20800001E+02 -0.38245E+00
 0.20850000E+02 -0.10000E+01
 0.20900000E+02 -0.58485E+00
 0.20950001E+02 -0.26998E+00
 0.21000000E+02 -0.83588E-01
 0.21050001E+02  0.14409E+00
 0.21100000E+02  0.20149E+00
 0.21150000E+02 -0.10463E+00
 0.21200001E+02 -0.18567E+00
 0.21250000E+02  0.12057E+00
 0.21300001E+02  0.15142E+00
 0.21350000E+02 -0.10303E+00
 0.21400000E+02 -0.11158E+00
 0.21450001E+02 -0.27347E-01
 0.21500000E+02  0.34249E+00
 0.21550001E+02  0.38787E+00
 0.21600000E+02  0.87733E-01
 0.21650000E+02  0.25521E+00
 0.21700001E+02  0.39196E+00
 0.21750000E+02  0.10213E+00
 0.21800001E+02 -0.28663E+00
 0.21850000E+02 -0.13027E+00
 0.21900000E+02 -0.15255E-01
 0.21950001E+02 -0.32017E-01
 0.22000000E+02 -0.18283E+00
 0.22050001E+02 -0.26473E+00
 0.22100000E+02  0.15317E-01
 0.22150000E+02  0.13978E+00
 0.22200001E+02  0.27063E-01
 0.22250000E+02 -0.18054E+00
 0.22300001E+02 -0.11275E+00
 0.22350000E+02  0.42870E-01
 0.22400000E+02 -0.10547E+00
 0.22450001E+02 -0.19538E+00
 0.22500000E+02 -0.52868E-01
 0.22550001E+02  0.80264E-01
 0.22600000E+02  0.14645E+00
 0.22650000E+02  0.10078E+00
 0.22700001E+02  0.15090E+00
 0.22750000E+02  0.14287E+00
 0.22800001E+02 -0.52741E-01
 0.22850000E+02 -0.17985E+00
 0.22900000E+02 -0.31278E+00
 0.22950001E+02 -0.26028E+00
 0.23000000E+02 -0.15021E+00
 0.23050001E+02 -0.23343E+00
 0.23100000E+02 -0.20825E+00
 0.23150000E+02 -0.15206E+00
 0.23200001E+02  0.23798E-01
 0.23250000E+02  0.10102E+00
 0.23300001E+02 -0.16448E+00
 0.23350000E+02 -0.18866E+00
 0.23400000E+02 -0.20778E-01
 0.23450001E+02 -0.12935E-01
 0.23500000E+02  0.23977E+00
 0.23550001E+02  0.52737E+00
 0.23600000E+02  0.28063E+00
 0.23650000E+02 -0.13404E-01
 0.23700001E+02 -0.57093E-01
 0.23750000E+02 -0.75603E-01
 0.23800001E+02 -0.91321E-01
 0.23850000E+02 -0.15010E+00
 0.23900000E+02 -0.31521E+00
 0.23950001E+02 -0.19485E+00
 0.24000000E+02  0.72783E-01
 0.24050001E+02  0.16786E+00
 0.24100000E+02  0.61473E-01
 0.24150000E+02 -0.63548E-02
 0.24200001E+02 -0.10675E+00
 0.24250000E+02 -0.13946E-01
 0.24300001E+02  0.11377E+00
 0.24350000E+02  0.56162E-01
 0.24400000E+02  0.70920E-01
 0.24450001E+02  0.14434E+00
 0.24500000E+02  0.23135E+00
 0.24550001E+02 -0.24769E-01
 0.24600000E+02 -0.95281E-01
 0.24650000E+02 -0.57883E-01
 0.24700001E+02  0.20675E+00
 0.24750000E+02  0.26093E+00
 0.24800001E+02  0.10286E+00
 0.24850000E+02  0.40491E-01
 0.24900000E+02 -0.11794E+00
 0.24950001E+02 -0.84243E-01
 0.25000000E+02 -0.44975E-01
 0.25050001E+02 -0.37562E-01
 0.25100000E+02 -0.84834E-01
 0.25150000E+02 -0.21656E+00
 0.25200001E+02 -0.25501E+00
 0.25250000E+02 -0.79582E-02
 0.25300001E+02  0.19961E+00
 0.25350000E+02  0.13892E+00
 0.25400000E+02  0.18451E+00
 0.25450001E+02  0.41460E+00
 0.25500000E+02  0.36187E+00
 0.25550001E+02  0.34992E-01
 0.25600000E+02 -0.25457E+00
 0.25650000E+02 -0.17690E+00
 0.25700001E+02 -0.30074E+00
 0.25750000E+02 -0.59677E+00
 0.25800001E+02 -0.50360E+00
 0.25850000E+02 -0.23517E+00
 0.25900000E+02 -0.82802E-01
 0.25950001E+02 -0.95476E-01
 0.26000000E+02  0.15180E+00
 0.26050001E+02  0.41408E+00
 0.26100000E+02  0.41578E+00
 0.26150000E+02  0.30297E+00
 0.26200001E+02  0.37487E+00
 0.26250000E+02  0.36161E+00
 0.26300001E+02  0.77449E-01
 0.26350000E+02 -0.56504E-01
 0.26400000E+02 -0.11169E+00
 0.26450001E+02 -0.52854E-01
 0.26500000E+02 -0.70609E-01
 0.26550001E+02 -0.19795E+00
 0.26600000E+02 -0.24619E+00
 0.26650000E+02 -0.33555E+00
 0.26700001E+02 -0.40282E+00
 0.26750000E+02 -0.39241E+00
 0.26800001E+02 -0.18053E+00
 0.26850000E+02  0.14578E+00
 0.26900000E+02  0.22617E+00
 0.26950001E+02  0.14371E+00
 0.27000000E+02  0.18466E+00
 0.27050001E+02  0.24322E+00
 0.27100000E+02  0.20246E+00
 0.27150000E+02  0.17976E+00
 0.27200001E+02  0.19328E+00
 0.27250000E+02  0.15663E+00
 0.27300001E+02 -0.17308E-01
 0.27350000E+02 -0.97539E-01
 0.27400000E+02 -0.80644E-01
 0.27450001E+02 -0.98365E-01
 0.27500000E+02 -0.94778E-01
 0.27550001E+02  0.90045E-01
 0.27600000E+02  0.19285E+00
 0.27650000E+02  0.69032E-01
 0.27700001E+02  0.93526E-01
 0.27750000E+02  0.52830E-01
 0.27800001E+02  0.54071E-01
 0.27850000E+02  0.11296E+00
 0.27900000E+02  0.21214E+00
 0.27950001E+02  0.23226E+00
 0.28000000E+02  0.32507E-01
 0.28050001E+02 -0.40498E-01
 0.28100000E+02 -0.78007E-01
 0.28150000E+02 -0.10372E+00
 0.28200001E+02 -0.69419E-01
 0.28250000E+02 -0.28060E-01
 0.28300001E+02  0.11063E+00
 0.28350000E+02  0.24575E+00
 0.28400000E+02  0.23804E+00
 0.28450001E+02  0.55487E-02
 0.28500000E+02 -0.28231E+00
 0.28550001E+02 -0.48424E+00
 0.28600000E+02 -0.71135E+00
 0.28650000E+02 -0.53030E+00
 0.28700001E+02 -0.40364E+00
 0.28750000E+02 -0.40251E+00
 0.28800001E+02 -0.32103E+00
 0.28850000E+02 -0.20401E+00
 0.28900000E+02  0.25648E+00
 0.28950001E+02  0.48377E+00
 0.29000000E+02  0.58611E+00
 0.29050001E+02  0.75406E+00
 0.29100000E+02  0.68086E+00
 0.29150000E+02  0.31769E+00
 0.29200001E+02 -0.55258E-01
 0.29250000E+02 -0.31001E+00
 0.29300001E+02 -0.48336E+00
 0.29350000E+02 -0.51014E+00
 0.29400000E+02 -0.38544E+00
 0.29450001E+02 -0.11828E+00
 0.29500000E+02  0.63442E-01
 0.29550001E+02  0.21167E+00
 0.29600000E+02  0.41101E+00
 0.29650000E+02  0.47590E+00
 0.29700001E+02  0.22279E+00
 0.29750000E+02  0.53629E-01
 0.29800001E+02 -0.23548E-01
 0.29850000E+02 -0.10788E+00
 0.29900000E+02 -0.93282E-01
 0.29950001E+02 -0.12102E+00
 0.30000000E+02 -0.56827E-01
 0.30050001E+02 -0.75923E-01
 0.30100000E+02 -0.10818E-01
 0.30150000E+02  0.69392E-01
 0.30200001E+02  0.16146E+00
 0.30250000E+02  0.10219E+00
 0.30300001E+02  0.11598E+00
 0.30350000E+02  0.68041E-01
 0.30400000E+02 -0.20731E+00
 0.30450001E+02 -0.78657E-01
 0.30500000E+02 -0.11866E+00
 0.30550001E+02 -0.30361E+00
 0.30600000E+02 -0.25661E+00
 0.30650000E+02 -0.15393E+00
 0.30700001E+02  0.19067E-01
 0.30750000E+02  0.56516E-01
 0.30800001E+02  0.43158E-01
 0.30850000E+02  0.95951E-01
 0.30900000E+02  0.23060E+00
 0.30950001E+02  0.30573E+00
 0.31000000E+02  0.10096E+00
 0.31050001E+02 -0.11346E+00
 0.31100000E+02 -0.14603E+00
 0.31150000E+02 -0.25065E-01
 0.31200001E+02 -0.13190E+00
 0.31250000E+02 -0.18628E+00
 0.31300001E+02 -0.12952E+00
 0.31350000E+02 -0.45416E-01
 0.31400000E+02  0.10207E+00
 0.31450001E+02  0.16378E+00
 0.31500000E+02  0.28675E+00
 0.31550001E+02  0.24328E+00
 0.31600000E+02  0.10848E+00
 0.31650000E+02  0.11864E-01
 0.31700001E+02 -0.14463E+00
 0.31750000E+02 -0.18811E+00
 0.31800001E+02 -0.27677E+00
 0.31850000E+02 -0.15280E+00
 0.31900000E+02  0.10593E+00
 0.31950001E+02  0.13504E+00
 0.32000000E+02  0.13703E+00
 0.32049999E+02  0.14024E+00
 0.32100002E+02  0.62789E-01
 0.32150002E+02  0.17327E-01
 0.32200001E+02  0.29226E-01
 0.32250000E+02 -0.11647E+00
 0.32299999E+02 -0.18014E+00
 0.32350002E+02 -0.23561E+00
 0.32400002E+02 -0.24368E+00
 0.32450001E+02 -0.10749E+00
 0.32500000E+02  0.76480E-02
 0.32549999E+02  0.99773E-01
 0.32600002E+02  0.42835E-01
 0.32650002E+02  0.24653E-01
 0.32700001E+02  0.12130E+00
 0.32750000E+02  0.11444E+00
 0.32799999E+02  0.16514E-01
 0.32850002E+02 -0.47812E-01
 0.32900002E+02 -0.14366E-01
 0.32950001E+02 -0.20900E-01
 0.33000000E+02  0.20032E-01
 0.33049999E+02  0.67988E-01
 0.33100002E+02  0.32508E-01
 0.33150002E+02 -0.25972E-01
 0.33200001E+02  0.17407E-02
 0.33250000E+02  0.52118E-01
 0.33299999E+02  0.24635E-02
 0.33350002E+02  0.10305E+00
 0.33400002E+02  0.17977E+00
 0.33450001E+02  0.16331E+00
 0.33500000E+02  0.12634E+00
 0.33549999E+02  0.18181E+00
 0.33600002E+02  0.17697E+00
 0.33650002E+02  0.13740E-01
 0.33700001E+02 -0.58015E-01
 0.33750000E+02 -0.12498E+00
 0.33799999E+02 -0.14518E+00
 0.33850002E+02 -0.11152E+00
 0.33900002E+02 -0.17664E+00
 0.33950001E+02 -0.25862E+00
 0.34000000E+02 -0.28023E+00
 0.34049999E+02 -0.24086E+00
 0.34100002E+02 -0.11920E+00
 0.34150002E+02 -0.59654E-01
 0.34200001E+02  0.31046E-01
 0.34250000E+02  0.57025E-01
 0.34299999E+02  0.10781E+00
 0.34350002E+02  0.19644E+00
 0.34400002E+02  0.15885E+00
 0.34450001E+02  0.11698E+00
 0.34500000E+02  0.71217E-01
 0.34549999E+02  0.21434E-01
 0.34600002E+02 -0.11711E+00
 0.34650002E+02 -0.24433E+00
 0.34700001E+02 -0.29748E+00
 0.34750000E+02 -0.24064E+00
 0.34799999E+02 -0.92092E-01
 0.34850002E+02 -0.31381E-01
 0.34900002E+02 -0.56446E-01
 0.34950001E+02  0.10908E-01
 0.35000000E+02  0.17973E+00
 0.35049999E+02  0.23525E+00
 0.35100002E+02  0.22297E+00
 0.35150002E+02  0.23617E+00
 0.35200001E+02  0.16761E+00
 0.35250000E+02  0.12721E+00
 0.35299999E+02  0.76424E-01
 0.35350002E+02  0.34486E-01
 0.35400002E+02  0.27796E-01
 0.35450001E+02 -0.45744E-01
 0.35500000E+02 -0.30405E-01
 0.35549999E+02  0.92501E-01
 0.35600002E+02  0.15027E+00
 0.35650002E+02  0.13252E+00
 0.35700001E+02  0.21020E+00
 0.35750000E+02  0.22680E+00
 0.35799999E+02  0.70580E-01
 0.35850002E+02 -0.69843E-01
 0.35900002E+02 -0.86394E-01
 0.35950001E+02 -0.10272E+00
 0.36000000E+02 -0.19281E+00
 0.36049999E+02 -0.27978E+00
 0.36100002E+02 -0.25849E+00
 0.36150002E+02 -0.27118E+00
 0.36200001E+02 -0.22038E+00
 0.36250000E+02 -0.12042E+00
 0.36299999E+02 -0.57939E-01
 0.36350002E+02  0.87669E-01
 0.36400002E+02  0.68548E-01
 0.36450001E+02 -0.10436E-02
 0.36500000E+02 -0.77196E-01
 0.36549999E+02 -0.55685E-01
 0.36600002E+02  0.12745E-01
 0.36650002E+02 -0.25771E-01
 0.36700001E+02 -0.29528E-01
 0.36750000E+02 -0.58370E-01
 0.36799999E+02 -0.89716E-01
 0.36850002E+02 -0.49470E-01
 0.36900002E+02  0.18702E-01
 0.36950001E+02  0.11047E-01
 0.37000000E+02  0.38165E-01
 0.37049999E+02  0.61444E-01
 0.37100002E+02  0.13619E-01
 0.37150002E+02  0.14700E-01
 0.37200001E+02  0.19256E-01
 0.37250000E+02  0.88172E-01
 0.37299999E+02  0.12755E+00
 0.37350002E+02  0.14586E+00
 0.37400002E+02  0.15686E+00
 0.37450001E+02  0.14675E+00
 0.37500000E+02  0.15734E+00
 0.37549999E+02  0.60136E-01
 0.37600002E+02  0.73086E-01
 0.37650002E+02  0.64308E-01
 0.37700001E+02  0.27955E-01
 0.37750000E+02 -0.18090E-01
 0.37799999E+02 -0.74857E-01
 0.37850002E+02 -0.20699E-01
 0.37900002E+02 -0.38757E-01
 0.37950001E+02 -0.57762E-02
 0.38000000E+02 -0.63269E-01
 0.38049999E+02 -0.77500E-01
 0.38100002E+02 -0.31729E-01
 0.38150002E+02  0.13000E-01
 0.38200001E+02  0.32216E-01
 0.38250000E+02 -0.74142E-01
 0.38299999E+02 -0.95527E-01
 0.38350002E+02 -0.82177E-01
 0.38400002E+02 -0.41772E-01
 0.38450001E+02  0.12610E-01
 0.38500000E+02  0.10829E+00
 0.38549999E+02  0.14776E+00
 0.38600002E+02  0.10234E+00
 0.38650002E+02  0.12182E-01
 0.38700001E+02 -0.86108E-01
 0.38750000E+02 -0.16061E+00
 0.38799999E+02 -0.15854E+00
 0.38850002E+02 -0.10544E+00
 0.38900002E+02 -0.71874E-01
 0.38950001E+02 -0.48941E-01
 0.39000000E+02 -0.89576E-02
 0.39049999E+02  0.51788E-01
 0.39100002E+02  0.11348E+00
 0.39150002E+02  0.17119E+00
 0.39200001E+02  0.20373E+00
 0.39250000E+02  0.15738E+00
 0.39299999E+02  0.19769E-01
 0.39350002E+02 -0.25189E-01
 0.39400002E+02 -0.78257E-01
 0.39450001E+02 -0.12670E+00
 0.39500000E+02 -0.17434E+00
 0.39549999E+02 -0.20617E+00
 0.39600002E+02 -0.10398E+00
 0.39650002E+02 -0.30312E-01
 0.39700001E+02 -0.22614E-01
 0.39750000E+02 -0.52820E-01
 0.39799999E+02 -0.65263E-01
 0.39850002E+02 -0.18493E-01
 0.39900002E+02  0.16042E-01
 0.39950001E+02 -0.22902E-01
 0.40000000E+02 -0.38615E-01
 0.40049999E+02 -0.19125E-01
 0.40100002E+02 -0.15380E-01
 0.40150002E+02  0.14313E-01
 0.40200001E+02  0.37082E-01
 0.40250000E+02  0.49299E-01
 0.40299999E+02  0.42221E-01
 0.40350002E+02 -0.11087E-01
 0.40400002E+02 -0.30366E-01
 0.40450001E+02  0.36486E-01
 0.40500000E+02  0.66058E-01
 0.40549999E+02  0.93358E-01
 0.40600002E+02  0.13987E+00
 0.40650002E+02  0.11471E+00
 0.40700001E+02  0.81591E-01
 0.40750000E+02  0.89080E-01
 0.40799999E+02  0.75210E-01
 0.40850002E+02  0.43286E-01
 0.40900002E+02 -0.18988E-01
 0.40950001E+02 -0.63700E-01
 0.41000000E+02  0.23317E-03
 0.41049999E+02  0.73084E-01
 0.41100002E+02  0.10651E+00
 0.41150002E+02  0.14822E+00
 0.41200001E+02  0.14771E+00
 0.41250000E+02  0.90620E-01
 0.41299999E+02  0.43161E-01
 0.41350002E+02 -0.17510E-01
 0.41400002E+02 -0.67959E-01
 0.41450001E+02 -0.99912E-01
 0.41500000E+02 -0.98559E-01
 0.41549999E+02 -0.36387E-01
 0.41600002E+02  0.29221E-01
 0.41650002E+02  0.44971E-01
 0.41700001E+02  0.60460E-01
 0.41750000E+02  0.52460E-01
 0.41799999E+02  0.39580E-01
 0.41850002E+02  0.10551E-01
 0.41900002E+02 -0.96474E-02
 0.41950001E+02 -0.87435E-01
 0.42000000E+02 -0.18407E+00
 0.42049999E+02 -0.20511E+00
 0.42100002E+02 -0.21734E+00
 0.42150002E+02 -0.17612E+00
 0.42200001E+02 -0.16576E+00
 0.42250000E+02 -0.17007E+00
 0.42299999E+02 -0.15896E+00
 0.42350002E+02 -0.13448E+00
 0.42400002E+02 -0.10012E+00
 0.42450001E+02  0.11659E-01
 0.42500000E+02  0.69411E-01
 0.42549999E+02  0.88283E-01
 0.42600002E+02  0.12802E+00
 0.42650002E+02  0.12189E+00
 0.42700001E+02  0.12909E+00
 0.42750000E+02  0.95092E-01
 0.42799999E+02  0.58721E-01
 0.42850002E+02  0.60053E-01
 0.42900002E+02  0.64940E-01
 0.42950001E+02  0.22831E-01
 0.43000000E+02 -0.31489E-01
 0.43049999E+02 -0.55879E-01
 0.43100002E+02 -0.50044E-01
 0.43150002E+02  0.18696E-01
 0.43200001E+02  0.84193E-01
 0.43250000E+02  0.10972E+00
 0.43299999E+02  0.82852E-01
 0.43350002E+02  0.66830E-01
 0.43400002E+02  0.10611E+00
 0.43450001E+02  0.83600E-01
 0.43500000E+02  0.58207E-01
 0.43549999E+02  0.88932E-02
 0.43600002E+02  0.49869E-02
 0.43650002E+02 -0.38568E-01
 0.43700001E+02 -0.10688E+00
 0.43750000E+02 -0.10952E+00
 0.43799999E+02 -0.15128E+00
 0.43850002E+02 -0.10132E+00
 0.43900002E+02 -0.89245E-01
 0.43950001E+02 -0.88886E-01
 0.44000000E+02 -0.84403E-01
 0.44049999E+02 -0.12441E+00
 0.44100002E+02 -0.12159E+00
 0.44150002E+02 -0.73012E-01
 0.44200001E+02 -0.22768E-02
 0.44250000E+02 -0.12640E-01
 0.44299999E+02 -0.42592E-01
 0.44350002E+02 -0.23796E-01
 0.44400002E+02  0.30841E-01
 0.44450001E+02  0.50365E-01
 0.44500000E+02  0.42742E-01
 0.44549999E+02  0.60542E-01
 0.44600002E+02  0.94199E-01
 0.44650002E+02  0.94281E-01
 0.44700001E+02  0.49151E-01
 0.44750000E+02  0.18040E-01
 0.44799999E+02 -0.83122E-03
 0.44850002E+02 -0.79460E-03
 0.44900002E+02  0.37104E-01
 0.44950001E+02  0.59620E-01
 0.45000000E+02  0.64037E-01
 0.45049999E+02  0.62917E-01
 0.45100002E+02  0.47416E-01
 0.45150002E+02  0.44066E-01
 0.45200001E+02  0.48660E-01
 0.45250000E+02  0.62120E-01
 0.45299999E+02  0.57653E-01
 0.45350002E+02  0.49460E-01
 0.45400002E+02  0.56458E-01
 0.45450001E+02  0.49802E-01
 0.45500000E+02  0.34387E-01
 0.45549999E+02  0.26254E-01
 0.45600002E+02  0.17837E-01
 0.45650002E+02  0.15122E-01
 0.45700001E+02 -0.15751E-01
 0.45750000E+02 -0.37889E-01
 0.45799999E+02 -0.13778E-01
 0.45850002E+02 -0.33324E-02
 0.45900002E+02 -0.22930E-01
 0.45950001E+02  0.89185E-02
 0.46000000E+02  0.17159E-01
 0.46049999E+02  0.64686E-02
 0.46100002E+02  0.17768E-01
 0.46150002E+02 -0.70588E-01
 0.46200001E+02 -0.11909E+00
 0.46250000E+02 -0.10077E+00
 0.46299999E+02 -0.10365E+00
 0.46350002E+02 -0.93801E-01
 0.46400002E+02 -0.96103E-01
 0.46450001E+02 -0.77074E-01
 0.46500000E+02 -0.44541E-02
 0.46549999E+02  0.56012E-01
 0.46600002E+02  0.50149E-01
 0.46650002E+02  0.30086E-01
 0.46700001E+02  0.33236E-01
 0.46750000E+02  0.38662E-01
 0.46799999E+02  0.16973E-01
 0.46850002E+02 -0.19135E-01
 0.46900002E+02 -0.31659E-01
 0.46950001E+02  0.14015E-01
 0.47000000E+02  0.10167E+00
 0.47049999E+02  0.11577E+00
 0.47100002E+02  0.10032E+00
 0.47150002E+02  0.74757E-01
 0.47200001E+02  0.25649E-01
 0.47250000E+02 -0.30935E-01
 0.47299999E+02 -0.83811E-01
 0.47350002E+02 -0.11159E+00
 0.47400002E+02 -0.11446E+00
 0.47450001E+02 -0.10619E+00
 0.47500000E+02 -0.84214E-01
 0.47549999E+02 -0.53240E-01
 0.47600002E+02 -0.53715E-01
 0.47650002E+02 -0.18463E-01
 0.47700001E+02  0.15226E-01
 0.47750000E+02  0.36726E-01
 0.47799999E+02  0.68473E-01
 0.47850002E+02  0.80627E-01
 0.47900002E+02  0.11534E+00
 0.47950001E+02  0.11257E+00
 0.48000000E+02  0.68734E-01
 0.48049999E+02  0.53455E-01
 0.48100002E+02  0.30730E-01
 0.48150002E+02  0.35124E-02
 0.48200001E+02 -0.37591E-01
 0.48250000E+02 -0.87130E-01
 0.48299999E+02 -0.99149E-01
 0.48350002E+02 -0.82377E-01
 0.48400002E+02 -0.35413E-01
 0.48450001E+02  0.31549E-01
 0.48500000E+02  0.75726E-01
 0.48549999E+02  0.81465E-01
 0.48600002E+02  0.80791E-01
 0.48650002E+02  0.74611E-01
 0.48700001E+02  0.74218E-01
 0.48750000E+02  0.65090E-01
 0.48799999E+02  0.53189E-01
 0.48850002E+02  0.21858E-01
 0.48900002E+02 -0.44090E-01
 0.48950001E+02 -0.94903E-01
 0.49000000E+02 -0.11063E+00
 0.49049999E+02 -0.77667E-01
 0.49100002E+02 -0.20542E-01
 0.49150002E+02  0.71207E-02
 0.49200001E+02 -0.23557E-01
 0.49250000E+02 -0.61592E-01
 0.49299999E+02 -0.72199E-01
 0.49350002E+02 -0.63270E-01
 0.49400002E+02 -0.56354E-01
 0.49450001E+02 -0.16586E-01
 0.49500000E+02  0.23459E-01
 0.49549999E+02  0.17931E-01
 0.49600002E+02  0.34018E-01
 0.49650002E+02  0.31310E-01
 0.49700001E+02  0.23857E-01
 0.49750000E+02  0.25462E-01
 0.49799999E+02 -0.87056E-02
 0.49850002E+02 -0.37002E-01
 0.49900002E+02 -0.43550E-01
 0.49950001E+02 -0.73011E-01
 0.50000000E+02 -0.10165E+00
 0.50049999E+02 -0.95002E-01
 0.50100002E+02 -0.78616E-01
 0.50150002E+02 -0.51931E-01
 0.50200001E+02 -0.35681E-01
 0.50250000E+02 -0.37755E-01
 0.50299999E+02 -0.33447E-01
 0.50350002E+02  0.25713E-01
 0.50400002E+02  0.95904E-01
 0.50450001E+02  0.11517E+00
 0.50500000E+02  0.10792E+00
 0.50549999E+02  0.71806E-01
 0.50600002E+02  0.26911E-01
 0.50650002E+02  0.31277E-02
 0.50700001E+02  0.25789E-01
 0.50750000E+02  0.50985E-01
 0.50799999E+02  0.55354E-01
 0.50850002E+02  0.89711E-01
 0.50900002E+02  0.89610E-01
 0.50950001E+02  0.53387E-01
 0.51000000E+02  0.73044E-01
 0.51049999E+02  0.64904E-01
 0.51100002E+02 -0.61349E-02
 0.51150002E+02 -0.56589E-01
 0.51200001E+02 -0.67430E-01
 0.51250000E+02 -0.38950E-01
 0.51299999E+02 -0.25491E-01
 0.51350002E+02 -0.65565E-02
 0.51400002E+02 -0.80243E-03
 0.51450001E+02 -0.31191E-01
 0.51500000E+02 -0.48284E-01
 0.51549999E+02 -0.55001E-01
 0.51600002E+02 -0.39755E-01
 0.51650002E+02 -0.49486E-01
 0.51700001E+02 -0.66500E-01
 0.51750000E+02 -0.33105E-01
 0.51799999E+02  0.94955E-02
 0.51850002E+02  0.71590E-02
 0.51900002E+02 -0.25662E-01
 0.51950001E+02 -0.11348E-01
 0.52000000E+02  0.37232E-01
 0.52049999E+02  0.37274E-01
 0.52100002E+02  0.58668E-01
 0.52150002E+02  0.73986E-01
 0.52200001E+02  0.48973E-01
 0.52250000E+02  0.41979E-01
 0.52299999E+02  0.59941E-01
 0.52350002E+02  0.82035E-01
 0.52400002E+02  0.45493E-01
 0.52450001E+02  0.16637E-01
 0.52500000E+02  0.66614E-02
 0.52549999E+02  0.14703E-01
 0.52600002E+02  0.80000E-02
 0.52650002E+02 -0.25688E-01
 0.52700001E+02 -0.35735E-01
 0.52750000E+02 -0.15157E-01
 0.52799999E+02  0.31041E-02
 0.52850002E+02 -0.38309E-02
 0.52900002E+02 -0.19310E-01
 0.52950001E+02 -0.68760E-01
 0.53000000E+02 -0.10529E+00
 0.53049999E+02 -0.63922E-01
 0.53100002E+02 -0.28864E-01
 0.53150002E+02 -0.54303E-01
 0.53200001E+02 -0.38016E-01
 0.53250000E+02 -0.28646E-01
 0.53299999E+02 -0.15587E-01
 0.53350002E+02  0.11049E-01
 0.53400002E+02  0.14221E-01
 0.53450001E+02  0.16693E-01
 0.53500000E+02  0.33731E-01
 0.53549999E+02  0.46482E-01
 0.53600002E+02  0.28518E-01
 0.53650002E+02  0.29225E-02
 0.53700001E+02 -0.20037E-01
 0.53750000E+02 -0.12670E-01
 0.53799999E+02 -0.23732E-02
 0.53850002E+02 -0.15813E-01
 0.53900002E+02 -0.40860E-01
 0.53950001E+02 -0.55337E-01
 0.54000000E+02 -0.63905E-01
 0.54049999E+02 -0.53122E-01
 0.54100002E+02 -0.23452E-01
 0.54150002E+02  0.15358E-02
 0.54200001E+02  0.68844E-02
 0.54250000E+02  0.17781E-01
 0.54299999E+02  0.52016E-01
 0.54350002E+02  0.74841E-01
 0.54400002E+02  0.65874E-01
 0.54450001E+02  0.60118E-01
 0.54500000E+02  0.56351E-01
 0.54549999E+02  0.23350E-01
 0.54600002E+02 -0.27229E-01
 0.54650002E+02 -0.56893E-01
 0.54700001E+02 -0.49123E-01
 0.54750000E+02 -0.26735E-01
 0.54799999E+02 -0.18075E-02
 0.54850002E+02  0.11909E-01
 0.54900002E+02  0.43917E-01
 0.54950001E+02  0.48099E-01
 0.55000000E+02  0.23717E-01
 0.55049999E+02  0.90830E-02
 0.55100002E+02  0.33924E-02
 0.55150002E+02  0.14871E-01
 0.55200001E+02  0.16703E-01
 0.55250000E+02  0.19867E-01
 0.55299999E+02  0.13931E-01
 0.55350002E+02 -0.10732E-01
 0.55400002E+02 -0.33958E-01
 0.55450001E+02 -0.24236E-01
 0.55500000E+02  0.73750E-02
 0.55549999E+02  0.29019E-01
 0.55600002E+02  0.34528E-01
 0.55650002E+02  0.23289E-01
 0.55700001E+02  0.31921E-01
 0.55750000E+02  0.49211E-01
 0.55799999E+02  0.35275E-01
 0.55850002E+02  0.37628E-02
 0.55900002E+02 -0.14148E-03
 0.55950001E+02  0.41611E-02
 0.56000000E+02 -0.15574E-01
 0.56049999E+02 -0.28639E-01
 0.56100002E+02 -0.29109E-01
 0.56150002E+02 -0.18605E-01
 0.56200001E+02 -0.12115E-01
 0.56250000E+02 -0.11538E-01
 0.56299999E+02 -0.23518E-01
 0.56350002E+02 -0.40011E-01
 0.56400002E+02 -0.51865E-01
 0.56450001E+02 -0.34761E-01
 0.56500000E+02 -0.25143E-02
 0.56549999E+02 -0.72041E-02
 0.56600002E+02 -0.14711E-01
 0.56650002E+02 -0.56439E-02
 0.56700001E+02 -0.23224E-02
 0.56750000E+02 -0.19539E-01
 0.56799999E+02 -0.11695E-01
 0.56850002E+02  0.30904E-01
 0.56900002E+02  0.46879E-01
 0.56950001E+02  0.53482E-01
 0.57000000E+02  0.43522E-01
 0.57049999E+02  0.27145E-01
 0.57100002E+02  0.89798E-02
 0.57150002E+02 -0.41910E-01
 0.57200001E+02 -0.71340E-01
 0.57250000E+02 -0.85815E-01
 0.57299999E+02 -0.72282E-01
 0.57350002E+02 -0.47611E-01
 0.57400002E+02 -0.40469E-01
 0.57450001E+02 -0.27587E-01
 0.57500000E+02 -0.15294E-01
 0.57549999E+02 -0.99658E-04
 0.57600002E+02  0.25956E-01
 0.57650002E+02  0.25034E-01
 0.57700001E+02  0.29377E-01
 0.57750000E+02  0.47248E-01
 0.57799999E+02  0.41309E-01
 0.57850002E+02  0.28555E-01
 0.57900002E+02  0.28965E-02
 0.57950001E+02 -0.65554E-02
 0.58000000E+02 -0.16786E-01
 0.58049999E+02 -0.17555E-01
 0.58100002E+02  0.96194E-02
 0.58150002E+02  0.20388E-01
 0.58200001E+02  0.22516E-01
 0.58250000E+02  0.35858E-01
 0.58299999E+02  0.40475E-01
 0.58350002E+02  0.32478E-01
 0.58400002E+02  0.21702E-01
 0.58450001E+02  0.31501E-02
 0.58500000E+02 -0.95768E-02
 0.58549999E+02 -0.24004E-02
 0.58600002E+02  0.28542E-01
 0.58650002E+02  0.65193E-01
 0.58700001E+02  0.55749E-01
 0.58750000E+02  0.25842E-01
 0.58799999E+02  0.22165E-01
 0.58850002E+02  0.19489E-01
 0.58900002E+02  0.12000E-01
 0.58950001E+02 -0.99556E-02
 0.59000000E+02 -0.37526E-01
 0.59049999E+02 -0.33894E-01
 0.59100002E+02 -0.28616E-01
 0.59150002E+02 -0.28843E-01
 0.59200001E+02 -0.90547E-02
 0.59250000E+02  0.24716E-02
 0.59299999E+02 -0.13116E-01
 0.59350002E+02 -0.26830E-01
 0.59400002E+02 -0.43113E-01
 0.59450001E+02 -0.38133E-01
 0.59500000E+02 -0.12591E-01
 0.59549999E+02 -0.72500E-02
 0.59600002E+02  0.34759E-02
 0.59650002E+02  0.13686E-01
 0.59700001E+02  0.67301E-02
 0.59750000E+02 -0.33976E-02
 0.59799999E+02 -0.10547E-01
 0.59850002E+02 -0.18705E-01
 0.59900002E+02 -0.20942E-01
 0.59950001E+02 -0.21124E-01
 0.60000000E+02 -0.29849E-01
 0.60049999E+02 -0.27144E-01
 0.60100002E+02 -0.23707E-01
 0.60150002E+02 -0.29000E-01
 0.60200001E+02 -0.18921E-01
 0.60250000E+02 -0.67430E-02
 0.60299999E+02  0.53682E-02
 0.60350002E+02  0.59853E-02
 0.60400002E+02 -0.14428E-01
 0.60450001E+02 -0.23143E-01
 0.60500000E+02 -0.19770E-01
 0.60549999E+02 -0.10278E-01
 0.60600002E+02 -0.95216E-02
 0.60650002E+02 -0.26645E-01
 0.60700001E+02 -0.47162E-01
 0.60750000E+02 -0.51198E-01
 0.60799999E+02 -0.40161E-01
 0.60850002E+02 -0.24442E-01
 0.60900002E+02 -0.58822E-02
 0.60950001E+02  0.10185E-01
 0.61000000E+02  0.27569E-01
 0.61049999E+02  0.45269E-01
 0.61100002E+02  0.57042E-01
 0.61150002E+02  0.39758E-01
 0.61200001E+02  0.12080E-01
 0.61250000E+02  0.18427E-01
 0.61299999E+02  0.49440E-01
 0.61350002E+02  0.59241E-01
 0.61400002E+02  0.67238E-01
 0.61450001E+02  0.73927E-01
 0.61500000E+02  0.58422E-01
 0.61549999E+02  0.38185E-01
 0.61600002E+02  0.26739E-01
 0.61650002E+02  0.26260E-01
 0.61700001E+02  0.14963E-01
 0.61750000E+02  0.11568E-01
 0.61799999E+02 -0.11927E-01
 0.61850002E+02 -0.45800E-01
 0.61900002E+02 -0.70454E-01
 0.61950001E+02 -0.78165E-01
 0.62000000E+02 -0.64786E-01
 0.62049999E+02 -0.53155E-01
 0.62100002E+02 -0.44735E-01
 0.62150002E+02 -0.63270E-01
 0.62200001E+02 -0.64309E-01
 0.62250000E+02 -0.41634E-01
 0.62299999E+02 -0.33815E-01
 0.62350002E+02 -0.27552E-01
 0.62400002E+02 -0.28019E-01
 0.62450001E+02 -0.20213E-01
 0.62500000E+02  0.18208E-01
 0.62549999E+02  0.42918E-01
 0.62600002E+02  0.50681E-01
 0.62650002E+02  0.68836E-01
 0.62700001E+02  0.86438E-01
 0.62750000E+02  0.80628E-01
 0.62799999E+02  0.51723E-01
 0.62850002E+02  0.32200E-01
 0.62900002E+02  0.31226E-01
 0.62950001E+02  0.33065E-01
 0.63000000E+02  0.30708E-01
 0.63049999E+02  0.41025E-01
 0.63100002E+02  0.62822E-01
 0.63150002E+02  0.58419E-01
 0.63200001E+02  0.35711E-01
 0.63250000E+02  0.22844E-01
 0.63299999E+02  0.24766E-02
 0.63350002E+02 -0.11026E-01
 0.63400002E+02 -0.62084E-02
 0.63450001E+02 -0.23174E-01
 0.63500000E+02 -0.42390E-01
 0.63549999E+02 -0.48099E-01
 0.63600002E+02 -0.50000E-01
 0.63650002E+02 -0.50004E-01
 0.63700001E+02 -0.46510E-01
 0.63750000E+02 -0.37079E-01
 0.63799999E+02 -0.25126E-01
 0.63850002E+02 -0.24715E-01
 0.63900002E+02 -0.19554E-01
 0.63950001E+02 -0.32643E-02
 0.64000000E+02  0.88513E-02
 0.64050003E+02  0.18657E-01
 0.64099998E+02  0.14965E-01
 0.64150002E+02  0.80350E-02
 0.64200005E+02 -0.14085E-01
 0.64250000E+02 -0.28866E-01
 0.64300003E+02 -0.35998E-01
 0.64349998E+02 -0.26369E-01
 0.64400002E+02 -0.72825E-02
 0.64450005E+02 -0.90738E-02
 0.64500000E+02 -0.49197E-02
 0.64550003E+02 -0.31654E-02
 0.64599998E+02  0.71597E-02
 0.64650002E+02  0.12792E-01
 0.64700005E+02  0.12103E-01
 0.64750000E+02  0.25705E-01
 0.64800003E+02  0.40726E-01
 0.64849998E+02  0.67674E-01
 0.64900002E+02  0.78861E-01
 0.64950005E+02  0.76006E-01
 0.65000000E+02  0.71778E-01
 0.65050003E+02  0.61077E-01
 0.65099998E+02  0.49705E-01
 0.65150002E+02  0.34234E-01
 0.65200005E+02  0.10101E-01
 0.65250000E+02 -0.76667E-02
 0.65300003E+02 -0.14128E-01
 0.65349998E+02 -0.30252E-01
 0.65400002E+02 -0.38185E-01
 0.65450005E+02 -0.36259E-01
 0.65500000E+02 -0.16089E-01
 0.65550003E+02  0.11063E-02
 0.65599998E+02 -0.10362E-01
 0.65650002E+02 -0.18531E-01
 0.65700005E+02 -0.23108E-01
 0.65750000E+02 -0.33861E-01
 0.65800003E+02 -0.47995E-01
 0.65849998E+02 -0.42259E-01
 0.65900002E+02 -0.22020E-01
 0.65950005E+02 -0.17631E-01
 0.66000000E+02 -0.16315E-01
 0.66050003E+02 -0.18554E-01
 0.66099998E+02 -0.12033E-01
 0.66150002E+02 -0.35635E-02
 0.66200005E+02 -0.85803E-03
 0.66250000E+02  0.60654E-02
 0.66300003E+02  0.16661E-01
 0.66349998E+02  0.24284E-01
 0.66400002E+02  0.10828E-01
 0.66450005E+02 -0.53173E-02
 0.66500000E+02 -0.91934E-02
 0.66550003E+02 -0.12849E-01
 0.66599998E+02 -0.17589E-01
 0.66650002E+02 -0.58979E-02
 0.66700005E+02  0.57425E-02
 0.66750000E+02  0.20286E-01
 0.66800003E+02  0.31675E-01
 0.66849998E+02  0.24299E-01
 0.66900002E+02  0.20681E-01
 0.66950005E+02  0.19392E-01
 0.67000000E+02  0.14297E-01
 0.67050003E+02 -0.13952E-03
 0.67099998E+02 -0.88361E-02
 0.67150002E+02 -0.16804E-01
 0.67200005E+02 -0.19335E-01
 0.67250000E+02 -0.12988E-01
 0.67300003E+02 -0.80085E-02
 0.67349998E+02 -0.29823E-02
 0.67400002E+02 -0.24061E-02
 0.67450005E+02 -0.23123E-02
 0.67500000E+02 -0.41143E-02
 0.67550003E+02  0.65367E-02
 0.67599998E+02  0.14132E-01
 0.67650002E+02 -0.74630E-02
 0.67700005E+02 -0.33701E-01
 0.67750000E+02 -0.35771E-01
 0.67800003E+02 -0.25335E-01
 0.67849998E+02 -0.12220E-01
 0.67900002E+02  0.86294E-03
 0.67950005E+02  0.11522E-01
 0.68000000E+02  0.93474E-02
 0.68050003E+02 -0.14494E-02
 0.68099998E+02 -0.76136E-02
 0.68150002E+02 -0.16709E-01
 0.68200005E+02 -0.16950E-01
 0.68250000E+02 -0.11501E-01
 0.68300003E+02 -0.19720E-01
 0.68349998E+02 -0.28521E-01
 0.68400002E+02 -0.24964E-01
 0.68450005E+02 -0.17541E-01
 0.68500000E+02 -0.99898E-02
 0.68550003E+02  0.49220E-02
 0.68599998E+02  0.16130E-01
 0.68650002E+02  0.20295E-01
 0.68700005E+02  0.25690E-01
 0.68750000E+02  0.28837E-01
 0.68800003E+02  0.28173E-01
 0.68849998E+02  0.21622E-01
 0.68900002E+02  0.17662E-01
 0.68950005E+02  0.30656E-01
 0.69000000E+02  0.34495E-01
 0.69050003E+02  0.15006E-01
 0.69099998E+02  0.65381E-02
 0.69150002E+02  0.11144E-01
 0.69200005E+02  0.17135E-01
 0.69250000E+02  0.24828E-01
 0.69300003E+02  0.28658E-01
 0.69349998E+02  0.25552E-01
 0.69400002E+02  0.22291E-01
 0.69450005E+02  0.14600E-01
 0.69500000E+02 -0.40361E-02
 0.69550003E+02 -0.99333E-02
 0.69599998E+02 -0.51149E-02
 0.69650002E+02 -0.11490E-01
 0.69700005E+02 -0.28980E-01
 0.69750000E+02 -0.42066E-01
 0.69800003E+02 -0.32964E-01
 0.69849998E+02 -0.24335E-01
 0.69900002E+02 -0.15048E-01
 0.69950005E+02 -0.79543E-02
 0.70000000E+02  0.10945E-01
 0.70050003E+02  0.34753E-01
 0.70099998E+02  0.30462E-01
 0.70150002E+02  0.23965E-01
 0.70200005E+02  0.22763E-01
 0.70250000E+02  0.13289E-01
 0.70300003E+02 -0.11139E-01
 0.70349998E+02 -0.25042E-01
 0.70400002E+02 -0.32738E-01
 0.70450005E+02 -0.41412E-01
 0.70500000E+02 -0.42149E-01
 0.70550003E+02 -0.44009E-01
 0.70599998E+02 -0.38419E-01
 0.70650002E+02 -0.28266E-01
 0.70700005E+02 -0.26625E-01
 0.70750000E+02 -0.24407E-01
 0.70800003E+02 -0.18148E-01
 0.70849998E+02 -0.15732E-01
 0.70900002E+02 -0.13079E-01
 0.70950005E+02 -0.31593E-02
 0.71000000E+02  0.65919E-02
 0.71050003E+02  0.98324E-02
 0.71099998E+02  0.16695E-01
 0.71150002E+02  0.32407E-01
 0.71200005E+02  0.39429E-01
 0.71250000E+02  0.21014E-01
 0.71300003E+02  0.11096E-02
 0.71349998E+02  0.33916E-03
 0.71400002E+02  0.12184E-01
 0.71450005E+02  0.14447E-01
 0.71500000E+02  0.56510E-03
 0.71550003E+02 -0.22891E-01
 0.71599998E+02 -0.37112E-01
 0.71650002E+02 -0.28877E-01
 0.71700005E+02 -0.18861E-01
 0.71750000E+02 -0.19741E-01
 0.71800003E+02 -0.19977E-01
 0.71849998E+02 -0.14574E-01
 0.71900002E+02 -0.12762E-01
 0.71950005E+02 -0.11866E-01
 0.72000000E+02 -0.32304E-02
 0.72050003E+02  0.15942E-01
 0.72099998E+02  0.28189E-01
 0.72150002E+02  0.43203E-01
 0.72200005E+02  0.61985E-01
 0.72250000E+02  0.66167E-01
 0.72300003E+02  0.59680E-01
 0.72349998E+02  0.50463E-01
 0.72400002E+02  0.43985E-01
 0.72450005E+02  0.28404E-01
 0.72500000E+02  0.86764E-02
 0.72550003E+02 -0.90146E-02
 0.72599998E+02 -0.14896E-01
 0.72650002E+02 -0.82144E-02
 0.72700005E+02 -0.59444E-02
 0.72750000E+02 -0.29457E-02
 0.72800003E+02  0.28959E-02
 0.72849998E+02  0.15571E-01
 0.72900002E+02  0.22652E-01
 0.72950005E+02  0.16597E-01
 0.73000000E+02  0.98585E-02
 0.73050003E+02  0.16714E-02
 0.73099998E+02 -0.24568E-02
 0.73150002E+02 -0.38086E-02
 0.73200005E+02 -0.11983E-01
 0.73250000E+02 -0.11602E-01
 0.73300003E+02 -0.87590E-02
 0.73349998E+02 -0.15812E-01
 0.73400002E+02 -0.28918E-01
 0.73450005E+02 -0.40038E-01
 0.73500000E+02 -0.36692E-01
 0.73550003E+02 -0.28445E-01
 0.73599998E+02 -0.20240E-01
 0.73650002E+02 -0.20312E-01
 0.73700005E+02 -0.26966E-01
 0.73750000E+02 -0.19283E-01
 0.73800003E+02 -0.27979E-02
 0.73849998E+02  0.82469E-02
 0.73900002E+02  0.12664E-01
 0.73950005E+02  0.18494E-01
 0.74000000E+02  0.26948E-01
 0.74050003E+02  0.22676E-01
 0.74099998E+02  0.82088E-02
 0.74150002E+02  0.14934E-02
 0.74200005E+02  0.57135E-02
 0.74250000E+02  0.13486E-01
 0.74300003E+02  0.20730E-01
 0.74349998E+02  0.14971E-01
 0.74400002E+02  0.38457E-02
 0.74450005E+02 -0.35246E-02
 0.74500000E+02 -0.99907E-02
 0.74550003E+02 -0.11655E-01
 0.74599998E+02 -0.20737E-01
 0.74650002E+02 -0.20247E-01
 0.74700005E+02 -0.18827E-01
 0.74750000E+02 -0.20071E-01
 0.74800003E+02 -0.77839E-02
 0.74849998E+02  0.50493E-02
 0.74900002E+02  0.65859E-02
 0.74950005E+02 -0.29407E-02
 0.75000000E+02 -0.26926E-02
 0.75050003E+02  0.28723E-02
 0.75099998E+02  0.99534E-02
 0.75150002E+02  0.13080E-01
 0.75200005E+02  0.13270E-01
 0.75250000E+02  0.25021E-01
 0.75300003E+02  0.44730E-01
 0.75349998E+02  0.51969E-01
 0.75400002E+02  0.42976E-01
 0.75450005E+02  0.37329E-01
 0.75500000E+02  0.33344E-01
 0.75550003E+02  0.22120E-01
 0.75599998E+02  0.11823E-01
 0.75650002E+02  0.49520E-02
 0.75700005E+02  0.14675E-02
 0.75750000E+02 -0.32672E-02
 0.75800003E+02 -0.21577E-02
 0.75849998E+02  0.10108E-01
 0.75900002E+02  0.19734E-01
 0.75950005E+02  0.12009E-01
 0.76000000E+02 -0.69797E-02
 0.76050003E+02 -0.14687E-01
 0.76099998E+02 -0.19983E-01
 0.76150002E+02 -0.30448E-01
 0.76200005E+02 -0.46630E-01
 0.76250000E+02 -0.57030E-01
 0.76300003E+02 -0.51739E-01
 0.76349998E+02 -0.48852E-01
 0.76400002E+02 -0.49203E-01
 0.76450005E+02 -0.43603E-01
 0.76500000E+02 -0.27615E-01
 0.76550003E+02 -0.61052E-02
 0.76599998E+02 -0.57736E-03
 0.76650002E+02 -0.80849E-02
 0.76700005E+02 -0.14398E-01
 0.76750000E+02 -0.19033E-01
 0.76800003E+02 -0.18142E-01
 0.76849998E+02 -0.85514E-02
 0.76900002E+02 -0.24582E-02
 0.76950005E+02 -0.65002E-02
 0.77000000E+02 -0.12565E-01
 0.77050003E+02 -0.85371E-02
 0.77099998E+02  0.14463E-02
 0.77150002E+02  0.16839E-02
 0.77200005E+02 -0.68049E-03
 0.77250000E+02 -0.69793E-03
 0.77300003E+02 -0.35186E-02
 0.77349998E+02 -0.11879E-02
 0.77400002E+02  0.42135E-02
 0.77450005E+02 -0.29899E-02
 0.77500000E+02 -0.15064E-01
 0.77550003E+02 -0.15337E-01
 0.77599998E+02 -0.23819E-02
 0.77650002E+02  0.11555E-01
 0.77700005E+02  0.21720E-01
 0.77750000E+02  0.32262E-01
 0.77800003E+02  0.37151E-01
 0.77849998E+02  0.36637E-01
 0.77900002E+02  0.37358E-01
 0.77950005E+02  0.38778E-01
 0.78000000E+02  0.35089E-01
 0.78050003E+02  0.31761E-01
 0.78099998E+02  0.37280E-01
 0.78150002E+02  0.37239E-01
 0.78200005E+02  0.22084E-01
 0.78250000E+02  0.11987E-01
 0.78300003E+02  0.76086E-02
 0.78349998E+02  0.61990E-02
 0.78400002E+02  0.69828E-02
 0.78450005E+02 -0.70473E-03
 0.78500000E+02 -0.49125E-02
 0.78550003E+02 -0.97018E-02
 0.78599998E+02 -0.13354E-01
 0.78650002E+02 -0.10869E-01
 0.78700005E+02 -0.98010E-02
 0.78750000E+02 -0.49905E-02
 0.78800003E+02 -0.44740E-02
 0.78849998E+02 -0.12054E-01
 0.78900002E+02 -0.11188E-01
 0.78950005E+02 -0.22755E-02
 0.79000000E+02  0.40271E-02
 0.79050003E+02 -0.39013E-02
 0.79099998E+02 -0.10242E-01
 0.79150002E+02 -0.10274E-01
 0.79200005E+02 -0.19643E-01
 0.79250000E+02 -0.27433E-01
 0.79300003E+02 -0.27941E-01
 0.79349998E+02 -0.21326E-01
 0.79400002E+02 -0.16335E-01
 0.79450005E+02 -0.12580E-01
 0.79500000E+02 -0.11887E-01
 0.79550003E+02 -0.81915E-02
 0.79599998E+02 -0.40591E-02
 0.79650002E+02 -0.83758E-02
 0.79700005E+02 -0.19871E-01
 0.79750000E+02 -0.33757E-01
 0.79800003E+02 -0.32017E-01
 0.79849998E+02 -0.24678E-01
 0.79900002E+02 -0.11749E-01
 0.79950005E+02  0.63737E-02
 0.80000000E+02  0.12746E-01
 0.80050003E+02  0.90500E-02
 0.80099998E+02  0.82857E-02
 0.80150002E+02  0.94740E-02
 0.80200005E+02  0.67197E-02
 0.80250000E+02  0.71872E-02
 0.80300003E+02  0.71444E-02
 0.80349998E+02  0.48602E-02
 0.80400002E+02  0.42830E-02
 0.80450005E+02  0.70019E-02
 0.80500000E+02  0.12356E-01
 0.80550003E+02  0.15370E-01
 0.80599998E+02  0.12854E-01
 0.80650002E+02  0.10506E-01
 0.80700005E+02  0.12027E-01
 0.80750000E+02  0.15937E-01
 0.80800003E+02  0.24328E-01
 0.80849998E+02  0.28798E-01
 0.80900002E+02  0.28456E-01
 0.80950005E+02  0.25706E-01
 0.81000000E+02  0.21836E-01
 0.81050003E+02  0.18780E-01
 0.81099998E+02  0.16349E-01
 0.81150002E+02  0.18426E-01
 0.81200005E+02  0.16574E-01
 0.81250000E+02  0.77683E-02
 0.81300003E+02 -0.18739E-02
 0.81349998E+02 -0.59675E-02
 0.81400002E+02 -0.78207E-02
 0.81450005E+02 -0.12850E-01
 0.81500000E+02 -0.17501E-01
 0.81550003E+02 -0.18296E-01
 0.81599998E+02 -0.14282E-01
 0.81650002E+02 -0.11854E-01
 0.81700005E+02 -0.12115E-01
 0.81750000E+02 -0.11062E-01
 0.81800003E+02 -0.57437E-02
 0.81849998E+02 -0.44540E-03
 0.81900002E+02 -0.97584E-02
 0.81950005E+02 -0.23778E-01
 0.82000000E+02 -0.27521E-01
 0.82050003E+02 -0.27217E-01
 0.82099998E+02 -0.28348E-01
 0.82150002E+02 -0.29800E-01
 0.82200005E+02 -0.22604E-01
 0.82250000E+02 -0.99616E-02
 0.82300003E+02  0.35556E-02
 0.82349998E+02  0.12907E-01
 0.82400002E+02  0.15969E-01
 0.82450005E+02  0.18636E-01
 0.82500000E+02  0.20766E-01
 0.82550003E+02  0.24540E-01
 0.82599998E+02  0.23085E-01
 0.82650002E+02  0.18589E-01
 0.82700005E+02  0.19944E-01
 0.82750000E+02  0.22712E-01
 0.82800003E+02  0.15778E-01
 0.82849998E+02  0.28353E-02
 0.82900002E+02 -0.10810E-01
 0.82950005E+02 -0.22061E-01
 0.83000000E+02 -0.25398E-01
 0.83050003E+02 -0.20960E-01
 0.83099998E+02 -0.13548E-01
 0.83150002E+02 -0.10728E-01
 0.83200005E+02 -0.72695E-02
 0.83250000E+02 -0.62125E-02
 0.83300003E+02 -0.15036E-02
 0.83349998E+02  0.82468E-02
 0.83400002E+02  0.16673E-01
 0.83450005E+02  0.22955E-01
 0.83500000E+02  0.17475E-01
 0.83550003E+02  0.75520E-02
 0.83599998E+02  0.42101E-02
 0.83650002E+02  0.66621E-02
 0.83700005E+02  0.90930E-02
 0.83750000E+02  0.77388E-02
 0.83800003E+02  0.43696E-02
 0.83849998E+02  0.80127E-03
 0.83900002E+02  0.28423E-02
 0.83950005E+02  0.85079E-02
 0.84000000E+02  0.11782E-01
 0.84050003E+02  0.78166E-02
 0.84099998E+02  0.13461E-02
 0.84150002E+02 -0.21073E-02
 0.84200005E+02 -0.61747E-02
 0.84250000E+02 -0.13237E-01
 0.84300003E+02 -0.21095E-01
 0.84349998E+02 -0.20244E-01
 0.84400002E+02 -0.15829E-01
 0.84450005E+02 -0.15675E-01
 0.84500000E+02 -0.18699E-01
 0.84550003E+02 -0.16062E-01
 0.84599998E+02 -0.66012E-02
 0.84650002E+02  0.22341E-02
 0.84700005E+02  0.15367E-02
 0.84750000E+02 -0.52265E-02
 0.84800003E+02 -0.52051E-02
 0.84849998E+02 -0.38844E-02
 0.84900002E+02 -0.14607E-02
 0.84950005E+02  0.30020E-02
 0.85000000E+02  0.75389E-02
 0.85050003E+02  0.14326E-01
 0.85099998E+02  0.24862E-01
 0.85150002E+02  0.31174E-01
 0.85200005E+02  0.27914E-01
 0.85250000E+02  0.25140E-01
 0.85300003E+02  0.21998E-01
 0.85349998E+02  0.21568E-01
 0.85400002E+02  0.18745E-01
 0.85450005E+02  0.10607E-01
 0.85500000E+02  0.65655E-02
 0.85550003E+02  0.53226E-02
 0.85599998E+02  0.10177E-01
 0.85650002E+02  0.96961E-02
 0.85700005E+02  0.77340E-02
 0.85750000E+02  0.22748E-02
 0.85800003E+02 -0.82407E-02
 0.85849998E+02 -0.71445E-02
 0.85900002E+02 -0.51417E-02
 0.85950005E+02 -0.81841E-02
 0.86000000E+02 -0.15977E-01
 0.86050003E+02 -0.18211E-01
 0.86099998E+02 -0.14012E-01
 0.86150002E+02 -0.12199E-01
 0.86200005E+02 -0.11286E-01
 0.86250000E+02 -0.50201E-02
 0.86300003E+02  0.14528E-02
 0.86349998E+02  0.13611E-02
 0.86400002E+02 -0.35491E-02
 0.86450005E+02 -0.93688E-02
 0.86500000E+02 -0.85099E-02
 0.86550003E+02 -0.25801E-02
 0.86599998E+02 -0.10362E-03
 0.86650002E+02 -0.55024E-02
 0.86700005E+02 -0.98394E-02
 0.86750000E+02 -0.11148E-01
 0.86800003E+02 -0.91360E-02
 0.86849998E+02 -0.93753E-02
 0.86900002E+02 -0.10850E-01
 0.86950005E+02 -0.13428E-01
 0.87000000E+02 -0.18728E-01
 0.87050003E+02 -0.20321E-01
 0.87099998E+02 -0.17369E-01
 0.87150002E+02 -0.11559E-01
 0.87200005E+02 -0.11499E-01
 0.87250000E+02 -0.10783E-01
 0.87300003E+02 -0.59139E-02
 0.87349998E+02  0.25419E-02
 0.87400002E+02  0.12355E-01
 0.87450005E+02  0.12816E-01
 0.87500000E+02  0.12588E-01
 0.87550003E+02  0.13540E-01
 0.87599998E+02  0.11002E-01
 0.87650002E+02  0.10116E-01
 0.87700005E+02  0.12164E-01
 0.87750000E+02  0.16218E-01
 0.87800003E+02  0.17288E-01
 0.87849998E+02  0.16548E-01
 0.87900002E+02  0.16623E-01
 0.87950005E+02  0.22312E-01
 0.88000000E+02  0.33339E-01
 0.88050003E+02  0.36960E-01
 0.88099998E+02  0.31672E-01
 0.88150002E+02  0.27462E-01
 0.88200005E+02  0.22221E-01
 0.88250000E+02  0.14818E-01
 0.88300003E+02  0.12876E-01
 0.88349998E+02  0.83928E-02
 0.88400002E+02  0.23966E-02
 0.88450005E+02 -0.16353E-02
 0.88500000E+02 -0.46499E-02
 0.88550003E+02 -0.85305E-02
 0.88599998E+02 -0.15940E-01
 0.88650002E+02 -0.20793E-01
 0.88700005E+02 -0.25454E-01
 0.88750000E+02 -0.24742E-01
 0.88800003E+02 -0.23150E-01
 0.88849998E+02 -0.29392E-01
 0.88900002E+02 -0.31657E-01
 0.88950005E+02 -0.25664E-01
 0.89000000E+02 -0.18932E-01
 0.89050003E+02 -0.15882E-01
 0.89099998E+02 -0.13263E-01
 0.89150002E+02 -0.16352E-01
 0.89200005E+02 -0.22409E-01
 0.89250000E+02 -0.20920E-01
 0.89300003E+02 -0.17274E-01
 0.89349998E+02 -0.15403E-01
 0.89400002E+02 -0.15767E-01
 0.89450005E+02 -0.17721E-01
 0.89500000E+02 -0.13885E-01
 0.89550003E+02 -0.26084E-02
 0.89599998E+02  0.52200E-02
 0.89650002E+02  0.89699E-02
 0.89700005E+02  0.11307E-01
 0.89750000E+02  0.87219E-02
 0.89800003E+02  0.10083E-01
 0.89849998E+02  0.12175E-01
 0.89900002E+02  0.10090E-01
 0.89950005E+02  0.11062E-01
 0.90000000E+02  0.16667E-01
 0.90050003E+02  0.21190E-01
 0.90099998E+02  0.20461E-01
 0.90150002E+02  0.16494E-01
 0.90200005E+02  0.13889E-01
 0.90250000E+02  0.14053E-01
 0.90300003E+02  0.12006E-01
 0.90349998E+02  0.73450E-02
 0.90400002E+02  0.66986E-02
 0.90450005E+02  0.94160E-02
 0.90500000E+02  0.11093E-01
 0.90550003E+02  0.86018E-02
 0.90599998E+02  0.18520E-02
 0.90650002E+02 -0.13226E-02
 0.90700005E+02  0.26656E-02
 0.90750000E+02  0.10103E-01
 0.90800003E+02  0.12737E-01
 0.90849998E+02  0.10332E-01
 0.90900002E+02  0.47248E-02
 0.90950005E+02  0.30114E-02
 0.91000000E+02  0.60697E-02
 0.91050003E+02  0.89610E-02
 0.91099998E+02  0.92472E-02
 0.91150002E+02  0.45812E-02
 0.91200005E+02  0.91898E-04
 0.91250000E+02  0.15347E-02
 0.91300003E+02  0.12790E-02
 0.91349998E+02 -0.50028E-02
 0.91400002E+02 -0.93452E-02
 0.91450005E+02 -0.97759E-02
 0.91500000E+02 -0.64792E-02
 0.91550003E+02 -0.37393E-02
 0.91599998E+02 -0.17189E-02
 0.91650002E+02 -0.15709E-02
 0.91700005E+02 -0.31519E-02
 0.91750000E+02 -0.52382E-02
 0.91800003E+02 -0.11288E-01
 0.91849998E+02 -0.15079E-01
 0.91900002E+02 -0.14855E-01
 0.91950005E+02 -0.16074E-01
 0.92000000E+02 -0.17276E-01
 0.92050003E+02 -0.17157E-01
 0.92099998E+02 -0.16545E-01
 0.92150002E+02 -0.15026E-01
 0.92200005E+02 -0.92977E-02
 0.92250000E+02 -0.28624E-02
 0.92300003E+02  0.28649E-02
 0.92349998E+02  0.71308E-02
 0.92400002E+02  0.28295E-02
 0.92450005E+02 -0.26935E-02
 0.92500000E+02 -0.12015E-02
 0.92550003E+02  0.54694E-02
 0.92599998E+02  0.13541E-01
 0.92650002E+02  0.18102E-01
 0.92700005E+02  0.17005E-01
 0.92750000E+02  0.15402E-01
 0.92800003E+02  0.17379E-01
 0.92849998E+02  0.18636E-01
 0.92900002E+02  0.17171E-01
 0.92950005E+02  0.13490E-01
 0.93000000E+02  0.53871E-02
 0.93050003E+02 -0.54505E-02
 0.93099998E+02 -0.13448E-01
 0.93150002E+02 -0.18724E-01
 0.93200005E+02 -0.22339E-01
 0.93250000E+02 -0.20992E-01
 0.93300003E+02 -0.18522E-01
 0.93349998E+02 -0.18875E-01
 0.93400002E+02 -0.20686E-01
 0.93450005E+02 -0.19110E-01
 0.93500000E+02 -0.12528E-01
 0.93550003E+02 -0.61036E-02
 0.93599998E+02 -0.18239E-02
 0.93650002E+02  0.19955E-02
 0.93700005E+02  0.64234E-02
 0.93750000E+02  0.88246E-02
 0.93800003E+02  0.10969E-01
 0.93849998E+02  0.11207E-01
 0.93900002E+02  0.91106E-02
 0.93950005E+02  0.38092E-02
 0.94000000E+02 -0.56171E-02
 0.94050003E+02 -0.11203E-01
 0.94099998E+02 -0.12437E-01
 0.94150002E+02 -0.91684E-02
 0.94200005E+02 -0.18832E-02
 0.94250000E+02  0.20503E-02
 0.94300003E+02  0.45276E-02
 0.94349998E+02  0.10244E-01
 0.94400002E+02  0.13513E-01
 0.94450005E+02  0.12473E-01
 0.94500000E+02  0.10205E-01
 0.94550003E+02  0.10408E-01
 0.94599998E+02  0.93522E-02
 0.94650002E+02  0.71604E-02
 0.94700005E+02  0.67519E-02
 0.94750000E+02  0.65927E-02
 0.94800003E+02  0.10944E-01
 0.94849998E+02  0.15773E-01
 0.94900002E+02  0.21607E-01
 0.94950005E+02  0.24341E-01
 0.95000000E+02  0.19711E-01
 0.95050003E+02  0.12448E-01
 0.95099998E+02  0.29373E-02
 0.95150002E+02 -0.97880E-02
 0.95200005E+02 -0.19406E-01
 0.95250000E+02 -0.19930E-01
 0.95300003E+02 -0.19667E-01
 0.95349998E+02 -0.18302E-01
 0.95400002E+02 -0.10991E-01
 0.95450005E+02 -0.34430E-02
 0.95500000E+02 -0.47860E-03
 0.95550003E+02  0.23640E-02
 0.95599998E+02  0.51461E-02
 0.95650002E+02  0.52844E-02
 0.95700005E+02  0.54242E-02
 0.95750000E+02  0.58826E-02
 0.95800003E+02  0.54496E-02
 0.95849998E+02  0.18590E-02
 0.95900002E+02  0.22888E-02
 0.95950005E+02  0.47749E-02
 0.96000000E+02  0.63734E-02
 0.96050003E+02  0.74237E-02
 0.96099998E+02  0.32872E-03
 0.96150002E+02 -0.10148E-01
 0.96200005E+02 -0.18931E-01
 0.96250000E+02 -0.21691E-01
 0.96300003E+02 -0.19236E-01
 0.96349998E+02 -0.13688E-01
 0.96400002E+02 -0.65425E-02
 0.96450005E+02 -0.69028E-03
 0.96500000E+02 -0.58367E-03
 0.96550003E+02 -0.42430E-02
 0.96599998E+02 -0.49248E-02
 0.96650002E+02 -0.67601E-02
 0.96700005E+02 -0.87826E-02
 0.96750000E+02 -0.76993E-02
 0.96800003E+02 -0.59308E-02
 0.96849998E+02 -0.28229E-02
 0.96900002E+02  0.28765E-02
 0.96950005E+02  0.51576E-02
 0.97000000E+02  0.40055E-02
 0.97050003E+02  0.41998E-02
 0.97099998E+02  0.29834E-02
 0.97150002E+02  0.18221E-02
 0.97200005E+02  0.27796E-02
 0.97250000E+02  0.23752E-02
 0.97300003E+02  0.18058E-02
 0.97349998E+02  0.33975E-02
 0.97400002E+02  0.70469E-02
 0.97450005E+02  0.69215E-02
 0.97500000E+02  0.16614E-02
 0.97550003E+02 -0.42033E-02
 0.97599998E+02 -0.11439E-01
 0.97650002E+02 -0.15710E-01
 0.97700005E+02 -0.14205E-01
 0.97750000E+02 -0.10588E-01
 0.97800003E+02 -0.67061E-02
 0.97849998E+02 -0.19150E-02
 0.97900002E+02  0.18482E-02
 0.97950005E+02  0.60157E-02
 0.98000000E+02  0.85894E-02
 0.98050003E+02  0.10702E-01
 0.98099998E+02  0.14077E-01
 0.98150002E+02  0.13141E-01
 0.98200005E+02  0.10454E-01
 0.98250000E+02  0.10097E-01
 0.98300003E+02  0.11492E-01
 0.98349998E+02  0.98838E-02
 0.98400002E+02  0.10505E-01
 0.98450005E+02  0.15089E-01
 0.98500000E+02  0.15789E-01
 0.98550003E+02  0.93960E-02
 0.98599998E+02  0.18246E-02
 0.98650002E+02 -0.39519E-03
 0.98700005E+02 -0.89384E-03
 0.98750000E+02 -0.20448E-02
 0.98800003E+02 -0.49074E-02
 0.98849998E+02 -0.85017E-02
 0.98900002E+02 -0.11649E-01
 0.98950005E+02 -0.14958E-01
 0.99000000E+02 -0.17997E-01
 0.99050003E+02 -0.17352E-01
 0.99099998E+02 -0.14837E-01
 0.99150002E+02 -0.15594E-01
 0.99200005E+02 -0.15479E-01
 0.99250000E+02 -0.15754E-01
 0.99300003E+02 -0.18345E-01
 0.99349998E+02 -0.20730E-01
 0.99400002E+02 -0.16425E-01
 0.99450005E+02 -0.86616E-02
 0.99500000E+02 -0.30155E-02
 0.99550003E+02  0.32150E-02
 0.99599998E+02  0.60867E-02
 0.99650002E+02  0.56804E-02
 0.99700005E+02  0.56362E-02
 0.99750000E+02  0.71739E-02
 0.99800003E+02  0.94997E-02
 0.99849998E+02  0.11672E-01
 0.99900002E+02  0.13115E-01
 0.99950005E+02  0.16461E-01
 0.10000000E+03  0.22246E-01
 0.10005000E+03  0.28298E-01
 0.10010000E+03  0.31062E-01
 0.10015000E+03  0.31456E-01
 0.10020000E+03  0.30572E-01
 0.10025000E+03  0.25302E-01
 0.10030000E+03  0.16304E-01
 0.10035000E+03  0.95829E-02
 0.10040000E+03  0.50566E-02
 0.10045000E+03  0.51018E-03
 0.10050000E+03 -0.28552E-02
 0.10055000E+03 -0.84012E-02
 0.10060000E+03 -0.13316E-01
 0.10065000E+03 -0.15697E-01
 0.10070000E+03 -0.15581E-01
 0.10075000E+03 -0.15069E-01
 0.10080000E+03 -0.13380E-01
 0.10085000E+03 -0.10120E-01
 0.10090000E+03 -0.84955E-02
 0.10095000E+03 -0.85910E-02
 0.10100000E+03 -0.89771E-02
 0.10105000E+03 -0.93615E-02
 0.10110000E+03 -0.95161E-02
 0.10115000E+03 -0.69747E-02
 0.10120000E+03 -0.24847E-02
 0.10125000E+03  0.36702E-02
 0.10130000E+03  0.85681E-02
 0.10135000E+03  0.10999E-01
 0.10140000E+03  0.89581E-02
 0.10145000E+03  0.45330E-02
 0.10150000E+03  0.62564E-03
 0.10155000E+03 -0.39042E-02
 0.10160000E+03 -0.63412E-02
 0.10165000E+03 -0.51640E-02
 0.10170000E+03 -0.29721E-02
 0.10175000E+03  0.33411E-03
 0.10180000E+03  0.30262E-02
 0.10185000E+03  0.18981E-02
 0.10190000E+03  0.62267E-03
 0.10195000E+03 -0.31346E-02
 0.10200000E+03 -0.64513E-02
 0.10205000E+03 -0.54647E-02
 0.10210000E+03 -0.12957E-02
 0.10215000E+03  0.20416E-02
 0.10220000E+03  0.27519E-02
 0.10225000E+03  0.53618E-02
 0.10230000E+03  0.76039E-02
 0.10235000E+03  0.66888E-02
 0.10240000E+03  0.24903E-02
 0.10245000E+03 -0.10643E-02
 0.10250000E+03 -0.23463E-03
 0.10255000E+03  0.34314E-02
 0.10260000E+03  0.44139E-02
 0.10265000E+03  0.31261E-02
 0.10270000E+03  0.42058E-02
 0.10275000E+03  0.68806E-02
 0.10280000E+03  0.83648E-02
 0.10285000E+03  0.59665E-02
 0.10290000E+03  0.30111E-02
 0.10295000E+03  0.33181E-02
 0.10300000E+03  0.40172E-02
 0.10305000E+03  0.33799E-02
 0.10310000E+03 -0.92506E-03
 0.10315000E+03 -0.73598E-02
 0.10320000E+03 -0.12312E-01
 0.10325000E+03 -0.16107E-01
 0.10330000E+03 -0.17595E-01
 0.10335000E+03 -0.16008E-01
 0.10340000E+03 -0.12772E-01
 0.10345000E+03 -0.92040E-02
 0.10350000E+03 -0.52406E-02
 0.10355000E+03 -0.65296E-03
 0.10360000E+03  0.40612E-02
 0.10365000E+03  0.82930E-02
 0.10370000E+03  0.13562E-01
 0.10375000E+03  0.17081E-01
 0.10380000E+03  0.16199E-01
 0.10385000E+03  0.12715E-01
 0.10390000E+03  0.95816E-02
 0.10395000E+03  0.76950E-02
 0.10400000E+03  0.49837E-02
 0.10405000E+03  0.22405E-02
 0.10410000E+03 -0.69204E-03
 0.10415000E+03 -0.51121E-02
 0.10420000E+03 -0.86149E-02
 0.10425000E+03 -0.11727E-01
 0.10430000E+03 -0.14487E-01
 0.10435000E+03 -0.16464E-01
 0.10440000E+03 -0.17609E-01
 0.10445000E+03 -0.15417E-01
 0.10450000E+03 -0.96401E-02
 0.10455000E+03 -0.10818E-02
 0.10460000E+03  0.73749E-02
 0.10465000E+03  0.13143E-01
 0.10470000E+03  0.15840E-01
 0.10475000E+03  0.15141E-01
 0.10480000E+03  0.12502E-01
 0.10485000E+03  0.96540E-02
 0.10490000E+03  0.36116E-02
 0.10495000E+03 -0.16913E-02
 0.10500000E+03 -0.23908E-02
 0.10505000E+03 -0.26231E-02
 0.10510000E+03 -0.25961E-02
 0.10515000E+03 -0.20853E-02
 0.10520000E+03 -0.35031E-02
 0.10525000E+03 -0.67604E-02
 0.10530000E+03 -0.93821E-02
 0.10535000E+03 -0.84561E-02
 0.10540000E+03 -0.53378E-02
 0.10545000E+03 -0.18002E-02
 0.10550000E+03  0.20786E-02
 0.10555000E+03  0.34280E-02
 0.10560000E+03  0.32540E-02
 0.10565000E+03 -0.75926E-03
 0.10570000E+03 -0.75634E-02
 0.10575000E+03 -0.13249E-01
 0.10580000E+03 -0.16207E-01
 0.10585000E+03 -0.14198E-01
 0.10590000E+03 -0.81061E-02
 0.10595000E+03 -0.15716E-03
 0.10600000E+03  0.51056E-02
 0.10605000E+03  0.67684E-02
 0.10610000E+03  0.71492E-02
 0.10615000E+03  0.95810E-02
 0.10620000E+03  0.12611E-01
 0.10625000E+03  0.13352E-01
 0.10630000E+03  0.13890E-01
 0.10635000E+03  0.11870E-01
 0.10640000E+03  0.90897E-02
 0.10645000E+03  0.54009E-02
 0.10650000E+03  0.11079E-02
 0.10655000E+03 -0.20799E-02
 0.10660000E+03 -0.43958E-02
 0.10665000E+03 -0.49286E-02
 0.10670000E+03 -0.66152E-02
 0.10675000E+03 -0.56462E-02
 0.10680000E+03 -0.41671E-02
 0.10685000E+03 -0.31495E-02
 0.10690000E+03 -0.17887E-02
 0.10695000E+03 -0.30059E-02
 0.10700000E+03 -0.50045E-02
 0.10705000E+03 -0.42949E-02
 0.10710000E+03 -0.32768E-02
 0.10715000E+03 -0.43316E-02
 0.10720000E+03 -0.39889E-02
 0.10725000E+03 -0.25306E-02
 0.10730000E+03  0.52963E-03
 0.10735000E+03  0.40010E-02
 0.10740000E+03  0.75760E-02
 0.10745000E+03  0.10171E-01
 0.10750000E+03  0.12256E-01
 0.10755000E+03  0.12906E-01
 0.10760000E+03  0.11654E-01
 0.10765000E+03  0.13604E-01
 0.10770000E+03  0.14652E-01
 0.10775000E+03  0.11935E-01
 0.10780000E+03  0.87849E-02
 0.10785000E+03  0.76054E-02
 0.10790000E+03  0.64391E-02
 0.10795000E+03  0.55387E-02
 0.10800000E+03  0.58707E-02
 0.10805000E+03  0.65457E-02
 0.10810000E+03  0.82830E-02
 0.10815000E+03  0.71617E-02
 0.10820000E+03  0.44465E-02
 0.10825000E+03  0.19318E-02
 0.10830000E+03 -0.46009E-03
 0.10835000E+03 -0.16944E-02
 0.10840000E+03 -0.26859E-04
 0.10845000E+03  0.20283E-02
 0.10850000E+03  0.17754E-02
 0.10855000E+03  0.12949E-02
 0.10860000E+03  0.19619E-02
 0.10865000E+03  0.18605E-02
 0.10870000E+03 -0.10244E-04
 0.10875000E+03 -0.47162E-03
 0.10880000E+03 -0.12351E-02
 0.10885000E+03 -0.21303E-02
 0.10890000E+03 -0.38974E-02
 0.10895000E+03 -0.72083E-02
 0.10900000E+03 -0.10663E-01
 0.10905000E+03 -0.12162E-01
 0.10910000E+03 -0.11444E-01
 0.10915000E+03 -0.99826E-02
 0.10920000E+03 -0.72497E-02
 0.10925000E+03 -0.35417E-02
 0.10930000E+03 -0.77153E-03
 0.10935000E+03  0.95000E-03
 0.10940000E+03  0.17455E-02
 0.10945000E+03 -0.92059E-03
 0.10950000E+03 -0.56658E-02
 0.10955000E+03 -0.10650E-01
 0.10960000E+03 -0.13690E-01
 0.10965000E+03 -0.13207E-01
 0.10970000E+03 -0.10068E-01
 0.10975000E+03 -0.62717E-02
 0.10980000E+03 -0.33825E-02
 0.10985000E+03 -0.10459E-02
 0.10990000E+03 -0.16140E-02
 0.10995000E+03 -0.51600E-02
 0.11000000E+03 -0.81798E-02
 0.11005000E+03 -0.90680E-02
 0.11010000E+03 -0.99439E-02
 0.11015000E+03 -0.10058E-01
 0.11020000E+03 -0.78252E-02
 0.11025000E+03 -0.82381E-02
 0.11030000E+03 -0.11466E-01
 0.11035000E+03 -0.13885E-01
 0.11040000E+03 -0.13217E-01
 0.11045000E+03 -0.96989E-02
 0.11050000E+03 -0.68247E-02
 0.11055000E+03 -0.50666E-02
 0.11060000E+03 -0.27062E-02
 0.11065000E+03  0.10956E-02
 0.11070000E+03  0.59410E-02
 0.11075000E+03  0.11000E-01
 0.11080000E+03  0.14458E-01
 0.11085000E+03  0.15371E-01
 0.11090000E+03  0.14333E-01
 0.11095000E+03  0.14243E-01
 0.11100000E+03  0.15217E-01
 0.11105000E+03  0.14572E-01
 0.11110000E+03  0.12682E-01
 0.11115000E+03  0.11573E-01
 0.11120000E+03  0.11739E-01
 0.11125000E+03  0.10280E-01
 0.11130000E+03  0.59354E-02
 0.11135000E+03  0.21407E-03
 0.11140000E+03 -0.21784E-02
 0.11145000E+03 -0.19540E-02
 0.11150000E+03 -0.20448E-02
 0.11155000E+03 -0.27452E-02
 0.11160000E+03 -0.37743E-02
 0.11165000E+03 -0.48167E-02
 0.11170000E+03 -0.60652E-02
 0.11175000E+03 -0.64399E-02
 0.11180000E+03 -0.50776E-02
 0.11185000E+03 -0.23874E-02
 0.11190000E+03  0.37315E-03
 0.11195000E+03  0.35169E-02
 0.11200000E+03  0.76158E-02
 0.11205000E+03  0.10693E-01
 0.11210000E+03  0.10996E-01
 0.11215000E+03  0.10004E-01
 0.11220000E+03  0.81455E-02
 0.11225000E+03  0.67496E-02
 0.11230000E+03  0.46112E-02
 0.11235000E+03  0.16103E-02
 0.11240000E+03  0.50337E-03
 0.11245000E+03  0.61602E-03
 0.11250000E+03  0.21715E-02
 0.11255000E+03  0.42985E-02
 0.11260000E+03  0.47972E-02
 0.11265000E+03  0.44719E-02
 0.11270000E+03  0.40443E-02
 0.11275000E+03  0.29454E-02
 0.11280000E+03 -0.11365E-03
 0.11285000E+03 -0.33757E-02
 0.11290000E+03 -0.58313E-02
 0.11295000E+03 -0.97009E-02
 0.11300000E+03 -0.14207E-01
 0.11305000E+03 -0.18744E-01
 0.11310000E+03 -0.19950E-01
 0.11315000E+03 -0.17514E-01
 0.11320000E+03 -0.13678E-01
 0.11325000E+03 -0.95904E-02
 0.11330000E+03 -0.74117E-02
 0.11335000E+03 -0.46198E-02
 0.11340000E+03 -0.25297E-03
 0.11345000E+03  0.49775E-02
 0.11350000E+03  0.79580E-02
 0.11355000E+03  0.82557E-02
 0.11360000E+03  0.72513E-02
 0.11365000E+03  0.46219E-02
 0.11370000E+03  0.14123E-02
 0.11375000E+03 -0.10108E-02
 0.11380000E+03 -0.12780E-02
 0.11385000E+03 -0.16448E-03
 0.11390000E+03  0.11713E-02
 0.11395000E+03  0.41033E-03
 0.11400000E+03 -0.25390E-02
 0.11405000E+03 -0.63599E-02
 0.11410000E+03 -0.84343E-02
 0.11415000E+03 -0.86929E-02
 0.11420000E+03 -0.90793E-02
 0.11425000E+03 -0.89674E-02
 0.11430000E+03 -0.68489E-02
 0.11435000E+03 -0.23606E-02
 0.11440000E+03  0.10704E-02
 0.11445000E+03  0.27930E-02
 0.11450000E+03  0.29518E-02
 0.11455000E+03  0.17749E-02
 0.11460000E+03  0.20763E-02
 0.11465000E+03  0.36090E-02
 0.11470000E+03  0.49970E-02
 0.11475000E+03  0.60144E-02
 0.11480000E+03  0.81630E-02
 0.11485000E+03  0.10459E-01
 0.11490000E+03  0.11172E-01
 0.11495000E+03  0.10028E-01
 0.11500000E+03  0.69530E-02
 0.11505000E+03  0.41276E-02
 0.11510000E+03  0.21902E-02
 0.11515000E+03  0.65795E-03
 0.11520000E+03 -0.52510E-03
 0.11525000E+03 -0.10106E-03
 0.11530000E+03  0.94035E-03
 0.11535000E+03  0.48237E-03
 0.11540000E+03 -0.95383E-04
 0.11545000E+03 -0.10712E-02
 0.11550000E+03 -0.22720E-02
 0.11555000E+03 -0.27856E-02
 0.11560000E+03 -0.27020E-02
 0.11565000E+03 -0.21703E-02
 0.11570000E+03 -0.38818E-03
 0.11575000E+03  0.10239E-02
 0.11580000E+03  0.72252E-03
 0.11585000E+03  0.37293E-03
 0.11590000E+03 -0.44693E-03
 0.11595000E+03 -0.13995E-02
 0.11600000E+03 -0.13624E-02
 0.11605000E+03 -0.52952E-03
 0.11610000E+03  0.12120E-02
 0.11615000E+03  0.50177E-02
 0.11620000E+03  0.87885E-02
 0.11625000E+03  0.10267E-01
 0.11630000E+03  0.90371E-02
 0.11635000E+03  0.61950E-02
 0.11640000E+03  0.34009E-02
 0.11645000E+03  0.65259E-03
 0.11650000E+03 -0.17590E-02
 0.11655000E+03 -0.21398E-02
 0.11660000E+03 -0.51885E-05
 0.11665000E+03  0.13121E-02
 0.11670000E+03  0.15500E-02
 0.11675000E+03  0.74253E-03
 0.11680000E+03 -0.58127E-03
 0.11685000E+03 -0.67253E-03
 0.11690000E+03 -0.34465E-03
 0.11695000E+03  0.27160E-03
 0.11700000E+03  0.93441E-03
 0.11705000E+03  0.21160E-02
 0.11710000E+03  0.11735E-02
 0.11715000E+03 -0.15520E-02
 0.11720000E+03 -0.32347E-02
 0.11725000E+03 -0.43517E-02
 0.11730000E+03 -0.54318E-02
 0.11735000E+03 -0.69481E-02
 0.11740000E+03 -0.75925E-02
 0.11745000E+03 -0.77108E-02
 0.11750000E+03 -0.78963E-02
 0.11755000E+03 -0.70250E-02
 0.11760000E+03 -0.63070E-02
 0.11765000E+03 -0.59500E-02
 0.11770000E+03 -0.49615E-02
 0.11775000E+03 -0.34167E-02
 0.11780000E+03 -0.16968E-02
 0.11785000E+03 -0.89192E-03
 0.11790000E+03 -0.13091E-02
 0.11795000E+03 -0.23026E-02
 0.11800000E+03 -0.19970E-02
 0.11805000E+03 -0.18740E-03
 0.11810000E+03  0.17803E-02
 0.11815000E+03  0.27905E-02
 0.11820000E+03  0.34386E-02
 0.11825000E+03  0.38796E-02
 0.11830000E+03  0.43458E-02
 0.11835000E+03  0.54390E-02
 0.11840000E+03  0.48268E-02
 0.11845000E+03  0.37648E-02
 0.11850000E+03  0.42009E-02
 0.11855000E+03  0.57561E-02
 0.11860000E+03  0.79771E-02
 0.11865000E+03  0.10502E-01
 0.11870000E+03  0.11641E-01
 0.11875000E+03  0.10040E-01
 0.11880000E+03  0.65846E-02
 0.11885000E+03  0.31521E-02
 0.11890000E+03  0.60246E-03
 0.11895000E+03 -0.76459E-03
 0.11900000E+03 -0.87003E-03
 0.11905000E+03 -0.68193E-03
 0.11910000E+03 -0.96552E-03
 0.11915000E+03 -0.11820E-02
 0.11920000E+03 -0.35173E-03
 0.11925000E+03  0.15949E-02
 0.11930000E+03  0.37079E-02
 0.11935000E+03  0.52220E-02
 0.11940000E+03  0.54528E-02
 0.11945000E+03  0.43563E-02
 0.11950000E+03  0.24913E-02
 0.11955000E+03  0.49792E-03
 0.11960000E+03 -0.28391E-02
 0.11965000E+03 -0.65867E-02
 0.11970000E+03 -0.90719E-02
 0.11975000E+03 -0.12051E-01
 0.11980000E+03 -0.13773E-01
 0.11985000E+03 -0.14834E-01
 0.11990000E+03 -0.13142E-01
 0.11995000E+03 -0.14443E-01
 0.12000000E+03 -0.76346E-02
