 0.00000000E+00  0.36684E-03
 0.50000001E-01  0.66996E-03
 0.10000000E+00  0.60994E-03
 0.15000001E+00  0.66749E-03
 0.20000000E+00  0.68401E-03
 0.25000000E+00  0.73350E-03
 0.30000001E+00  0.75150E-03
 0.34999999E+00  0.79855E-03
 0.40000001E+00  0.84835E-03
 0.45000002E+00  0.84856E-03
 0.50000000E+00  0.86619E-03
 0.55000001E+00  0.86823E-03
 0.60000002E+00  0.87651E-03
 0.65000004E+00  0.87914E-03
 0.69999999E+00  0.83565E-03
 0.75000000E+00  0.82632E-03
 0.80000001E+00  0.78845E-03
 0.85000002E+00  0.74276E-03
 0.90000004E+00  0.71416E-03
 0.94999999E+00  0.66566E-03
 0.10000000E+01  0.63833E-03
 0.10500001E+01  0.60968E-03
 0.11000000E+01  0.56645E-03
 0.11500000E+01  0.52112E-03
 0.12000000E+01  0.48559E-03
 0.12500000E+01  0.43624E-03
 0.13000001E+01  0.35758E-03
 0.13500000E+01  0.28672E-03
 0.14000000E+01  0.22846E-03
 0.14500000E+01  0.14595E-03
 0.15000000E+01  0.85103E-04
 0.15500001E+01  0.20600E-05
 0.16000000E+01 -0.11135E-03
 0.16500000E+01 -0.21593E-03
 0.17000000E+01 -0.31514E-03
 0.17500000E+01 -0.39732E-03
 0.18000001E+01 -0.48416E-03
 0.18500000E+01 -0.55115E-03
 0.19000000E+01 -0.63480E-03
 0.19500000E+01 -0.71112E-03
 0.20000000E+01 -0.77761E-03
 0.20500000E+01 -0.83099E-03
 0.21000001E+01 -0.88009E-03
 0.21500001E+01 -0.94233E-03
 0.22000000E+01 -0.97304E-03
 0.22500000E+01 -0.10193E-02
 0.23000000E+01 -0.10301E-02
 0.23500001E+01 -0.10251E-02
 0.24000001E+01 -0.10183E-02
 0.24500000E+01 -0.98874E-03
 0.25000000E+01 -0.94532E-03
 0.25500000E+01 -0.89369E-03
 0.26000001E+01 -0.87199E-03
 0.26500001E+01 -0.82956E-03
 0.27000000E+01 -0.80057E-03
 0.27500000E+01 -0.78480E-03
 0.28000000E+01 -0.78222E-03
 0.28500001E+01 -0.74036E-03
 0.29000001E+01 -0.69099E-03
 0.29500000E+01 -0.66144E-03
 0.30000000E+01 -0.60152E-03
 0.30500000E+01 -0.55772E-03
 0.31000001E+01 -0.47338E-03
 0.31500001E+01 -0.38972E-03
 0.32000000E+01 -0.31423E-03
 0.32500000E+01 -0.22801E-03
 0.33000000E+01 -0.13282E-03
 0.33500001E+01 -0.18802E-04
 0.34000001E+01  0.93006E-04
 0.34500000E+01  0.20658E-03
 0.35000000E+01  0.30078E-03
 0.35500000E+01  0.37326E-03
 0.36000001E+01  0.46319E-03
 0.36500001E+01  0.55531E-03
 0.37000000E+01  0.65066E-03
 0.37500000E+01  0.73680E-03
 0.38000000E+01  0.80810E-03
 0.38500001E+01  0.88981E-03
 0.39000001E+01  0.92855E-03
 0.39500000E+01  0.98402E-03
 0.40000000E+01  0.10300E-02
 0.40500002E+01  0.10709E-02
 0.40999999E+01  0.11066E-02
 0.41500001E+01  0.11242E-02
 0.42000003E+01  0.11650E-02
 0.42500000E+01  0.11815E-02
 0.43000002E+01  0.12001E-02
 0.43499999E+01  0.11936E-02
 0.44000001E+01  0.12106E-02
 0.44500003E+01  0.12121E-02
 0.45000000E+01  0.11864E-02
 0.45500002E+01  0.11528E-02
 0.45999999E+01  0.10985E-02
 0.46500001E+01  0.10577E-02
 0.47000003E+01  0.99274E-03
 0.47500000E+01  0.90536E-03
 0.48000002E+01  0.81972E-03
 0.48499999E+01  0.73871E-03
 0.49000001E+01  0.62692E-03
 0.49500003E+01  0.51978E-03
 0.50000000E+01  0.41546E-03
 0.50500002E+01  0.32144E-03
 0.50999999E+01  0.23092E-03
 0.51500001E+01  0.14983E-03
 0.52000003E+01  0.82804E-04
 0.52500000E+01 -0.13716E-04
 0.53000002E+01 -0.10705E-03
 0.53499999E+01 -0.19694E-03
 0.54000001E+01 -0.28400E-03
 0.54500003E+01 -0.33903E-03
 0.55000000E+01 -0.37884E-03
 0.55500002E+01 -0.39996E-03
 0.55999999E+01 -0.44218E-03
 0.56500001E+01 -0.48803E-03
 0.57000003E+01 -0.50963E-03
 0.57500000E+01 -0.53580E-03
 0.58000002E+01 -0.54910E-03
 0.58499999E+01 -0.56898E-03
 0.59000001E+01 -0.57681E-03
 0.59500003E+01 -0.59854E-03
 0.60000000E+01 -0.60234E-03
 0.60500002E+01 -0.58984E-03
 0.60999999E+01 -0.59065E-03
 0.61500001E+01 -0.60577E-03
 0.62000003E+01 -0.63046E-03
 0.62500000E+01 -0.64126E-03
 0.63000002E+01 -0.66604E-03
 0.63499999E+01 -0.67547E-03
 0.64000001E+01 -0.71011E-03
 0.64500003E+01 -0.73318E-03
 0.65000000E+01 -0.74601E-03
 0.65500002E+01 -0.75286E-03
 0.65999999E+01 -0.72955E-03
 0.66500001E+01 -0.72393E-03
 0.67000003E+01 -0.66039E-03
 0.67500000E+01 -0.61866E-03
 0.68000002E+01 -0.60464E-03
 0.68499999E+01 -0.55665E-03
 0.69000001E+01 -0.50815E-03
 0.69500003E+01 -0.46484E-03
 0.70000000E+01 -0.41308E-03
 0.70500002E+01 -0.36225E-03
 0.70999999E+01 -0.31146E-03
 0.71500001E+01 -0.25095E-03
 0.72000003E+01 -0.18314E-03
 0.72500000E+01 -0.88270E-04
 0.73000002E+01 -0.26132E-05
 0.73499999E+01  0.59516E-04
 0.74000001E+01  0.11441E-03
 0.74500003E+01  0.18985E-03
 0.75000000E+01  0.26158E-03
 0.75500002E+01  0.34130E-03
 0.75999999E+01  0.42045E-03
 0.76500001E+01  0.46384E-03
 0.77000003E+01  0.53042E-03
 0.77500000E+01  0.59104E-03
 0.78000002E+01  0.67232E-03
 0.78499999E+01  0.71514E-03
 0.79000001E+01  0.74792E-03
 0.79500003E+01  0.81060E-03
 0.80000000E+01  0.82708E-03
 0.80500002E+01  0.86142E-03
 0.81000004E+01  0.88942E-03
 0.81500006E+01  0.91268E-03
 0.81999998E+01  0.93121E-03
 0.82500000E+01  0.93377E-03
 0.83000002E+01  0.94059E-03
 0.83500004E+01  0.92938E-03
 0.84000006E+01  0.91685E-03
 0.84499998E+01  0.91219E-03
 0.85000000E+01  0.86725E-03
 0.85500002E+01  0.85354E-03
 0.86000004E+01  0.82374E-03
 0.86500006E+01  0.78791E-03
 0.86999998E+01  0.76006E-03
 0.87500000E+01  0.70246E-03
 0.88000002E+01  0.66283E-03
 0.88500004E+01  0.61727E-03
 0.89000006E+01  0.56722E-03
 0.89499998E+01  0.51058E-03
 0.90000000E+01  0.44339E-03
 0.90500002E+01  0.35767E-03
 0.91000004E+01  0.30192E-03
 0.91500006E+01  0.22410E-03
 0.91999998E+01  0.14035E-03
 0.92500000E+01  0.65697E-04
 0.93000002E+01 -0.71018E-05
 0.93500004E+01 -0.64632E-04
 0.94000006E+01 -0.18408E-03
 0.94499998E+01 -0.27097E-03
 0.95000000E+01 -0.34013E-03
 0.95500002E+01 -0.42155E-03
 0.96000004E+01 -0.47495E-03
 0.96500006E+01 -0.51329E-03
 0.96999998E+01 -0.53596E-03
 0.97500000E+01 -0.58098E-03
 0.98000002E+01 -0.61513E-03
 0.98500004E+01 -0.65241E-03
 0.99000006E+01 -0.68928E-03
 0.99499998E+01 -0.70453E-03
 0.10000000E+02 -0.72862E-03
 0.10050000E+02 -0.76024E-03
 0.10100000E+02 -0.77490E-03
 0.10150001E+02 -0.76846E-03
 0.10200000E+02 -0.76910E-03
 0.10250000E+02 -0.76437E-03
 0.10300000E+02 -0.72875E-03
 0.10350000E+02 -0.69651E-03
 0.10400001E+02 -0.65538E-03
 0.10450000E+02 -0.62989E-03
 0.10500000E+02 -0.60238E-03
 0.10550000E+02 -0.55342E-03
 0.10600000E+02 -0.51979E-03
 0.10650001E+02 -0.46837E-03
 0.10700000E+02 -0.44331E-03
 0.10750000E+02 -0.40230E-03
 0.10800000E+02 -0.33707E-03
 0.10850000E+02 -0.29216E-03
 0.10900001E+02 -0.24770E-03
 0.10950000E+02 -0.22015E-03
 0.11000000E+02 -0.16958E-03
 0.11050000E+02 -0.12053E-03
 0.11100000E+02 -0.77272E-04
 0.11150001E+02 -0.29475E-04
 0.11200000E+02 -0.42517E-05
 0.11250000E+02  0.42720E-04
 0.11300000E+02  0.88794E-04
 0.11350000E+02  0.16487E-03
 0.11400001E+02  0.25256E-03
 0.11450000E+02  0.32272E-03
 0.11500000E+02  0.39242E-03
 0.11550000E+02  0.46423E-03
 0.11600000E+02  0.51793E-03
 0.11650001E+02  0.54335E-03
 0.11700000E+02  0.59358E-03
 0.11750000E+02  0.60857E-03
 0.11800000E+02  0.64404E-03
 0.11850000E+02  0.65763E-03
 0.11900001E+02  0.69796E-03
 0.11950000E+02  0.72094E-03
 0.12000000E+02  0.70359E-03
 0.12050000E+02  0.74587E-03
 0.12100000E+02  0.72408E-03
 0.12150001E+02  0.72695E-03
 0.12200000E+02  0.71634E-03
 0.12250000E+02  0.70613E-03
 0.12300000E+02  0.68331E-03
 0.12350000E+02  0.63904E-03
 0.12400001E+02  0.61240E-03
 0.12450000E+02  0.57082E-03
 0.12500000E+02  0.52820E-03
 0.12550000E+02  0.47210E-03
 0.12600000E+02  0.43710E-03
 0.12650001E+02  0.37769E-03
 0.12700000E+02  0.32810E-03
 0.12750000E+02  0.26780E-03
 0.12800000E+02  0.22109E-03
 0.12850000E+02  0.15934E-03
 0.12900001E+02  0.86306E-04
 0.12950000E+02  0.34765E-04
 0.13000000E+02  0.16017E-05
 0.13050000E+02 -0.16401E-04
 0.13100000E+02 -0.50475E-04
 0.13150001E+02 -0.60235E-04
 0.13200000E+02 -0.82829E-04
 0.13250000E+02 -0.89080E-04
 0.13300000E+02 -0.12491E-03
 0.13350000E+02 -0.14080E-03
 0.13400001E+02 -0.15288E-03
 0.13450000E+02 -0.17561E-03
 0.13500000E+02 -0.18892E-03
 0.13550000E+02 -0.22515E-03
 0.13600000E+02 -0.24585E-03
 0.13650001E+02 -0.26142E-03
 0.13700000E+02 -0.25277E-03
 0.13750000E+02 -0.24433E-03
 0.13800000E+02 -0.25561E-03
 0.13850000E+02 -0.25033E-03
 0.13900001E+02 -0.26834E-03
 0.13950000E+02 -0.22982E-03
 0.14000000E+02 -0.22136E-03
 0.14050000E+02 -0.21706E-03
 0.14100000E+02 -0.18685E-03
 0.14150001E+02 -0.21955E-03
 0.14200000E+02 -0.18922E-03
 0.14250000E+02 -0.19117E-03
 0.14300000E+02 -0.19218E-03
 0.14350000E+02 -0.20761E-03
 0.14400001E+02 -0.19326E-03
 0.14450000E+02 -0.16703E-03
 0.14500000E+02 -0.19203E-03
 0.14550000E+02 -0.18287E-03
 0.14600000E+02 -0.18956E-03
 0.14650001E+02 -0.20481E-03
 0.14700000E+02 -0.19493E-03
 0.14750000E+02 -0.18989E-03
 0.14800000E+02 -0.16875E-03
 0.14850000E+02 -0.16061E-03
 0.14900001E+02 -0.17632E-03
 0.14950000E+02 -0.16424E-03
 0.15000000E+02 -0.15317E-03
 0.15050000E+02 -0.14155E-03
 0.15100000E+02 -0.98940E-04
 0.15150001E+02 -0.75665E-04
 0.15200000E+02 -0.58334E-04
 0.15250000E+02  0.29376E-05
 0.15300000E+02  0.27336E-04
 0.15350000E+02  0.74553E-04
 0.15400001E+02  0.10700E-03
 0.15450000E+02  0.12783E-03
 0.15500000E+02  0.18959E-03
 0.15550000E+02  0.21283E-03
 0.15600000E+02  0.20459E-03
 0.15650001E+02  0.24711E-03
 0.15700000E+02  0.42664E-03
 0.15750000E+02  0.45466E-03
 0.15800000E+02  0.32722E-03
 0.15850000E+02  0.71152E-03
 0.15900001E+02  0.57077E-03
 0.15950000E+02  0.80855E-03
 0.16000000E+02  0.98434E-03
 0.16050001E+02  0.37055E-03
 0.16100000E+02 -0.11971E-03
 0.16150000E+02  0.29730E-03
 0.16200001E+02  0.10449E-02
 0.16250000E+02  0.12939E-02
 0.16300001E+02  0.75872E-03
 0.16350000E+02 -0.79537E-03
 0.16400000E+02 -0.73064E-03
 0.16450001E+02 -0.36901E-03
 0.16500000E+02  0.80054E-03
 0.16550001E+02 -0.11718E-02
 0.16600000E+02 -0.79404E-03
 0.16650000E+02 -0.95507E-02
 0.16700001E+02 -0.26693E-01
 0.16750000E+02 -0.40259E-01
 0.16800001E+02 -0.19192E-01
 0.16850000E+02 -0.21970E-01
 0.16900000E+02 -0.57858E-01
 0.16950001E+02 -0.17363E-01
 0.17000000E+02 -0.18184E-01
 0.17050001E+02  0.14978E-01
 0.17100000E+02  0.98517E-01
 0.17150000E+02  0.14198E-01
 0.17200001E+02 -0.12160E+00
 0.17250000E+02 -0.86467E-01
 0.17300001E+02  0.62574E-01
 0.17350000E+02  0.21197E+00
 0.17400000E+02  0.17643E+00
 0.17450001E+02 -0.66389E-01
 0.17500000E+02 -0.23107E+00
 0.17550001E+02 -0.16518E+00
 0.17600000E+02  0.49074E-03
 0.17650000E+02  0.71869E-01
 0.17700001E+02  0.15779E+00
 0.17750000E+02  0.83823E-01
 0.17800001E+02  0.16031E-02
 0.17850000E+02  0.20680E-01
 0.17900000E+02 -0.61000E-01
 0.17950001E+02 -0.29674E-01
 0.18000000E+02 -0.55119E-01
 0.18050001E+02 -0.10189E+00
 0.18100000E+02 -0.58823E-01
 0.18150000E+02 -0.76067E-02
 0.18200001E+02  0.98194E-01
 0.18250000E+02  0.12635E+00
 0.18300001E+02  0.15492E-01
 0.18350000E+02 -0.74604E-01
 0.18400000E+02 -0.10536E+00
 0.18450001E+02 -0.68662E-01
 0.18500000E+02 -0.21783E-01
 0.18550001E+02  0.31400E-01
 0.18600000E+02  0.74104E-01
 0.18650000E+02 -0.19500E-01
 0.18700001E+02  0.51564E-01
 0.18750000E+02  0.94446E-01
 0.18800001E+02  0.50246E-01
 0.18850000E+02  0.59631E-01
 0.18900000E+02 -0.64430E-01
 0.18950001E+02 -0.97680E-01
 0.19000000E+02  0.22792E-01
 0.19050001E+02  0.12890E+00
 0.19100000E+02  0.14704E+00
 0.19150000E+02  0.29876E-01
 0.19200001E+02 -0.70006E-01
 0.19250000E+02 -0.95099E-01
 0.19300001E+02 -0.43451E-01
 0.19350000E+02 -0.35703E-01
 0.19400000E+02 -0.18316E+00
 0.19450001E+02 -0.15708E+00
 0.19500000E+02 -0.37596E-01
 0.19550001E+02  0.12342E+00
 0.19600000E+02  0.14605E+00
 0.19650000E+02 -0.14734E-01
 0.19700001E+02 -0.10726E+00
 0.19750000E+02 -0.61980E-01
 0.19800001E+02 -0.20617E-01
 0.19850000E+02 -0.25071E-01
 0.19900000E+02  0.15429E+00
 0.19950001E+02  0.97704E-01
 0.20000000E+02  0.41154E-01
 0.20050001E+02  0.39193E-01
 0.20100000E+02 -0.14366E-01
 0.20150000E+02 -0.85570E-02
 0.20200001E+02  0.10483E+00
 0.20250000E+02  0.18310E+00
 0.20300001E+02 -0.23312E-01
 0.20350000E+02 -0.68023E-01
 0.20400000E+02 -0.31448E-01
 0.20450001E+02 -0.24195E-01
 0.20500000E+02 -0.24997E-01
 0.20550001E+02 -0.60997E-01
 0.20600000E+02 -0.12352E+00
 0.20650000E+02  0.16424E+00
 0.20700001E+02  0.29274E+00
 0.20750000E+02  0.39639E-01
 0.20800001E+02 -0.30528E-01
 0.20850000E+02 -0.19974E+00
 0.20900000E+02 -0.13082E+00
 0.20950001E+02 -0.13916E-01
 0.21000000E+02 -0.64137E-01
 0.21050001E+02  0.20103E-01
 0.21100000E+02  0.17110E-01
 0.21150000E+02  0.44761E-01
 0.21200001E+02  0.14349E+00
 0.21250000E+02  0.13411E+00
 0.21300001E+02 -0.33143E-01
 0.21350000E+02 -0.55338E-01
 0.21400000E+02 -0.80331E-01
 0.21450001E+02 -0.24389E+00
 0.21500000E+02 -0.30518E-01
 0.21550001E+02  0.13704E+00
 0.21600000E+02  0.14743E+00
 0.21650000E+02  0.22744E+00
 0.21700001E+02  0.83552E-01
 0.21750000E+02 -0.97691E-01
 0.21800001E+02 -0.16355E+00
 0.21850000E+02 -0.19329E+00
 0.21900000E+02 -0.10222E+00
 0.21950001E+02  0.81280E-01
 0.22000000E+02  0.18574E+00
 0.22050001E+02  0.94901E-01
 0.22100000E+02  0.23506E-01
 0.22150000E+02  0.15053E-01
 0.22200001E+02 -0.11464E+00
 0.22250000E+02 -0.40692E-01
 0.22300001E+02 -0.62074E-01
 0.22350000E+02 -0.70655E-01
 0.22400000E+02  0.30982E-01
 0.22450001E+02  0.56888E-01
 0.22500000E+02  0.76281E-01
 0.22550001E+02  0.20596E-01
 0.22600000E+02 -0.19109E-01
 0.22650000E+02 -0.35690E-01
 0.22700001E+02  0.44932E-01
 0.22750000E+02 -0.34451E-02
 0.22800001E+02 -0.76776E-01
 0.22850000E+02 -0.11083E+00
 0.22900000E+02 -0.49539E-01
 0.22950001E+02  0.10068E+00
 0.23000000E+02  0.94669E-01
 0.23050001E+02  0.49210E-01
 0.23100000E+02  0.15215E+00
 0.23150000E+02  0.56661E-01
 0.23200001E+02 -0.17492E+00
 0.23250000E+02 -0.22913E+00
 0.23300001E+02 -0.18917E+00
 0.23350000E+02  0.24203E-01
 0.23400000E+02  0.18280E+00
 0.23450001E+02  0.72060E-01
 0.23500000E+02  0.22685E-01
 0.23550001E+02  0.57106E-01
 0.23600000E+02  0.68699E-01
 0.23650000E+02 -0.18574E-01
 0.23700001E+02 -0.13534E+00
 0.23750000E+02 -0.85297E-01
 0.23800001E+02  0.53649E-02
 0.23850000E+02  0.86590E-01
 0.23900000E+02  0.12125E+00
 0.23950001E+02  0.72236E-01
 0.24000000E+02  0.58157E-01
 0.24050001E+02  0.91313E-01
 0.24100000E+02  0.95475E-02
 0.24150000E+02 -0.20497E-01
 0.24200001E+02 -0.39002E-01
 0.24250000E+02 -0.59793E-01
 0.24300001E+02 -0.34219E-01
 0.24350000E+02 -0.59174E-01
 0.24400000E+02 -0.11029E-01
 0.24450001E+02  0.74407E-01
 0.24500000E+02  0.20506E+00
 0.24550001E+02  0.19661E+00
 0.24600000E+02  0.31395E-01
 0.24650000E+02 -0.96912E-01
 0.24700001E+02 -0.16705E+00
 0.24750000E+02 -0.79328E-01
 0.24800001E+02 -0.16866E-01
 0.24850000E+02 -0.57984E-01
 0.24900000E+02 -0.25200E-01
 0.24950001E+02  0.14320E-01
 0.25000000E+02  0.27427E-01
 0.25050001E+02  0.43852E-01
 0.25100000E+02  0.31863E-01
 0.25150000E+02 -0.42928E-02
 0.25200001E+02 -0.57696E-01
 0.25250000E+02  0.46597E-01
 0.25300001E+02  0.81773E-01
 0.25350000E+02 -0.49664E-01
 0.25400000E+02  0.26567E-01
 0.25450001E+02  0.63633E-01
 0.25500000E+02  0.11004E-02
 0.25550001E+02  0.51441E-01
 0.25600000E+02  0.94961E-01
 0.25650000E+02  0.97811E-01
 0.25700001E+02  0.21875E-01
 0.25750000E+02 -0.10828E-02
 0.25800001E+02 -0.24792E-01
 0.25850000E+02 -0.12266E+00
 0.25900000E+02 -0.96064E-01
 0.25950001E+02  0.18727E-01
 0.26000000E+02  0.46113E-01
 0.26050001E+02 -0.66082E-01
 0.26100000E+02 -0.21020E+00
 0.26150000E+02 -0.14486E+00
 0.26200001E+02  0.70658E-01
 0.26250000E+02  0.98496E-01
 0.26300001E+02  0.72194E-02
 0.26350000E+02 -0.23097E-01
 0.26400000E+02 -0.20471E-01
 0.26450001E+02  0.35275E-01
 0.26500000E+02  0.71333E-01
 0.26550001E+02  0.86674E-01
 0.26600000E+02  0.10629E+00
 0.26650000E+02  0.22693E-01
 0.26700001E+02 -0.10372E+00
 0.26750000E+02 -0.39340E-01
 0.26800001E+02  0.12654E-01
 0.26850000E+02 -0.48075E-01
 0.26900000E+02 -0.14809E+00
 0.26950001E+02 -0.26727E+00
 0.27000000E+02 -0.18176E+00
 0.27050001E+02  0.78450E-01
 0.27100000E+02  0.25929E+00
 0.27150000E+02  0.25418E+00
 0.27200001E+02  0.10477E+00
 0.27250000E+02 -0.11743E+00
 0.27300001E+02 -0.92945E-01
 0.27350000E+02 -0.13419E-01
 0.27400000E+02 -0.51405E-01
 0.27450001E+02 -0.10019E-02
 0.27500000E+02 -0.76933E-02
 0.27550001E+02 -0.12885E+00
 0.27600000E+02 -0.15101E+00
 0.27650000E+02 -0.63515E-01
 0.27700001E+02  0.65227E-01
 0.27750000E+02  0.14850E+00
 0.27800001E+02  0.39402E-01
 0.27850000E+02 -0.11214E+00
 0.27900000E+02 -0.27808E-01
 0.27950001E+02  0.15832E+00
 0.28000000E+02  0.27109E+00
 0.28050001E+02  0.78282E-01
 0.28100000E+02 -0.11772E+00
 0.28150000E+02 -0.18572E+00
 0.28200001E+02 -0.25448E+00
 0.28250000E+02 -0.80830E-01
 0.28300001E+02 -0.39009E-01
 0.28350000E+02 -0.60801E-02
 0.28400000E+02  0.59874E-01
 0.28450001E+02  0.30685E-01
 0.28500000E+02 -0.70777E-02
 0.28550001E+02 -0.11912E+00
 0.28600000E+02 -0.18756E+00
 0.28650000E+02 -0.26558E+00
 0.28700001E+02 -0.32390E+00
 0.28750000E+02 -0.24783E+00
 0.28800001E+02  0.10855E+00
 0.28850000E+02  0.53621E+00
 0.28900000E+02  0.51414E+00
 0.28950001E+02  0.35814E+00
 0.29000000E+02  0.44509E+00
 0.29050001E+02  0.11650E+00
 0.29100000E+02 -0.64444E+00
 0.29150000E+02 -0.88718E+00
 0.29200001E+02 -0.31405E+00
 0.29250000E+02  0.39722E+00
 0.29300001E+02  0.65270E+00
 0.29350000E+02  0.67606E+00
 0.29400000E+02  0.36783E+00
 0.29450001E+02 -0.27059E+00
 0.29500000E+02 -0.73139E+00
 0.29550001E+02 -0.27816E+00
 0.29600000E+02  0.38031E+00
 0.29650000E+02  0.12463E+00
 0.29700001E+02 -0.19309E+00
 0.29750000E+02 -0.35730E-01
 0.29800001E+02  0.21164E+00
 0.29850000E+02 -0.36084E-01
 0.29900000E+02 -0.50112E+00
 0.29950001E+02 -0.72034E+00
 0.30000000E+02 -0.57407E+00
 0.30050001E+02 -0.23987E-01
 0.30100000E+02  0.39345E+00
 0.30150000E+02  0.40643E+00
 0.30200001E+02  0.10062E+00
 0.30250000E+02 -0.24654E+00
 0.30300001E+02 -0.18171E+00
 0.30350000E+02  0.20894E+00
 0.30400000E+02  0.47643E+00
 0.30450001E+02  0.41443E+00
 0.30500000E+02  0.18250E+00
 0.30550001E+02  0.99288E-01
 0.30600000E+02 -0.48271E-01
 0.30650000E+02  0.13324E-01
 0.30700001E+02  0.14230E+00
 0.30750000E+02  0.19363E+00
 0.30800001E+02  0.20163E+00
 0.30850000E+02  0.26052E+00
 0.30900000E+02  0.34519E+00
 0.30950001E+02  0.12863E-01
 0.31000000E+02 -0.52681E+00
 0.31050001E+02 -0.97720E+00
 0.31100000E+02 -0.98396E+00
 0.31150000E+02 -0.51207E+00
 0.31200001E+02  0.42382E+00
 0.31250000E+02  0.10000E+01
 0.31300001E+02  0.67839E+00
 0.31350000E+02 -0.10640E+00
 0.31400000E+02 -0.60068E+00
 0.31450001E+02 -0.54090E+00
 0.31500000E+02 -0.41466E+00
 0.31550001E+02 -0.80075E-01
 0.31600000E+02  0.48902E+00
 0.31650000E+02  0.86651E+00
 0.31700001E+02  0.60107E+00
 0.31750000E+02  0.57248E-02
 0.31800001E+02 -0.32154E+00
 0.31850000E+02 -0.16295E+00
 0.31900000E+02 -0.12012E+00
 0.31950001E+02 -0.45589E+00
 0.32000000E+02 -0.28367E+00
 0.32049999E+02  0.16564E+00
 0.32100002E+02  0.20553E+00
 0.32150002E+02  0.11939E+00
 0.32200001E+02  0.28429E+00
 0.32250000E+02  0.75745E-01
 0.32299999E+02 -0.29377E+00
 0.32350002E+02 -0.40131E+00
 0.32400002E+02 -0.39050E+00
 0.32450001E+02 -0.11753E-01
 0.32500000E+02  0.37871E+00
 0.32549999E+02  0.38625E+00
 0.32600002E+02  0.76959E-01
 0.32650002E+02 -0.20085E+00
 0.32700001E+02 -0.16506E+00
 0.32750000E+02 -0.81063E-01
 0.32799999E+02 -0.23340E+00
 0.32850002E+02 -0.15807E+00
 0.32900002E+02  0.20558E+00
 0.32950001E+02  0.28105E+00
 0.33000000E+02  0.16435E+00
 0.33049999E+02 -0.35226E-01
 0.33100002E+02 -0.28007E+00
 0.33150002E+02 -0.26183E+00
 0.33200001E+02  0.22735E-02
 0.33250000E+02  0.32726E+00
 0.33299999E+02  0.47736E+00
 0.33350002E+02  0.12831E+00
 0.33400002E+02 -0.10803E+00
 0.33450001E+02  0.75695E-01
 0.33500000E+02 -0.16739E-03
 0.33549999E+02 -0.41152E+00
 0.33600002E+02 -0.49367E+00
 0.33650002E+02 -0.15108E-01
 0.33700001E+02  0.35104E+00
 0.33750000E+02  0.22245E+00
 0.33799999E+02 -0.33179E-01
 0.33850002E+02 -0.16341E+00
 0.33900002E+02 -0.32229E+00
 0.33950001E+02 -0.34517E+00
 0.34000000E+02 -0.10466E+00
 0.34049999E+02  0.26010E+00
 0.34100002E+02  0.20170E+00
 0.34150002E+02  0.61270E-02
 0.34200001E+02  0.14688E+00
 0.34250000E+02  0.30823E+00
 0.34299999E+02  0.37119E+00
 0.34350002E+02  0.22691E+00
 0.34400002E+02 -0.69495E-01
 0.34450001E+02 -0.24044E+00
 0.34500000E+02 -0.16480E+00
 0.34549999E+02 -0.11027E+00
 0.34600002E+02 -0.17873E+00
 0.34650002E+02 -0.14812E+00
 0.34700001E+02 -0.44531E-01
 0.34750000E+02  0.14273E+00
 0.34799999E+02  0.24423E+00
 0.34850002E+02  0.12338E+00
 0.34900002E+02 -0.53140E-02
 0.34950001E+02 -0.20634E+00
 0.35000000E+02 -0.32706E+00
 0.35049999E+02 -0.30270E+00
 0.35100002E+02 -0.15301E+00
 0.35150002E+02  0.20969E+00
 0.35200001E+02  0.48856E+00
 0.35250000E+02  0.33199E+00
 0.35299999E+02 -0.77715E-01
 0.35350002E+02 -0.26801E+00
 0.35400002E+02 -0.20408E+00
 0.35450001E+02  0.54637E-01
 0.35500000E+02  0.44940E+00
 0.35549999E+02  0.71960E+00
 0.35600002E+02  0.58620E+00
 0.35650002E+02  0.14450E+00
 0.35700001E+02 -0.18987E+00
 0.35750000E+02 -0.19811E+00
 0.35799999E+02 -0.13757E+00
 0.35850002E+02 -0.12608E+00
 0.35900002E+02 -0.69871E-01
 0.35950001E+02 -0.17318E-01
 0.36000000E+02  0.10395E+00
 0.36049999E+02  0.23247E+00
 0.36100002E+02  0.25129E+00
 0.36150002E+02  0.11120E+00
 0.36200001E+02 -0.15010E+00
 0.36250000E+02 -0.36212E+00
 0.36299999E+02 -0.34211E+00
 0.36350002E+02 -0.13828E+00
 0.36400002E+02  0.70858E-01
 0.36450001E+02  0.93162E-01
 0.36500000E+02  0.38659E-01
 0.36549999E+02 -0.29084E-02
 0.36600002E+02 -0.73515E-02
 0.36650002E+02  0.10941E+00
 0.36700001E+02  0.19716E+00
 0.36750000E+02  0.18594E+00
 0.36799999E+02  0.11817E+00
 0.36850002E+02 -0.75806E-02
 0.36900002E+02 -0.16824E+00
 0.36950001E+02 -0.24469E+00
 0.37000000E+02 -0.19519E+00
 0.37049999E+02 -0.18238E+00
 0.37100002E+02 -0.14421E+00
 0.37150002E+02  0.14837E-01
 0.37200001E+02  0.94147E-01
 0.37250000E+02  0.14024E+00
 0.37299999E+02  0.91645E-01
 0.37350002E+02 -0.37038E-01
 0.37400002E+02 -0.13132E+00
 0.37450001E+02 -0.16925E+00
 0.37500000E+02 -0.13672E+00
 0.37549999E+02 -0.12364E+00
 0.37600002E+02 -0.13239E+00
 0.37650002E+02 -0.62320E-01
 0.37700001E+02  0.25090E-01
 0.37750000E+02  0.10029E+00
 0.37799999E+02  0.13827E+00
 0.37850002E+02  0.11242E+00
 0.37900002E+02  0.13667E+00
 0.37950001E+02  0.11444E+00
 0.38000000E+02 -0.49417E-02
 0.38049999E+02 -0.10808E+00
 0.38100002E+02 -0.12014E+00
 0.38150002E+02 -0.98872E-01
 0.38200001E+02 -0.94956E-01
 0.38250000E+02 -0.13952E+00
 0.38299999E+02 -0.18237E+00
 0.38350002E+02 -0.17076E+00
 0.38400002E+02 -0.23851E-01
 0.38450001E+02  0.13156E+00
 0.38500000E+02  0.13896E+00
 0.38549999E+02  0.10745E+00
 0.38600002E+02  0.72939E-01
 0.38650002E+02  0.21090E-01
 0.38700001E+02  0.98912E-02
 0.38750000E+02  0.23086E-01
 0.38799999E+02 -0.54693E-02
 0.38850002E+02 -0.51349E-02
 0.38900002E+02  0.19267E-01
 0.38950001E+02  0.19006E-01
 0.39000000E+02 -0.33630E-01
 0.39049999E+02 -0.84347E-01
 0.39100002E+02 -0.18531E-01
 0.39150002E+02  0.89059E-01
 0.39200001E+02  0.10302E+00
 0.39250000E+02  0.75767E-01
 0.39299999E+02  0.29746E-01
 0.39350002E+02  0.37873E-02
 0.39400002E+02  0.66832E-01
 0.39450001E+02  0.11145E+00
 0.39500000E+02  0.84240E-01
 0.39549999E+02 -0.46554E-01
 0.39600002E+02 -0.21552E+00
 0.39650002E+02 -0.21647E+00
 0.39700001E+02 -0.11716E+00
 0.39750000E+02 -0.63814E-01
 0.39799999E+02 -0.44383E-01
 0.39850002E+02 -0.13119E-01
 0.39900002E+02 -0.12459E-01
 0.39950001E+02 -0.62546E-01
 0.40000000E+02 -0.61008E-01
 0.40049999E+02 -0.76106E-02
 0.40100002E+02  0.25322E-01
 0.40150002E+02  0.74034E-01
 0.40200001E+02  0.91637E-01
 0.40250000E+02  0.33356E-01
 0.40299999E+02  0.24015E-01
 0.40350002E+02  0.10923E+00
 0.40400002E+02  0.22058E+00
 0.40450001E+02  0.24185E+00
 0.40500000E+02  0.12596E+00
 0.40549999E+02  0.56859E-03
 0.40600002E+02 -0.92814E-02
 0.40650002E+02  0.10763E-01
 0.40700001E+02  0.42981E-01
 0.40750000E+02  0.61404E-01
 0.40799999E+02 -0.38381E-02
 0.40850002E+02 -0.77329E-01
 0.40900002E+02 -0.82858E-01
 0.40950001E+02 -0.74448E-01
 0.41000000E+02 -0.10852E+00
 0.41049999E+02 -0.14368E+00
 0.41100002E+02 -0.12939E+00
 0.41150002E+02 -0.27044E-01
 0.41200001E+02  0.47150E-01
 0.41250000E+02  0.52203E-01
 0.41299999E+02  0.67742E-01
 0.41350002E+02  0.65015E-01
 0.41400002E+02  0.40079E-01
 0.41450001E+02  0.34200E-01
 0.41500000E+02 -0.39138E-01
 0.41549999E+02 -0.14140E+00
 0.41600002E+02 -0.14319E+00
 0.41650002E+02 -0.59750E-01
 0.41700001E+02  0.12897E-01
 0.41750000E+02  0.16111E-01
 0.41799999E+02 -0.59812E-01
 0.41850002E+02 -0.17577E+00
 0.41900002E+02 -0.17352E+00
 0.41950001E+02 -0.81421E-01
 0.42000000E+02 -0.27837E-01
 0.42049999E+02 -0.13944E-01
 0.42100002E+02 -0.65877E-02
 0.42150002E+02 -0.86583E-02
 0.42200001E+02  0.17924E-01
 0.42250000E+02  0.73643E-01
 0.42299999E+02  0.12674E+00
 0.42350002E+02  0.16466E+00
 0.42400002E+02  0.10645E+00
 0.42450001E+02  0.50645E-01
 0.42500000E+02  0.59671E-01
 0.42549999E+02  0.56830E-01
 0.42600002E+02  0.38499E-01
 0.42650002E+02 -0.10591E-01
 0.42700001E+02 -0.48979E-01
 0.42750000E+02 -0.45151E-01
 0.42799999E+02 -0.12764E-01
 0.42850002E+02  0.63295E-02
 0.42900002E+02  0.45105E-02
 0.42950001E+02  0.95776E-02
 0.43000000E+02  0.23617E-01
 0.43049999E+02  0.69157E-01
 0.43100002E+02  0.11271E+00
 0.43150002E+02  0.12601E+00
 0.43200001E+02  0.10288E+00
 0.43250000E+02  0.67662E-01
 0.43299999E+02  0.44953E-01
 0.43350002E+02  0.15602E-01
 0.43400002E+02 -0.72988E-02
 0.43450001E+02 -0.48154E-01
 0.43500000E+02 -0.45764E-01
 0.43549999E+02 -0.11401E-01
 0.43600002E+02 -0.68953E-02
 0.43650002E+02 -0.62255E-01
 0.43700001E+02 -0.14045E+00
 0.43750000E+02 -0.18507E+00
 0.43799999E+02 -0.16365E+00
 0.43850002E+02 -0.49470E-01
 0.43900002E+02  0.36568E-01
 0.43950001E+02  0.10948E+00
 0.44000000E+02  0.13553E+00
 0.44049999E+02  0.97785E-01
 0.44100002E+02  0.10572E-01
 0.44150002E+02 -0.65136E-01
 0.44200001E+02 -0.64599E-01
 0.44250000E+02 -0.27698E-01
 0.44299999E+02  0.35536E-01
 0.44350002E+02  0.89680E-01
 0.44400002E+02  0.98533E-01
 0.44450001E+02  0.69217E-01
 0.44500000E+02  0.52045E-01
 0.44549999E+02  0.42185E-01
 0.44600002E+02  0.56618E-01
 0.44650002E+02  0.55176E-01
 0.44700001E+02  0.42734E-01
 0.44750000E+02  0.52178E-01
 0.44799999E+02  0.40294E-01
 0.44850002E+02 -0.43006E-01
 0.44900002E+02 -0.15811E+00
 0.44950001E+02 -0.21580E+00
 0.45000000E+02 -0.18595E+00
 0.45049999E+02 -0.99776E-01
 0.45100002E+02 -0.47628E-01
 0.45150002E+02 -0.40980E-01
 0.45200001E+02 -0.30186E-01
 0.45250000E+02 -0.27836E-01
 0.45299999E+02 -0.25633E-03
 0.45350002E+02  0.73717E-01
 0.45400002E+02  0.90399E-01
 0.45450001E+02  0.62210E-01
 0.45500000E+02  0.41317E-01
 0.45549999E+02  0.12443E-01
 0.45600002E+02  0.23287E-01
 0.45650002E+02  0.52602E-01
 0.45700001E+02  0.55918E-01
 0.45750000E+02  0.59044E-01
 0.45799999E+02  0.32311E-01
 0.45850002E+02  0.44435E-01
 0.45900002E+02  0.92174E-01
 0.45950001E+02  0.93824E-01
 0.46000000E+02  0.70295E-01
 0.46049999E+02  0.40999E-01
 0.46100002E+02 -0.75268E-02
 0.46150002E+02 -0.10138E+00
 0.46200001E+02 -0.16556E+00
 0.46250000E+02 -0.16745E+00
 0.46299999E+02 -0.12755E+00
 0.46350002E+02 -0.72336E-01
 0.46400002E+02 -0.13569E-01
 0.46450001E+02  0.28953E-01
 0.46500000E+02  0.28883E-01
 0.46549999E+02  0.23913E-01
 0.46600002E+02  0.68143E-03
 0.46650002E+02 -0.19263E-01
 0.46700001E+02 -0.43767E-01
 0.46750000E+02 -0.10986E+00
 0.46799999E+02 -0.14554E+00
 0.46850002E+02 -0.13414E+00
 0.46900002E+02 -0.87476E-01
 0.46950001E+02 -0.27525E-01
 0.47000000E+02 -0.16755E-01
 0.47049999E+02 -0.13001E-01
 0.47100002E+02  0.88370E-02
 0.47150002E+02  0.59230E-01
 0.47200001E+02  0.10759E+00
 0.47250000E+02  0.11288E+00
 0.47299999E+02  0.10447E+00
 0.47350002E+02  0.71807E-01
 0.47400002E+02  0.59525E-01
 0.47450001E+02  0.68232E-01
 0.47500000E+02  0.56383E-01
 0.47549999E+02  0.36134E-01
 0.47600002E+02 -0.57835E-03
 0.47650002E+02 -0.51691E-01
 0.47700001E+02 -0.71401E-01
 0.47750000E+02 -0.68377E-01
 0.47799999E+02 -0.49900E-01
 0.47850002E+02 -0.12775E-01
 0.47900002E+02  0.92440E-02
 0.47950001E+02 -0.88168E-02
 0.48000000E+02 -0.68103E-01
 0.48049999E+02 -0.11392E+00
 0.48100002E+02 -0.12097E+00
 0.48150002E+02 -0.87184E-01
 0.48200001E+02  0.12915E-01
 0.48250000E+02  0.12778E+00
 0.48299999E+02  0.17107E+00
 0.48350002E+02  0.15820E+00
 0.48400002E+02  0.13220E+00
 0.48450001E+02  0.11178E+00
 0.48500000E+02  0.98368E-01
 0.48549999E+02  0.69699E-01
 0.48600002E+02  0.40321E-01
 0.48650002E+02  0.18689E-01
 0.48700001E+02 -0.22587E-01
 0.48750000E+02 -0.62993E-01
 0.48799999E+02 -0.87247E-01
 0.48850002E+02 -0.84669E-01
 0.48900002E+02 -0.62889E-01
 0.48950001E+02 -0.24375E-01
 0.49000000E+02  0.89819E-02
 0.49049999E+02 -0.24545E-02
 0.49100002E+02 -0.45300E-01
 0.49150002E+02 -0.81886E-01
 0.49200001E+02 -0.90735E-01
 0.49250000E+02 -0.80886E-01
 0.49299999E+02 -0.43641E-01
 0.49350002E+02  0.86458E-02
 0.49400002E+02  0.38744E-01
 0.49450001E+02  0.16332E-01
 0.49500000E+02 -0.17363E-01
 0.49549999E+02 -0.30976E-01
 0.49600002E+02 -0.30900E-01
 0.49650002E+02 -0.36221E-01
 0.49700001E+02 -0.59173E-01
 0.49750000E+02 -0.56102E-01
 0.49799999E+02 -0.35334E-01
 0.49850002E+02  0.13944E-01
 0.49900002E+02  0.77292E-01
 0.49950001E+02  0.12204E+00
 0.50000000E+02  0.14256E+00
 0.50049999E+02  0.12392E+00
 0.50100002E+02  0.85447E-01
 0.50150002E+02  0.34951E-01
 0.50200001E+02 -0.85477E-02
 0.50250000E+02 -0.31393E-01
 0.50299999E+02 -0.27832E-01
 0.50350002E+02 -0.50048E-02
 0.50400002E+02  0.14256E-01
 0.50450001E+02  0.25216E-01
 0.50500000E+02  0.25247E-01
 0.50549999E+02  0.24557E-02
 0.50600002E+02 -0.55728E-01
 0.50650002E+02 -0.12624E+00
 0.50700001E+02 -0.15882E+00
 0.50750000E+02 -0.15804E+00
 0.50799999E+02 -0.12408E+00
 0.50850002E+02 -0.47693E-01
 0.50900002E+02  0.40705E-01
 0.50950001E+02  0.99505E-01
 0.51000000E+02  0.14190E+00
 0.51049999E+02  0.16035E+00
 0.51100002E+02  0.14147E+00
 0.51150002E+02  0.11835E+00
 0.51200001E+02  0.75459E-01
 0.51250000E+02  0.34651E-01
 0.51299999E+02  0.42411E-02
 0.51350002E+02 -0.22898E-01
 0.51400002E+02 -0.29329E-01
 0.51450001E+02 -0.24161E-01
 0.51500000E+02 -0.24192E-01
 0.51549999E+02 -0.28886E-01
 0.51600002E+02 -0.38346E-01
 0.51650002E+02 -0.63669E-01
 0.51700001E+02 -0.98945E-01
 0.51750000E+02 -0.10009E+00
 0.51799999E+02 -0.81171E-01
 0.51850002E+02 -0.71827E-01
 0.51900002E+02 -0.48636E-01
 0.51950001E+02 -0.12724E-01
 0.52000000E+02  0.18524E-01
 0.52049999E+02  0.35478E-01
 0.52100002E+02  0.36689E-01
 0.52150002E+02  0.31064E-01
 0.52200001E+02  0.38770E-01
 0.52250000E+02  0.44861E-01
 0.52299999E+02  0.31615E-01
 0.52350002E+02 -0.32711E-02
 0.52400002E+02 -0.40007E-01
 0.52450001E+02 -0.70733E-01
 0.52500000E+02 -0.73462E-01
 0.52549999E+02 -0.46424E-01
 0.52600002E+02 -0.13046E-01
 0.52650002E+02  0.23234E-02
 0.52700001E+02  0.12539E-02
 0.52750000E+02 -0.62594E-02
 0.52799999E+02 -0.15189E-01
 0.52850002E+02 -0.37426E-02
 0.52900002E+02  0.10462E-01
 0.52950001E+02  0.30035E-01
 0.53000000E+02  0.46163E-01
 0.53049999E+02  0.51982E-01
 0.53100002E+02  0.61084E-01
 0.53150002E+02  0.72998E-01
 0.53200001E+02  0.92554E-01
 0.53250000E+02  0.13254E+00
 0.53299999E+02  0.15622E+00
 0.53350002E+02  0.13822E+00
 0.53400002E+02  0.11480E+00
 0.53450001E+02  0.85533E-01
 0.53500000E+02  0.43126E-01
 0.53549999E+02 -0.87493E-02
 0.53600002E+02 -0.81669E-01
 0.53650002E+02 -0.14394E+00
 0.53700001E+02 -0.16480E+00
 0.53750000E+02 -0.14567E+00
 0.53799999E+02 -0.10057E+00
 0.53850002E+02 -0.65591E-01
 0.53900002E+02 -0.63367E-01
 0.53950001E+02 -0.55193E-01
 0.54000000E+02 -0.21862E-01
 0.54049999E+02  0.11323E-01
 0.54100002E+02  0.40329E-01
 0.54150002E+02  0.44732E-01
 0.54200001E+02  0.32929E-01
 0.54250000E+02  0.27829E-01
 0.54299999E+02  0.21631E-01
 0.54350002E+02  0.13409E-01
 0.54400002E+02  0.16902E-01
 0.54450001E+02  0.32577E-01
 0.54500000E+02  0.34136E-01
 0.54549999E+02  0.17135E-01
 0.54600002E+02  0.90938E-02
 0.54650002E+02  0.19755E-02
 0.54700001E+02 -0.17326E-01
 0.54750000E+02 -0.39710E-01
 0.54799999E+02 -0.72364E-01
 0.54850002E+02 -0.89765E-01
 0.54900002E+02 -0.80359E-01
 0.54950001E+02 -0.51926E-01
 0.55000000E+02 -0.15021E-01
 0.55049999E+02  0.32060E-03
 0.55100002E+02  0.71078E-02
 0.55150002E+02  0.13009E-01
 0.55200001E+02  0.15265E-01
 0.55250000E+02 -0.52063E-02
 0.55299999E+02 -0.32655E-01
 0.55350002E+02 -0.31834E-01
 0.55400002E+02 -0.13009E-01
 0.55450001E+02  0.15004E-01
 0.55500000E+02  0.25372E-01
 0.55549999E+02  0.20443E-01
 0.55600002E+02 -0.23261E-02
 0.55650002E+02 -0.21433E-01
 0.55700001E+02 -0.81190E-02
 0.55750000E+02  0.15044E-01
 0.55799999E+02  0.48801E-01
 0.55850002E+02  0.76372E-01
 0.55900002E+02  0.78953E-01
 0.55950001E+02  0.72472E-01
 0.56000000E+02  0.47659E-01
 0.56049999E+02  0.10263E-01
 0.56100002E+02 -0.25711E-02
 0.56150002E+02  0.96529E-02
 0.56200001E+02  0.18299E-01
 0.56250000E+02  0.18558E-01
 0.56299999E+02 -0.14827E-02
 0.56350002E+02 -0.31786E-01
 0.56400002E+02 -0.42712E-01
 0.56450001E+02 -0.43618E-01
 0.56500000E+02 -0.45482E-01
 0.56549999E+02 -0.34374E-01
 0.56600002E+02  0.80632E-02
 0.56650002E+02  0.47566E-01
 0.56700001E+02  0.62112E-01
 0.56750000E+02  0.70669E-01
 0.56799999E+02  0.65016E-01
 0.56850002E+02  0.43667E-01
 0.56900002E+02  0.42168E-01
 0.56950001E+02  0.39751E-01
 0.57000000E+02  0.19843E-01
 0.57049999E+02 -0.74105E-02
 0.57100002E+02 -0.23376E-01
 0.57150002E+02 -0.26444E-01
 0.57200001E+02 -0.32349E-01
 0.57250000E+02 -0.25937E-01
 0.57299999E+02 -0.17318E-01
 0.57350002E+02  0.72027E-03
 0.57400002E+02  0.22071E-01
 0.57450001E+02  0.47023E-01
 0.57500000E+02  0.58998E-01
 0.57549999E+02  0.45935E-01
 0.57600002E+02  0.25365E-01
 0.57650002E+02 -0.11961E-01
 0.57700001E+02 -0.54102E-01
 0.57750000E+02 -0.70981E-01
 0.57799999E+02 -0.61767E-01
 0.57850002E+02 -0.44656E-01
 0.57900002E+02 -0.33644E-01
 0.57950001E+02 -0.46379E-01
 0.58000000E+02 -0.61562E-01
 0.58049999E+02 -0.58464E-01
 0.58100002E+02 -0.32295E-01
 0.58150002E+02 -0.53452E-02
 0.58200001E+02  0.27207E-02
 0.58250000E+02 -0.61014E-02
 0.58299999E+02 -0.26728E-01
 0.58350002E+02 -0.37458E-01
 0.58400002E+02 -0.34357E-01
 0.58450001E+02 -0.17101E-01
 0.58500000E+02  0.18023E-01
 0.58549999E+02  0.48069E-01
 0.58600002E+02  0.57453E-01
 0.58650002E+02  0.56328E-01
 0.58700001E+02  0.40470E-01
 0.58750000E+02  0.86032E-02
 0.58799999E+02 -0.10341E-01
 0.58850002E+02 -0.12119E-01
 0.58900002E+02 -0.96120E-02
 0.58950001E+02  0.13346E-02
 0.59000000E+02  0.19891E-01
 0.59049999E+02  0.43194E-01
 0.59100002E+02  0.54913E-01
 0.59150002E+02  0.49712E-01
 0.59200001E+02  0.33667E-01
 0.59250000E+02  0.11848E-01
 0.59299999E+02 -0.88704E-02
 0.59350002E+02 -0.31041E-01
 0.59400002E+02 -0.41220E-01
 0.59450001E+02 -0.27618E-01
 0.59500000E+02 -0.15702E-01
 0.59549999E+02 -0.27597E-01
 0.59600002E+02 -0.41718E-01
 0.59650002E+02 -0.35466E-01
 0.59700001E+02 -0.12380E-01
 0.59750000E+02  0.15564E-01
 0.59799999E+02  0.28348E-01
 0.59850002E+02  0.26385E-01
 0.59900002E+02  0.21328E-01
 0.59950001E+02  0.23972E-01
 0.60000000E+02  0.23083E-01
 0.60049999E+02  0.30970E-02
 0.60100002E+02 -0.22820E-01
 0.60150002E+02 -0.41073E-01
 0.60200001E+02 -0.53533E-01
 0.60250000E+02 -0.68298E-01
 0.60299999E+02 -0.69159E-01
 0.60350002E+02 -0.54607E-01
 0.60400002E+02 -0.31549E-01
 0.60450001E+02 -0.16946E-01
 0.60500000E+02 -0.61289E-02
 0.60549999E+02  0.16683E-01
 0.60600002E+02  0.37230E-01
 0.60650002E+02  0.56620E-01
 0.60700001E+02  0.65772E-01
 0.60750000E+02  0.53787E-01
 0.60799999E+02  0.40369E-01
 0.60850002E+02  0.42616E-01
 0.60900002E+02  0.46104E-01
 0.60950001E+02  0.39255E-01
 0.61000000E+02  0.23633E-01
 0.61049999E+02  0.21994E-02
 0.61100002E+02 -0.10320E-01
 0.61150002E+02 -0.48307E-03
 0.61200001E+02  0.17096E-01
 0.61250000E+02  0.28568E-01
 0.61299999E+02  0.37326E-01
 0.61350002E+02  0.39336E-01
 0.61400002E+02  0.22857E-01
 0.61450001E+02  0.39056E-02
 0.61500000E+02 -0.69315E-02
 0.61549999E+02 -0.16895E-01
 0.61600002E+02 -0.20614E-01
 0.61650002E+02 -0.25882E-01
 0.61700001E+02 -0.44506E-01
 0.61750000E+02 -0.60439E-01
 0.61799999E+02 -0.71471E-01
 0.61850002E+02 -0.75321E-01
 0.61900002E+02 -0.56193E-01
 0.61950001E+02 -0.31199E-01
 0.62000000E+02 -0.15839E-01
 0.62049999E+02 -0.72593E-02
 0.62100002E+02  0.80060E-02
 0.62150002E+02  0.22872E-01
 0.62200001E+02  0.31007E-01
 0.62250000E+02  0.32914E-01
 0.62299999E+02  0.14740E-01
 0.62350002E+02 -0.15882E-01
 0.62400002E+02 -0.35533E-01
 0.62450001E+02 -0.34093E-01
 0.62500000E+02 -0.26915E-01
 0.62549999E+02 -0.23339E-01
 0.62600002E+02 -0.16685E-01
 0.62650002E+02 -0.53718E-02
 0.62700001E+02  0.24343E-02
 0.62750000E+02  0.61730E-02
 0.62799999E+02  0.14400E-01
 0.62850002E+02  0.13315E-01
 0.62900002E+02  0.90019E-02
 0.62950001E+02  0.15488E-01
 0.63000000E+02  0.28203E-01
 0.63049999E+02  0.43549E-01
 0.63100002E+02  0.43122E-01
 0.63150002E+02  0.29981E-01
 0.63200001E+02  0.21357E-01
 0.63250000E+02  0.15464E-01
 0.63299999E+02  0.12535E-01
 0.63350002E+02  0.86411E-02
 0.63400002E+02 -0.56066E-02
 0.63450001E+02 -0.26992E-01
 0.63500000E+02 -0.36323E-01
 0.63549999E+02 -0.24953E-01
 0.63600002E+02 -0.67731E-02
 0.63650002E+02  0.12131E-01
 0.63700001E+02  0.23376E-01
 0.63750000E+02  0.18962E-01
 0.63799999E+02  0.18612E-01
 0.63850002E+02  0.13795E-01
 0.63900002E+02 -0.26567E-02
 0.63950001E+02 -0.19234E-01
 0.64000000E+02 -0.34961E-01
 0.64050003E+02 -0.32871E-01
 0.64099998E+02 -0.17940E-01
 0.64150002E+02 -0.70928E-02
 0.64200005E+02 -0.55498E-02
 0.64250000E+02 -0.67033E-02
 0.64300003E+02 -0.22451E-02
 0.64349998E+02  0.75488E-02
 0.64400002E+02  0.10687E-01
 0.64450005E+02  0.69948E-02
 0.64500000E+02  0.28269E-02
 0.64550003E+02  0.46681E-03
 0.64599998E+02 -0.62615E-02
 0.64650002E+02 -0.19732E-01
 0.64700005E+02 -0.16883E-01
 0.64750000E+02 -0.37279E-02
 0.64800003E+02  0.10442E-01
 0.64849998E+02  0.22478E-01
 0.64900002E+02  0.13265E-01
 0.64950005E+02 -0.14014E-01
 0.65000000E+02 -0.36325E-01
 0.65050003E+02 -0.44258E-01
 0.65099998E+02 -0.41777E-01
 0.65150002E+02 -0.24990E-01
 0.65200005E+02 -0.32743E-02
 0.65250000E+02  0.75921E-02
 0.65300003E+02  0.40501E-02
 0.65349998E+02  0.18684E-02
 0.65400002E+02  0.12939E-01
 0.65450005E+02  0.22334E-01
 0.65500000E+02  0.18297E-01
 0.65550003E+02  0.39973E-02
 0.65599998E+02 -0.49243E-02
 0.65650002E+02 -0.63752E-02
 0.65700005E+02 -0.49938E-02
 0.65750000E+02  0.49823E-03
 0.65800003E+02  0.62643E-02
 0.65849998E+02  0.16493E-01
 0.65900002E+02  0.31663E-01
 0.65950005E+02  0.51177E-01
 0.66000000E+02  0.71395E-01
 0.66050003E+02  0.82410E-01
 0.66099998E+02  0.71552E-01
 0.66150002E+02  0.42320E-01
 0.66200005E+02  0.15496E-01
 0.66250000E+02 -0.65753E-02
 0.66300003E+02 -0.15229E-01
 0.66349998E+02 -0.14089E-01
 0.66400002E+02 -0.18085E-01
 0.66450005E+02 -0.24138E-01
 0.66500000E+02 -0.24138E-01
 0.66550003E+02 -0.13742E-01
 0.66599998E+02  0.29781E-02
 0.66650002E+02  0.16757E-01
 0.66700005E+02  0.20263E-01
 0.66750000E+02  0.50718E-02
 0.66800003E+02 -0.12902E-01
 0.66849998E+02 -0.21540E-01
 0.66900002E+02 -0.35727E-01
 0.66950005E+02 -0.49036E-01
 0.67000000E+02 -0.51164E-01
 0.67050003E+02 -0.46839E-01
 0.67099998E+02 -0.39616E-01
 0.67150002E+02 -0.29148E-01
 0.67200005E+02 -0.22159E-01
 0.67250000E+02 -0.19038E-01
 0.67300003E+02 -0.24662E-01
 0.67349998E+02 -0.26958E-01
 0.67400002E+02 -0.19669E-01
 0.67450005E+02 -0.11575E-01
 0.67500000E+02 -0.11050E-02
 0.67550003E+02  0.83435E-02
 0.67599998E+02  0.13918E-01
 0.67650002E+02  0.10317E-01
 0.67700005E+02  0.57205E-02
 0.67750000E+02 -0.14369E-02
 0.67800003E+02 -0.40866E-03
 0.67849998E+02  0.64800E-02
 0.67900002E+02  0.10311E-01
 0.67950005E+02  0.83892E-02
 0.68000000E+02 -0.57521E-02
 0.68050003E+02 -0.18775E-01
 0.68099998E+02 -0.15426E-01
 0.68150002E+02  0.33257E-02
 0.68200005E+02  0.24597E-01
 0.68250000E+02  0.43247E-01
 0.68300003E+02  0.55167E-01
 0.68349998E+02  0.62631E-01
 0.68400002E+02  0.64187E-01
 0.68450005E+02  0.63168E-01
 0.68500000E+02  0.57663E-01
 0.68550003E+02  0.47474E-01
 0.68599998E+02  0.37224E-01
 0.68650002E+02  0.25387E-01
 0.68700005E+02  0.12720E-01
 0.68750000E+02  0.51500E-03
 0.68800003E+02 -0.17250E-01
 0.68849998E+02 -0.36049E-01
 0.68900002E+02 -0.47271E-01
 0.68950005E+02 -0.55867E-01
 0.69000000E+02 -0.54277E-01
 0.69050003E+02 -0.45328E-01
 0.69099998E+02 -0.37719E-01
 0.69150002E+02 -0.25204E-01
 0.69200005E+02 -0.99244E-02
 0.69250000E+02 -0.88118E-02
 0.69300003E+02 -0.22177E-01
 0.69349998E+02 -0.37547E-01
 0.69400002E+02 -0.47665E-01
 0.69450005E+02 -0.44395E-01
 0.69500000E+02 -0.36218E-01
 0.69550003E+02 -0.27082E-01
 0.69599998E+02 -0.18884E-01
 0.69650002E+02 -0.52922E-02
 0.69700005E+02  0.13689E-01
 0.69750000E+02  0.30331E-01
 0.69800003E+02  0.42734E-01
 0.69849998E+02  0.49609E-01
 0.69900002E+02  0.44650E-01
 0.69950005E+02  0.27524E-01
 0.70000000E+02  0.13883E-01
 0.70050003E+02  0.37632E-02
 0.70099998E+02 -0.30208E-02
 0.70150002E+02 -0.10390E-01
 0.70200005E+02 -0.11914E-01
 0.70250000E+02 -0.11797E-01
 0.70300003E+02 -0.12675E-01
 0.70349998E+02 -0.90281E-02
 0.70400002E+02 -0.35941E-02
 0.70450005E+02  0.26460E-02
 0.70500000E+02  0.77177E-02
 0.70550003E+02  0.81958E-02
 0.70599998E+02  0.35415E-02
 0.70650002E+02  0.45765E-03
 0.70700005E+02 -0.36050E-02
 0.70750000E+02 -0.45970E-02
 0.70800003E+02  0.49932E-03
 0.70849998E+02  0.76576E-02
 0.70900002E+02  0.23950E-01
 0.70950005E+02  0.45485E-01
 0.71000000E+02  0.64926E-01
 0.71050003E+02  0.78364E-01
 0.71099998E+02  0.78429E-01
 0.71150002E+02  0.68385E-01
 0.71200005E+02  0.51451E-01
 0.71250000E+02  0.29675E-01
 0.71300003E+02  0.93984E-02
 0.71349998E+02 -0.22667E-02
 0.71400002E+02 -0.13200E-01
 0.71450005E+02 -0.27969E-01
 0.71500000E+02 -0.43087E-01
 0.71550003E+02 -0.59549E-01
 0.71599998E+02 -0.66382E-01
 0.71650002E+02 -0.60525E-01
 0.71700005E+02 -0.46740E-01
 0.71750000E+02 -0.35075E-01
 0.71800003E+02 -0.28871E-01
 0.71849998E+02 -0.20196E-01
 0.71900002E+02 -0.10890E-01
 0.71950005E+02  0.17475E-02
 0.72000000E+02  0.14635E-01
 0.72050003E+02  0.20943E-01
 0.72099998E+02  0.15969E-01
 0.72150002E+02  0.55083E-02
 0.72200005E+02  0.98925E-03
 0.72250000E+02  0.13839E-02
 0.72300003E+02  0.54602E-03
 0.72349998E+02  0.55330E-02
 0.72400002E+02  0.13373E-01
 0.72450005E+02  0.14809E-01
 0.72500000E+02  0.15598E-01
 0.72550003E+02  0.85517E-02
 0.72599998E+02 -0.18576E-02
 0.72650002E+02 -0.94725E-02
 0.72700005E+02 -0.16005E-01
 0.72750000E+02 -0.20177E-01
 0.72800003E+02 -0.19618E-01
 0.72849998E+02 -0.16235E-01
 0.72900002E+02 -0.12441E-01
 0.72950005E+02 -0.64792E-02
 0.73000000E+02 -0.55200E-03
 0.73050003E+02  0.39128E-02
 0.73099998E+02  0.54248E-02
 0.73150002E+02  0.25772E-02
 0.73200005E+02 -0.23843E-02
 0.73250000E+02 -0.13846E-02
 0.73300003E+02  0.52948E-02
 0.73349998E+02  0.10127E-01
 0.73400002E+02  0.76003E-02
 0.73450005E+02  0.15259E-02
 0.73500000E+02 -0.62642E-02
 0.73550003E+02 -0.10614E-01
 0.73599998E+02 -0.70616E-02
 0.73650002E+02 -0.45231E-03
 0.73700005E+02  0.45360E-02
 0.73750000E+02  0.95334E-02
 0.73800003E+02  0.23594E-01
 0.73849998E+02  0.39874E-01
 0.73900002E+02  0.46826E-01
 0.73950005E+02  0.44129E-01
 0.74000000E+02  0.31056E-01
 0.74050003E+02  0.18984E-01
 0.74099998E+02  0.86998E-02
 0.74150002E+02 -0.31053E-02
 0.74200005E+02 -0.85717E-02
 0.74250000E+02 -0.17101E-01
 0.74300003E+02 -0.30525E-01
 0.74349998E+02 -0.38916E-01
 0.74400002E+02 -0.35095E-01
 0.74450005E+02 -0.23227E-01
 0.74500000E+02 -0.97376E-02
 0.74550003E+02 -0.21166E-02
 0.74599998E+02 -0.14295E-02
 0.74650002E+02  0.39972E-02
 0.74700005E+02  0.49885E-02
 0.74750000E+02 -0.32356E-02
 0.74800003E+02 -0.14311E-01
 0.74849998E+02 -0.25813E-01
 0.74900002E+02 -0.25621E-01
 0.74950005E+02 -0.12980E-01
 0.75000000E+02  0.30103E-02
 0.75050003E+02  0.12536E-01
 0.75099998E+02  0.14125E-01
 0.75150002E+02  0.10910E-01
 0.75200005E+02  0.65427E-02
 0.75250000E+02  0.32136E-02
 0.75300003E+02 -0.39511E-03
 0.75349998E+02 -0.49234E-02
 0.75400002E+02 -0.10937E-01
 0.75450005E+02 -0.16670E-01
 0.75500000E+02 -0.18406E-01
 0.75550003E+02 -0.13821E-01
 0.75599998E+02 -0.97600E-02
 0.75650002E+02 -0.33164E-02
 0.75700005E+02  0.16327E-02
 0.75750000E+02  0.13381E-02
 0.75800003E+02  0.13949E-02
 0.75849998E+02  0.42100E-02
 0.75900002E+02  0.92566E-02
 0.75950005E+02  0.85407E-02
 0.76000000E+02  0.24126E-02
 0.76050003E+02 -0.14495E-02
 0.76099998E+02 -0.48976E-02
 0.76150002E+02 -0.60763E-02
 0.76200005E+02 -0.66337E-02
 0.76250000E+02 -0.74108E-02
 0.76300003E+02 -0.10629E-02
 0.76349998E+02  0.89007E-02
 0.76400002E+02  0.24030E-01
 0.76450005E+02  0.33999E-01
 0.76500000E+02  0.32500E-01
 0.76550003E+02  0.24996E-01
 0.76599998E+02  0.14315E-01
 0.76650002E+02  0.71509E-02
 0.76700005E+02  0.25162E-02
 0.76750000E+02 -0.25843E-02
 0.76800003E+02 -0.94040E-02
 0.76849998E+02 -0.16199E-01
 0.76900002E+02 -0.16379E-01
 0.76950005E+02 -0.17731E-01
 0.77000000E+02 -0.24361E-01
 0.77050003E+02 -0.27686E-01
 0.77099998E+02 -0.24546E-01
 0.77150002E+02 -0.15960E-01
 0.77200005E+02 -0.56768E-02
 0.77250000E+02  0.52331E-02
 0.77300003E+02  0.16181E-01
 0.77349998E+02  0.29219E-01
 0.77400002E+02  0.39355E-01
 0.77450005E+02  0.41848E-01
 0.77500000E+02  0.38389E-01
 0.77550003E+02  0.31673E-01
 0.77599998E+02  0.23409E-01
 0.77650002E+02  0.13671E-01
 0.77700005E+02  0.72833E-02
 0.77750000E+02  0.51908E-03
 0.77800003E+02 -0.55077E-02
 0.77849998E+02 -0.64413E-02
 0.77900002E+02 -0.84316E-02
 0.77950005E+02 -0.10558E-01
 0.78000000E+02 -0.11799E-01
 0.78050003E+02 -0.16323E-01
 0.78099998E+02 -0.27066E-01
 0.78150002E+02 -0.33747E-01
 0.78200005E+02 -0.29657E-01
 0.78250000E+02 -0.22033E-01
 0.78300003E+02 -0.11422E-01
 0.78349998E+02 -0.43174E-02
 0.78400002E+02 -0.14264E-02
 0.78450005E+02 -0.22430E-03
 0.78500000E+02 -0.47962E-03
 0.78550003E+02  0.31097E-02
 0.78599998E+02  0.60949E-02
 0.78650002E+02  0.34901E-02
 0.78700005E+02  0.84140E-03
 0.78750000E+02  0.20992E-02
 0.78800003E+02  0.47097E-02
 0.78849998E+02  0.10124E-01
 0.78900002E+02  0.13994E-01
 0.78950005E+02  0.18941E-01
 0.79000000E+02  0.23985E-01
 0.79050003E+02  0.23985E-01
 0.79099998E+02  0.20368E-01
 0.79150002E+02  0.11776E-01
 0.79200005E+02  0.11994E-02
 0.79250000E+02 -0.45046E-02
 0.79300003E+02 -0.42289E-02
 0.79349998E+02 -0.29582E-02
 0.79400002E+02 -0.47313E-02
 0.79450005E+02 -0.10425E-01
 0.79500000E+02 -0.19460E-01
 0.79550003E+02 -0.30706E-01
 0.79599998E+02 -0.35562E-01
 0.79650002E+02 -0.34774E-01
 0.79700005E+02 -0.31974E-01
 0.79750000E+02 -0.26251E-01
 0.79800003E+02 -0.17933E-01
 0.79849998E+02 -0.81231E-02
 0.79900002E+02 -0.15760E-02
 0.79950005E+02  0.59360E-02
 0.80000000E+02  0.13241E-01
 0.80050003E+02  0.15268E-01
 0.80099998E+02  0.17005E-01
 0.80150002E+02  0.16000E-01
 0.80200005E+02  0.12876E-01
 0.80250000E+02  0.95691E-02
 0.80300003E+02  0.42141E-02
 0.80349998E+02  0.14859E-02
 0.80400002E+02  0.26980E-02
 0.80450005E+02  0.44014E-02
 0.80500000E+02  0.38578E-02
 0.80550003E+02  0.31524E-02
 0.80599998E+02  0.44295E-03
 0.80650002E+02 -0.45185E-02
 0.80700005E+02 -0.71492E-02
 0.80750000E+02 -0.42171E-02
 0.80800003E+02  0.40210E-02
 0.80849998E+02  0.95918E-02
 0.80900002E+02  0.10632E-01
 0.80950005E+02  0.79084E-02
 0.81000000E+02  0.19899E-02
 0.81050003E+02 -0.63816E-02
 0.81099998E+02 -0.14577E-01
 0.81150002E+02 -0.18184E-01
 0.81200005E+02 -0.19133E-01
 0.81250000E+02 -0.18979E-01
 0.81300003E+02 -0.15084E-01
 0.81349998E+02 -0.87139E-02
 0.81400002E+02 -0.54926E-02
 0.81450005E+02 -0.37540E-03
 0.81500000E+02  0.54932E-02
 0.81550003E+02  0.90105E-02
 0.81599998E+02  0.14222E-01
 0.81650002E+02  0.15932E-01
 0.81700005E+02  0.93268E-02
 0.81750000E+02  0.49142E-02
 0.81800003E+02  0.29416E-02
 0.81849998E+02 -0.40524E-03
 0.81900002E+02  0.37339E-02
 0.81950005E+02  0.11745E-01
 0.82000000E+02  0.21188E-01
 0.82050003E+02  0.29316E-01
 0.82099998E+02  0.35530E-01
 0.82150002E+02  0.42633E-01
 0.82200005E+02  0.48100E-01
 0.82250000E+02  0.48560E-01
 0.82300003E+02  0.40716E-01
 0.82349998E+02  0.29824E-01
 0.82400002E+02  0.18603E-01
 0.82450005E+02  0.45879E-02
 0.82500000E+02 -0.82295E-02
 0.82550003E+02 -0.19923E-01
 0.82599998E+02 -0.32854E-01
 0.82650002E+02 -0.45695E-01
 0.82700005E+02 -0.54518E-01
 0.82750000E+02 -0.60747E-01
 0.82800003E+02 -0.63857E-01
 0.82849998E+02 -0.61864E-01
 0.82900002E+02 -0.54582E-01
 0.82950005E+02 -0.39093E-01
 0.83000000E+02 -0.20836E-01
 0.83050003E+02 -0.50915E-02
 0.83099998E+02  0.72140E-02
 0.83150002E+02  0.15093E-01
 0.83200005E+02  0.20235E-01
 0.83250000E+02  0.21331E-01
 0.83300003E+02  0.15724E-01
 0.83349998E+02  0.10113E-01
 0.83400002E+02  0.78021E-02
 0.83450005E+02  0.51251E-02
 0.83500000E+02 -0.19483E-02
 0.83550003E+02 -0.90477E-02
 0.83599998E+02 -0.10233E-01
 0.83650002E+02 -0.32298E-02
 0.83700005E+02  0.60530E-02
 0.83750000E+02  0.13102E-01
 0.83800003E+02  0.18903E-01
 0.83849998E+02  0.21348E-01
 0.83900002E+02  0.22101E-01
 0.83950005E+02  0.20628E-01
 0.84000000E+02  0.17623E-01
 0.84050003E+02  0.13102E-01
 0.84099998E+02  0.67817E-02
 0.84150002E+02  0.22444E-02
 0.84200005E+02 -0.19811E-02
 0.84250000E+02 -0.68547E-02
 0.84300003E+02 -0.10945E-01
 0.84349998E+02 -0.17328E-01
 0.84400002E+02 -0.27405E-01
 0.84450005E+02 -0.39494E-01
 0.84500000E+02 -0.47214E-01
 0.84550003E+02 -0.42927E-01
 0.84599998E+02 -0.28898E-01
 0.84650002E+02 -0.97139E-02
 0.84700005E+02  0.85542E-02
 0.84750000E+02  0.23113E-01
 0.84800003E+02  0.34839E-01
 0.84849998E+02  0.41150E-01
 0.84900002E+02  0.42278E-01
 0.84950005E+02  0.40508E-01
 0.85000000E+02  0.35120E-01
 0.85050003E+02  0.21283E-01
 0.85099998E+02  0.65322E-02
 0.85150002E+02 -0.57936E-02
 0.85200005E+02 -0.16004E-01
 0.85250000E+02 -0.20212E-01
 0.85300003E+02 -0.23029E-01
 0.85349998E+02 -0.28583E-01
 0.85400002E+02 -0.36642E-01
 0.85450005E+02 -0.40884E-01
 0.85500000E+02 -0.37194E-01
 0.85550003E+02 -0.29515E-01
 0.85599998E+02 -0.22427E-01
 0.85650002E+02 -0.15077E-01
 0.85700005E+02 -0.89331E-02
 0.85750000E+02 -0.20685E-02
 0.85800003E+02  0.87469E-02
 0.85849998E+02  0.17491E-01
 0.85900002E+02  0.25649E-01
 0.85950005E+02  0.32175E-01
 0.86000000E+02  0.32350E-01
 0.86050003E+02  0.29173E-01
 0.86099998E+02  0.26505E-01
 0.86150002E+02  0.25852E-01
 0.86200005E+02  0.25061E-01
 0.86250000E+02  0.23177E-01
 0.86300003E+02  0.21738E-01
 0.86349998E+02  0.21483E-01
 0.86400002E+02  0.19663E-01
 0.86450005E+02  0.12798E-01
 0.86500000E+02  0.62849E-02
 0.86550003E+02  0.10025E-02
 0.86599998E+02 -0.47688E-02
 0.86650002E+02 -0.43719E-02
 0.86700005E+02  0.21205E-02
 0.86750000E+02  0.85264E-02
 0.86800003E+02  0.11444E-01
 0.86849998E+02  0.11345E-01
 0.86900002E+02  0.84821E-02
 0.86950005E+02  0.66106E-02
 0.87000000E+02  0.60734E-02
 0.87050003E+02  0.57198E-02
 0.87099998E+02  0.67811E-02
 0.87150002E+02  0.91761E-02
 0.87200005E+02  0.10638E-01
 0.87250000E+02  0.10981E-01
 0.87300003E+02  0.10863E-01
 0.87349998E+02  0.78056E-02
 0.87400002E+02  0.37703E-03
 0.87450005E+02 -0.10756E-01
 0.87500000E+02 -0.21788E-01
 0.87550003E+02 -0.30754E-01
 0.87599998E+02 -0.35376E-01
 0.87650002E+02 -0.33115E-01
 0.87700005E+02 -0.25534E-01
 0.87750000E+02 -0.16462E-01
 0.87800003E+02 -0.70468E-02
 0.87849998E+02  0.13342E-02
 0.87900002E+02  0.30434E-02
 0.87950005E+02 -0.14741E-02
 0.88000000E+02 -0.63950E-02
 0.88050003E+02 -0.13448E-01
 0.88099998E+02 -0.22843E-01
 0.88150002E+02 -0.27672E-01
 0.88200005E+02 -0.26859E-01
 0.88250000E+02 -0.24247E-01
 0.88300003E+02 -0.22191E-01
 0.88349998E+02 -0.19374E-01
 0.88400002E+02 -0.14122E-01
 0.88450005E+02 -0.87936E-02
 0.88500000E+02 -0.31794E-02
 0.88550003E+02  0.12598E-02
 0.88599998E+02  0.50813E-02
 0.88650002E+02  0.10217E-01
 0.88700005E+02  0.15300E-01
 0.88750000E+02  0.18802E-01
 0.88800003E+02  0.18896E-01
 0.88849998E+02  0.15708E-01
 0.88900002E+02  0.10512E-01
 0.88950005E+02  0.73968E-02
 0.89000000E+02  0.72140E-02
 0.89050003E+02  0.63892E-02
 0.89099998E+02  0.68521E-02
 0.89150002E+02  0.80556E-02
 0.89200005E+02  0.68153E-02
 0.89250000E+02  0.45947E-02
 0.89300003E+02  0.34438E-02
 0.89349998E+02  0.61280E-03
 0.89400002E+02 -0.58158E-02
 0.89450005E+02 -0.97331E-02
 0.89500000E+02 -0.95965E-02
 0.89550003E+02 -0.47038E-02
 0.89599998E+02  0.49072E-02
 0.89650002E+02  0.14115E-01
 0.89700005E+02  0.16178E-01
 0.89750000E+02  0.92026E-02
 0.89800003E+02 -0.90824E-03
 0.89849998E+02 -0.85737E-02
 0.89900002E+02 -0.12462E-01
 0.89950005E+02 -0.13603E-01
 0.90000000E+02 -0.12731E-01
 0.90050003E+02 -0.12948E-01
 0.90099998E+02 -0.16322E-01
 0.90150002E+02 -0.20495E-01
 0.90200005E+02 -0.22949E-01
 0.90250000E+02 -0.23503E-01
 0.90300003E+02 -0.20671E-01
 0.90349998E+02 -0.14193E-01
 0.90400002E+02 -0.65890E-02
 0.90450005E+02 -0.76500E-03
 0.90500000E+02  0.21456E-02
 0.90550003E+02  0.11815E-02
 0.90599998E+02 -0.30177E-02
 0.90650002E+02 -0.47480E-02
 0.90700005E+02 -0.22749E-02
 0.90750000E+02  0.29475E-02
 0.90800003E+02  0.10018E-01
 0.90849998E+02  0.15610E-01
 0.90900002E+02  0.19586E-01
 0.90950005E+02  0.21791E-01
 0.91000000E+02  0.21881E-01
 0.91050003E+02  0.20158E-01
 0.91099998E+02  0.16014E-01
 0.91150002E+02  0.11217E-01
 0.91200005E+02  0.71019E-02
 0.91250000E+02  0.55144E-02
 0.91300003E+02  0.58825E-02
 0.91349998E+02  0.58710E-02
 0.91400002E+02  0.67863E-02
 0.91450005E+02  0.10221E-01
 0.91500000E+02  0.14233E-01
 0.91550003E+02  0.16153E-01
 0.91599998E+02  0.15964E-01
 0.91650002E+02  0.13922E-01
 0.91700005E+02  0.11399E-01
 0.91750000E+02  0.11852E-01
 0.91800003E+02  0.15781E-01
 0.91849998E+02  0.20252E-01
 0.91900002E+02  0.23466E-01
 0.91950005E+02  0.24885E-01
 0.92000000E+02  0.23838E-01
 0.92050003E+02  0.19580E-01
 0.92099998E+02  0.14778E-01
 0.92150002E+02  0.11602E-01
 0.92200005E+02  0.79848E-02
 0.92250000E+02  0.37867E-02
 0.92300003E+02 -0.96445E-03
 0.92349998E+02 -0.54993E-02
 0.92400002E+02 -0.92874E-02
 0.92450005E+02 -0.12796E-01
 0.92500000E+02 -0.16438E-01
 0.92550003E+02 -0.19747E-01
 0.92599998E+02 -0.23085E-01
 0.92650002E+02 -0.23808E-01
 0.92700005E+02 -0.19421E-01
 0.92750000E+02 -0.13131E-01
 0.92800003E+02 -0.87618E-02
 0.92849998E+02 -0.61214E-02
 0.92900002E+02 -0.37796E-02
 0.92950005E+02 -0.44994E-02
 0.93000000E+02 -0.83609E-02
 0.93050003E+02 -0.12701E-01
 0.93099998E+02 -0.16651E-01
 0.93150002E+02 -0.20548E-01
 0.93200005E+02 -0.24801E-01
 0.93250000E+02 -0.29294E-01
 0.93300003E+02 -0.30514E-01
 0.93349998E+02 -0.28406E-01
 0.93400002E+02 -0.24286E-01
 0.93450005E+02 -0.16822E-01
 0.93500000E+02 -0.87906E-02
 0.93550003E+02 -0.15968E-02
 0.93599998E+02  0.64114E-02
 0.93650002E+02  0.15660E-01
 0.93700005E+02  0.22907E-01
 0.93750000E+02  0.24603E-01
 0.93800003E+02  0.22942E-01
 0.93849998E+02  0.19863E-01
 0.93900002E+02  0.18053E-01
 0.93950005E+02  0.15829E-01
 0.94000000E+02  0.12629E-01
 0.94050003E+02  0.11386E-01
 0.94099998E+02  0.67295E-02
 0.94150002E+02 -0.26884E-02
 0.94200005E+02 -0.11906E-01
 0.94250000E+02 -0.16969E-01
 0.94300003E+02 -0.18303E-01
 0.94349998E+02 -0.18020E-01
 0.94400002E+02 -0.15929E-01
 0.94450005E+02 -0.13073E-01
 0.94500000E+02 -0.10718E-01
 0.94550003E+02 -0.59955E-02
 0.94599998E+02 -0.34104E-03
 0.94650002E+02  0.54741E-02
 0.94700005E+02  0.11705E-01
 0.94750000E+02  0.16910E-01
 0.94800003E+02  0.19782E-01
 0.94849998E+02  0.17953E-01
 0.94900002E+02  0.14948E-01
 0.94950005E+02  0.11631E-01
 0.95000000E+02  0.71153E-02
 0.95050003E+02  0.36587E-02
 0.95099998E+02  0.81312E-03
 0.95150002E+02 -0.36935E-02
 0.95200005E+02 -0.82548E-02
 0.95250000E+02 -0.10209E-01
 0.95300003E+02 -0.98128E-02
 0.95349998E+02 -0.79391E-02
 0.95400002E+02 -0.76659E-02
 0.95450005E+02 -0.10723E-01
 0.95500000E+02 -0.14246E-01
 0.95550003E+02 -0.15058E-01
 0.95599998E+02 -0.12595E-01
 0.95650002E+02 -0.75337E-02
 0.95700005E+02 -0.17346E-02
 0.95750000E+02  0.16248E-02
 0.95800003E+02  0.33131E-02
 0.95849998E+02  0.37152E-02
 0.95900002E+02  0.24977E-02
 0.95950005E+02  0.29995E-02
 0.96000000E+02  0.50636E-02
 0.96050003E+02  0.60968E-02
 0.96099998E+02  0.48667E-02
 0.96150002E+02  0.17870E-02
 0.96200005E+02 -0.25296E-02
 0.96250000E+02 -0.84499E-02
 0.96300003E+02 -0.13926E-01
 0.96349998E+02 -0.17444E-01
 0.96400002E+02 -0.20379E-01
 0.96450005E+02 -0.23801E-01
 0.96500000E+02 -0.25331E-01
 0.96550003E+02 -0.24740E-01
 0.96599998E+02 -0.22748E-01
 0.96650002E+02 -0.20166E-01
 0.96700005E+02 -0.18400E-01
 0.96750000E+02 -0.14688E-01
 0.96800003E+02 -0.94315E-02
 0.96849998E+02 -0.21887E-02
 0.96900002E+02  0.74078E-02
 0.96950005E+02  0.16304E-01
 0.97000000E+02  0.20733E-01
 0.97050003E+02  0.22341E-01
 0.97099998E+02  0.24332E-01
 0.97150002E+02  0.25213E-01
 0.97200005E+02  0.25488E-01
 0.97250000E+02  0.24410E-01
 0.97300003E+02  0.23656E-01
 0.97349998E+02  0.24014E-01
 0.97400002E+02  0.24365E-01
 0.97450005E+02  0.25400E-01
 0.97500000E+02  0.27324E-01
 0.97550003E+02  0.27254E-01
 0.97599998E+02  0.24246E-01
 0.97650002E+02  0.20896E-01
 0.97700005E+02  0.14620E-01
 0.97750000E+02  0.66103E-02
 0.97800003E+02  0.17003E-02
 0.97849998E+02 -0.97711E-04
 0.97900002E+02 -0.20172E-02
 0.97950005E+02 -0.42053E-02
 0.98000000E+02 -0.56530E-02
 0.98050003E+02 -0.58733E-02
 0.98099998E+02 -0.36033E-02
 0.98150002E+02 -0.12849E-02
 0.98200005E+02  0.94678E-03
 0.98250000E+02  0.35495E-02
 0.98300003E+02  0.74190E-02
 0.98349998E+02  0.11829E-01
 0.98400002E+02  0.14283E-01
 0.98450005E+02  0.14646E-01
 0.98500000E+02  0.11142E-01
 0.98550003E+02  0.61524E-02
 0.98599998E+02  0.44852E-02
 0.98650002E+02  0.68896E-02
 0.98700005E+02  0.94501E-02
 0.98750000E+02  0.10872E-01
 0.98800003E+02  0.10072E-01
 0.98849998E+02  0.75561E-02
 0.98900002E+02  0.54621E-02
 0.98950005E+02  0.23019E-02
 0.99000000E+02 -0.10841E-02
 0.99050003E+02 -0.46630E-02
 0.99099998E+02 -0.87442E-02
 0.99150002E+02 -0.13373E-01
 0.99200005E+02 -0.17429E-01
 0.99250000E+02 -0.20485E-01
 0.99300003E+02 -0.23879E-01
 0.99349998E+02 -0.27703E-01
 0.99400002E+02 -0.30298E-01
 0.99450005E+02 -0.29277E-01
 0.99500000E+02 -0.26369E-01
 0.99550003E+02 -0.23535E-01
 0.99599998E+02 -0.19997E-01
 0.99650002E+02 -0.15254E-01
 0.99700005E+02 -0.94437E-02
 0.99750000E+02 -0.40345E-02
 0.99800003E+02 -0.15228E-03
 0.99849998E+02  0.12731E-02
 0.99900002E+02 -0.88575E-03
 0.99950005E+02 -0.64886E-02
 0.10000000E+03 -0.14587E-01
 0.10005000E+03 -0.22742E-01
 0.10010000E+03 -0.27110E-01
 0.10015000E+03 -0.27681E-01
 0.10020000E+03 -0.27052E-01
 0.10025000E+03 -0.25378E-01
 0.10030000E+03 -0.22275E-01
 0.10035000E+03 -0.18455E-01
 0.10040000E+03 -0.14478E-01
 0.10045000E+03 -0.99756E-02
 0.10050000E+03 -0.62293E-02
 0.10055000E+03 -0.26049E-02
 0.10060000E+03  0.11307E-02
 0.10065000E+03  0.39176E-02
 0.10070000E+03  0.74574E-02
 0.10075000E+03  0.12338E-01
 0.10080000E+03  0.16258E-01
 0.10085000E+03  0.16017E-01
 0.10090000E+03  0.12924E-01
 0.10095000E+03  0.94363E-02
 0.10100000E+03  0.80648E-02
 0.10105000E+03  0.10462E-01
 0.10110000E+03  0.13307E-01
 0.10115000E+03  0.16263E-01
 0.10120000E+03  0.20307E-01
 0.10125000E+03  0.23923E-01
 0.10130000E+03  0.24136E-01
 0.10135000E+03  0.19964E-01
 0.10140000E+03  0.14321E-01
 0.10145000E+03  0.92476E-02
 0.10150000E+03  0.68443E-02
 0.10155000E+03  0.65533E-02
 0.10160000E+03  0.74053E-02
 0.10165000E+03  0.84105E-02
 0.10170000E+03  0.10139E-01
 0.10175000E+03  0.14239E-01
 0.10180000E+03  0.17877E-01
 0.10185000E+03  0.20210E-01
 0.10190000E+03  0.22030E-01
 0.10195000E+03  0.22364E-01
 0.10200000E+03  0.22386E-01
 0.10205000E+03  0.23982E-01
 0.10210000E+03  0.25791E-01
 0.10215000E+03  0.27127E-01
 0.10220000E+03  0.26066E-01
 0.10225000E+03  0.23255E-01
 0.10230000E+03  0.21691E-01
 0.10235000E+03  0.20214E-01
 0.10240000E+03  0.18433E-01
 0.10245000E+03  0.16083E-01
 0.10250000E+03  0.12291E-01
 0.10255000E+03  0.64086E-02
 0.10260000E+03  0.38223E-03
 0.10265000E+03 -0.41814E-02
 0.10270000E+03 -0.92148E-02
 0.10275000E+03 -0.14773E-01
 0.10280000E+03 -0.19349E-01
 0.10285000E+03 -0.21719E-01
 0.10290000E+03 -0.22943E-01
 0.10295000E+03 -0.23913E-01
 0.10300000E+03 -0.24823E-01
 0.10305000E+03 -0.26596E-01
 0.10310000E+03 -0.27501E-01
 0.10315000E+03 -0.26159E-01
 0.10320000E+03 -0.23878E-01
 0.10325000E+03 -0.22668E-01
 0.10330000E+03 -0.23090E-01
 0.10335000E+03 -0.22294E-01
 0.10340000E+03 -0.19760E-01
 0.10345000E+03 -0.17834E-01
 0.10350000E+03 -0.15460E-01
 0.10355000E+03 -0.11816E-01
 0.10360000E+03 -0.91117E-02
 0.10365000E+03 -0.89309E-02
 0.10370000E+03 -0.84626E-02
 0.10375000E+03 -0.98196E-02
 0.10380000E+03 -0.14393E-01
 0.10385000E+03 -0.18943E-01
 0.10390000E+03 -0.21085E-01
 0.10395000E+03 -0.19990E-01
 0.10400000E+03 -0.16487E-01
 0.10405000E+03 -0.10643E-01
 0.10410000E+03 -0.36312E-02
 0.10415000E+03  0.49651E-02
 0.10420000E+03  0.12573E-01
 0.10425000E+03  0.16570E-01
 0.10430000E+03  0.18236E-01
 0.10435000E+03  0.18283E-01
 0.10440000E+03  0.17490E-01
 0.10445000E+03  0.15643E-01
 0.10450000E+03  0.11981E-01
 0.10455000E+03  0.71172E-02
 0.10460000E+03  0.30325E-02
 0.10465000E+03  0.10877E-03
 0.10470000E+03 -0.23189E-02
 0.10475000E+03 -0.37899E-02
 0.10480000E+03 -0.45899E-02
 0.10485000E+03 -0.31564E-02
 0.10490000E+03  0.17338E-03
 0.10495000E+03  0.33656E-02
 0.10500000E+03  0.55164E-02
 0.10505000E+03  0.62476E-02
 0.10510000E+03  0.57237E-02
 0.10515000E+03  0.56087E-02
 0.10520000E+03  0.57683E-02
 0.10525000E+03  0.47607E-02
 0.10530000E+03  0.37515E-02
 0.10535000E+03  0.27264E-02
 0.10540000E+03  0.20419E-02
 0.10545000E+03  0.21010E-02
 0.10550000E+03  0.24216E-02
 0.10555000E+03  0.29955E-02
 0.10560000E+03  0.41449E-02
 0.10565000E+03  0.58337E-02
 0.10570000E+03  0.62337E-02
 0.10575000E+03  0.57444E-02
 0.10580000E+03  0.62194E-02
 0.10585000E+03  0.78712E-02
 0.10590000E+03  0.10569E-01
 0.10595000E+03  0.11560E-01
 0.10600000E+03  0.10529E-01
 0.10605000E+03  0.80994E-02
 0.10610000E+03  0.42692E-02
 0.10615000E+03  0.10008E-02
 0.10620000E+03 -0.16008E-02
 0.10625000E+03 -0.36252E-02
 0.10630000E+03 -0.42148E-02
 0.10635000E+03 -0.40250E-02
 0.10640000E+03 -0.39192E-02
 0.10645000E+03 -0.40527E-02
 0.10650000E+03 -0.52830E-02
 0.10655000E+03 -0.64043E-02
 0.10660000E+03 -0.67954E-02
 0.10665000E+03 -0.70281E-02
 0.10670000E+03 -0.64804E-02
 0.10675000E+03 -0.53634E-02
 0.10680000E+03 -0.56628E-02
 0.10685000E+03 -0.77959E-02
 0.10690000E+03 -0.10125E-01
 0.10695000E+03 -0.12409E-01
 0.10700000E+03 -0.14046E-01
 0.10705000E+03 -0.13770E-01
 0.10710000E+03 -0.11871E-01
 0.10715000E+03 -0.83337E-02
 0.10720000E+03 -0.31401E-02
 0.10725000E+03  0.28751E-02
 0.10730000E+03  0.89307E-02
 0.10735000E+03  0.13104E-01
 0.10740000E+03  0.15351E-01
 0.10745000E+03  0.16971E-01
 0.10750000E+03  0.17128E-01
 0.10755000E+03  0.16714E-01
 0.10760000E+03  0.17058E-01
 0.10765000E+03  0.16644E-01
 0.10770000E+03  0.15581E-01
 0.10775000E+03  0.12328E-01
 0.10780000E+03  0.66296E-02
 0.10785000E+03  0.16701E-02
 0.10790000E+03 -0.16584E-02
 0.10795000E+03 -0.28932E-02
 0.10800000E+03 -0.42327E-02
 0.10805000E+03 -0.73622E-02
 0.10810000E+03 -0.96885E-02
 0.10815000E+03 -0.10646E-01
 0.10820000E+03 -0.11066E-01
 0.10825000E+03 -0.98890E-02
 0.10830000E+03 -0.71287E-02
 0.10835000E+03 -0.43033E-02
 0.10840000E+03 -0.13463E-02
 0.10845000E+03  0.50311E-03
 0.10850000E+03  0.70553E-03
 0.10855000E+03  0.11084E-02
 0.10860000E+03  0.19995E-02
 0.10865000E+03  0.32395E-02
 0.10870000E+03  0.46672E-02
 0.10875000E+03  0.70407E-02
 0.10880000E+03  0.90140E-02
 0.10885000E+03  0.92722E-02
 0.10890000E+03  0.73598E-02
 0.10895000E+03  0.33667E-02
 0.10900000E+03 -0.84458E-03
 0.10905000E+03 -0.50323E-02
 0.10910000E+03 -0.87776E-02
 0.10915000E+03 -0.12469E-01
 0.10920000E+03 -0.15816E-01
 0.10925000E+03 -0.18674E-01
 0.10930000E+03 -0.20659E-01
 0.10935000E+03 -0.20843E-01
 0.10940000E+03 -0.19498E-01
 0.10945000E+03 -0.17024E-01
 0.10950000E+03 -0.13785E-01
 0.10955000E+03 -0.10274E-01
 0.10960000E+03 -0.75596E-02
 0.10965000E+03 -0.54604E-02
 0.10970000E+03 -0.30464E-02
 0.10975000E+03 -0.49193E-03
 0.10980000E+03  0.10454E-02
 0.10985000E+03  0.21259E-02
 0.10990000E+03  0.25814E-02
 0.10995000E+03  0.33215E-02
 0.11000000E+03  0.50442E-02
 0.11005000E+03  0.63572E-02
 0.11010000E+03  0.75756E-02
 0.11015000E+03  0.86242E-02
 0.11020000E+03  0.77442E-02
 0.11025000E+03  0.50621E-02
 0.11030000E+03  0.22600E-02
 0.11035000E+03 -0.26476E-03
 0.11040000E+03 -0.23519E-02
 0.11045000E+03 -0.38712E-02
 0.11050000E+03 -0.51892E-02
 0.11055000E+03 -0.65698E-02
 0.11060000E+03 -0.74212E-02
 0.11065000E+03 -0.76290E-02
 0.11070000E+03 -0.70246E-02
 0.11075000E+03 -0.52772E-02
 0.11080000E+03 -0.15123E-02
 0.11085000E+03  0.41837E-02
 0.11090000E+03  0.99939E-02
 0.11095000E+03  0.13144E-01
 0.11100000E+03  0.12485E-01
 0.11105000E+03  0.99529E-02
 0.11110000E+03  0.76949E-02
 0.11115000E+03  0.72278E-02
 0.11120000E+03  0.84212E-02
 0.11125000E+03  0.10115E-01
 0.11130000E+03  0.10881E-01
 0.11135000E+03  0.10288E-01
 0.11140000E+03  0.84743E-02
 0.11145000E+03  0.58522E-02
 0.11150000E+03  0.25204E-02
 0.11155000E+03 -0.14580E-02
 0.11160000E+03 -0.45436E-02
 0.11165000E+03 -0.56760E-02
 0.11170000E+03 -0.38254E-02
 0.11175000E+03 -0.13150E-02
 0.11180000E+03 -0.66295E-03
 0.11185000E+03 -0.72877E-03
 0.11190000E+03 -0.51169E-03
 0.11195000E+03 -0.48051E-04
 0.11200000E+03 -0.55930E-03
 0.11205000E+03 -0.15266E-02
 0.11210000E+03 -0.21707E-02
 0.11215000E+03 -0.26215E-02
 0.11220000E+03 -0.31875E-02
 0.11225000E+03 -0.43595E-02
 0.11230000E+03 -0.62764E-02
 0.11235000E+03 -0.86940E-02
 0.11240000E+03 -0.10843E-01
 0.11245000E+03 -0.11995E-01
 0.11250000E+03 -0.11023E-01
 0.11255000E+03 -0.87461E-02
 0.11260000E+03 -0.60260E-02
 0.11265000E+03 -0.30278E-02
 0.11270000E+03 -0.22563E-03
 0.11275000E+03  0.26048E-02
 0.11280000E+03  0.56858E-02
 0.11285000E+03  0.91022E-02
 0.11290000E+03  0.11713E-01
 0.11295000E+03  0.13478E-01
 0.11300000E+03  0.14953E-01
 0.11305000E+03  0.14628E-01
 0.11310000E+03  0.12611E-01
 0.11315000E+03  0.10008E-01
 0.11320000E+03  0.78955E-02
 0.11325000E+03  0.66291E-02
 0.11330000E+03  0.46641E-02
 0.11335000E+03  0.32182E-02
 0.11340000E+03  0.30343E-02
 0.11345000E+03  0.44356E-02
 0.11350000E+03  0.75012E-02
 0.11355000E+03  0.11344E-01
 0.11360000E+03  0.15010E-01
 0.11365000E+03  0.17163E-01
 0.11370000E+03  0.18182E-01
 0.11375000E+03  0.17132E-01
 0.11380000E+03  0.15100E-01
 0.11385000E+03  0.13283E-01
 0.11390000E+03  0.11350E-01
 0.11395000E+03  0.90234E-02
 0.11400000E+03  0.55057E-02
 0.11405000E+03  0.28479E-02
 0.11410000E+03  0.12913E-02
 0.11415000E+03 -0.66923E-03
 0.11420000E+03 -0.28372E-02
 0.11425000E+03 -0.48833E-02
 0.11430000E+03 -0.68088E-02
 0.11435000E+03 -0.90321E-02
 0.11440000E+03 -0.11239E-01
 0.11445000E+03 -0.13712E-01
 0.11450000E+03 -0.15992E-01
 0.11455000E+03 -0.16624E-01
 0.11460000E+03 -0.15725E-01
 0.11465000E+03 -0.13928E-01
 0.11470000E+03 -0.11670E-01
 0.11475000E+03 -0.91420E-02
 0.11480000E+03 -0.73374E-02
 0.11485000E+03 -0.66513E-02
 0.11490000E+03 -0.60426E-02
 0.11495000E+03 -0.46092E-02
 0.11500000E+03 -0.23900E-02
 0.11505000E+03 -0.27529E-03
 0.11510000E+03  0.42501E-03
 0.11515000E+03 -0.40837E-03
 0.11520000E+03 -0.24895E-02
 0.11525000E+03 -0.48216E-02
 0.11530000E+03 -0.64964E-02
 0.11535000E+03 -0.85835E-02
 0.11540000E+03 -0.10868E-01
 0.11545000E+03 -0.12597E-01
 0.11550000E+03 -0.13573E-01
 0.11555000E+03 -0.13519E-01
 0.11560000E+03 -0.12403E-01
 0.11565000E+03 -0.10614E-01
 0.11570000E+03 -0.86411E-02
 0.11575000E+03 -0.75677E-02
 0.11580000E+03 -0.90484E-02
 0.11585000E+03 -0.12986E-01
 0.11590000E+03 -0.16808E-01
 0.11595000E+03 -0.18842E-01
 0.11600000E+03 -0.19234E-01
 0.11605000E+03 -0.18628E-01
 0.11610000E+03 -0.17220E-01
 0.11615000E+03 -0.14975E-01
 0.11620000E+03 -0.12176E-01
 0.11625000E+03 -0.86158E-02
 0.11630000E+03 -0.52389E-02
 0.11635000E+03 -0.15992E-02
 0.11640000E+03  0.27544E-02
 0.11645000E+03  0.64925E-02
 0.11650000E+03  0.10026E-01
 0.11655000E+03  0.13369E-01
 0.11660000E+03  0.16345E-01
 0.11665000E+03  0.19365E-01
 0.11670000E+03  0.22734E-01
 0.11675000E+03  0.25238E-01
 0.11680000E+03  0.26074E-01
 0.11685000E+03  0.25541E-01
 0.11690000E+03  0.23141E-01
 0.11695000E+03  0.19530E-01
 0.11700000E+03  0.15575E-01
 0.11705000E+03  0.10922E-01
 0.11710000E+03  0.59069E-02
 0.11715000E+03  0.21846E-02
 0.11720000E+03  0.24214E-03
 0.11725000E+03 -0.98835E-03
 0.11730000E+03 -0.22827E-02
 0.11735000E+03 -0.35427E-02
 0.11740000E+03 -0.31448E-02
 0.11745000E+03 -0.68291E-03
 0.11750000E+03  0.23217E-02
 0.11755000E+03  0.53497E-02
 0.11760000E+03  0.80748E-02
 0.11765000E+03  0.10681E-01
 0.11770000E+03  0.13400E-01
 0.11775000E+03  0.16310E-01
 0.11780000E+03  0.19113E-01
 0.11785000E+03  0.21136E-01
 0.11790000E+03  0.21227E-01
 0.11795000E+03  0.19128E-01
 0.11800000E+03  0.14696E-01
 0.11805000E+03  0.92299E-02
 0.11810000E+03  0.36748E-02
 0.11815000E+03 -0.16335E-02
 0.11820000E+03 -0.55216E-02
 0.11825000E+03 -0.77769E-02
 0.11830000E+03 -0.79577E-02
 0.11835000E+03 -0.74659E-02
 0.11840000E+03 -0.74265E-02
 0.11845000E+03 -0.79745E-02
 0.11850000E+03 -0.94016E-02
 0.11855000E+03 -0.11571E-01
 0.11860000E+03 -0.13595E-01
 0.11865000E+03 -0.14946E-01
 0.11870000E+03 -0.15469E-01
 0.11875000E+03 -0.14694E-01
 0.11880000E+03 -0.12063E-01
 0.11885000E+03 -0.80835E-02
 0.11890000E+03 -0.44604E-02
 0.11895000E+03 -0.12966E-02
 0.11900000E+03  0.19944E-02
 0.11905000E+03  0.50427E-02
 0.11910000E+03  0.70404E-02
 0.11915000E+03  0.80553E-02
 0.11920000E+03  0.84914E-02
 0.11925000E+03  0.88853E-02
 0.11930000E+03  0.89182E-02
 0.11935000E+03  0.83601E-02
 0.11940000E+03  0.66932E-02
 0.11945000E+03  0.41695E-02
 0.11950000E+03  0.21753E-02
 0.11955000E+03  0.62242E-03
 0.11960000E+03 -0.12124E-02
 0.11965000E+03 -0.42178E-02
 0.11970000E+03 -0.66456E-02
 0.11975000E+03 -0.84070E-02
 0.11980000E+03 -0.92240E-02
 0.11985000E+03 -0.83931E-02
 0.11990000E+03 -0.57766E-02
 0.11995000E+03 -0.47514E-02
 0.12000000E+03 -0.25298E-02
