 0.00000000E+00  0.54517E-04
 0.50000001E-01  0.12297E-03
 0.10000000E+00  0.17384E-03
 0.15000001E+00  0.20268E-03
 0.20000000E+00  0.29263E-03
 0.25000000E+00  0.34210E-03
 0.30000001E+00  0.36146E-03
 0.34999999E+00  0.33414E-03
 0.40000001E+00  0.32753E-03
 0.45000002E+00  0.31288E-03
 0.50000000E+00  0.34044E-03
 0.55000001E+00  0.40629E-03
 0.60000002E+00  0.41755E-03
 0.65000004E+00  0.47034E-03
 0.69999999E+00  0.49210E-03
 0.75000000E+00  0.55240E-03
 0.80000001E+00  0.63125E-03
 0.85000002E+00  0.70171E-03
 0.90000004E+00  0.66521E-03
 0.94999999E+00  0.70465E-03
 0.10000000E+01  0.66425E-03
 0.10500001E+01  0.57770E-03
 0.11000000E+01  0.51789E-03
 0.11500000E+01  0.40185E-03
 0.12000000E+01  0.27588E-03
 0.12500000E+01  0.12265E-03
 0.13000001E+01  0.82030E-05
 0.13500000E+01 -0.13207E-03
 0.14000000E+01 -0.25203E-03
 0.14500000E+01 -0.36962E-03
 0.15000000E+01 -0.48607E-03
 0.15500001E+01 -0.58779E-03
 0.16000000E+01 -0.63226E-03
 0.16500000E+01 -0.66973E-03
 0.17000000E+01 -0.73050E-03
 0.17500000E+01 -0.73909E-03
 0.18000001E+01 -0.76890E-03
 0.18500000E+01 -0.81342E-03
 0.19000000E+01 -0.78478E-03
 0.19500000E+01 -0.74861E-03
 0.20000000E+01 -0.72068E-03
 0.20500000E+01 -0.70935E-03
 0.21000001E+01 -0.72956E-03
 0.21500001E+01 -0.67261E-03
 0.22000000E+01 -0.64788E-03
 0.22500000E+01 -0.61259E-03
 0.23000000E+01 -0.52372E-03
 0.23500001E+01 -0.49730E-03
 0.24000001E+01 -0.46345E-03
 0.24500000E+01 -0.44906E-03
 0.25000000E+01 -0.38274E-03
 0.25500000E+01 -0.33485E-03
 0.26000001E+01 -0.25399E-03
 0.26500001E+01 -0.20910E-03
 0.27000000E+01 -0.19116E-03
 0.27500000E+01 -0.18008E-03
 0.28000000E+01 -0.15624E-03
 0.28500001E+01 -0.11191E-03
 0.29000001E+01 -0.10361E-03
 0.29500000E+01 -0.95874E-04
 0.30000000E+01 -0.11266E-03
 0.30500000E+01 -0.12071E-03
 0.31000001E+01 -0.12066E-03
 0.31500001E+01 -0.62234E-04
 0.32000000E+01 -0.31959E-04
 0.32500000E+01  0.28654E-04
 0.33000000E+01  0.67542E-04
 0.33500001E+01  0.20463E-03
 0.34000001E+01  0.33327E-03
 0.34500000E+01  0.45843E-03
 0.35000000E+01  0.62584E-03
 0.35500000E+01  0.72375E-03
 0.36000001E+01  0.90619E-03
 0.36500001E+01  0.11079E-02
 0.37000000E+01  0.12553E-02
 0.37500000E+01  0.13658E-02
 0.38000000E+01  0.14553E-02
 0.38500001E+01  0.15391E-02
 0.39000001E+01  0.16241E-02
 0.39500000E+01  0.16601E-02
 0.40000000E+01  0.16536E-02
 0.40500002E+01  0.16378E-02
 0.40999999E+01  0.15539E-02
 0.41500001E+01  0.14313E-02
 0.42000003E+01  0.12753E-02
 0.42500000E+01  0.10807E-02
 0.43000002E+01  0.91331E-03
 0.43499999E+01  0.71437E-03
 0.44000001E+01  0.56164E-03
 0.44500003E+01  0.32775E-03
 0.45000000E+01  0.91680E-04
 0.45500002E+01 -0.70218E-04
 0.45999999E+01 -0.24578E-03
 0.46500001E+01 -0.35409E-03
 0.47000003E+01 -0.52860E-03
 0.47500000E+01 -0.68250E-03
 0.48000002E+01 -0.81211E-03
 0.48499999E+01 -0.98164E-03
 0.49000001E+01 -0.10801E-02
 0.49500003E+01 -0.12020E-02
 0.50000000E+01 -0.12863E-02
 0.50500002E+01 -0.12827E-02
 0.50999999E+01 -0.13437E-02
 0.51500001E+01 -0.12994E-02
 0.52000003E+01 -0.12726E-02
 0.52500000E+01 -0.12396E-02
 0.53000002E+01 -0.11443E-02
 0.53499999E+01 -0.10773E-02
 0.54000001E+01 -0.92964E-03
 0.54500003E+01 -0.80825E-03
 0.55000000E+01 -0.70534E-03
 0.55500002E+01 -0.55495E-03
 0.55999999E+01 -0.41146E-03
 0.56500001E+01 -0.27576E-03
 0.57000003E+01 -0.15678E-03
 0.57500000E+01 -0.74676E-04
 0.58000002E+01  0.40962E-04
 0.58499999E+01  0.13702E-03
 0.59000001E+01  0.25793E-03
 0.59500003E+01  0.41695E-03
 0.60000000E+01  0.56875E-03
 0.60500002E+01  0.68351E-03
 0.60999999E+01  0.70958E-03
 0.61500001E+01  0.78248E-03
 0.62000003E+01  0.84850E-03
 0.62500000E+01  0.86597E-03
 0.63000002E+01  0.89392E-03
 0.63499999E+01  0.83689E-03
 0.64000001E+01  0.78146E-03
 0.64500003E+01  0.70374E-03
 0.65000000E+01  0.57845E-03
 0.65500002E+01  0.47598E-03
 0.65999999E+01  0.36801E-03
 0.66500001E+01  0.26950E-03
 0.67000003E+01  0.21301E-03
 0.67500000E+01  0.16601E-03
 0.68000002E+01  0.12715E-03
 0.68499999E+01  0.12473E-03
 0.69000001E+01  0.12356E-03
 0.69500003E+01  0.14649E-03
 0.70000000E+01  0.13167E-03
 0.70500002E+01  0.12936E-03
 0.70999999E+01  0.15708E-03
 0.71500001E+01  0.14660E-03
 0.72000003E+01  0.12934E-03
 0.72500000E+01  0.13377E-03
 0.73000002E+01  0.76340E-04
 0.73499999E+01  0.17821E-04
 0.74000001E+01  0.51366E-05
 0.74500003E+01 -0.83335E-04
 0.75000000E+01 -0.14582E-03
 0.75500002E+01 -0.22501E-03
 0.75999999E+01 -0.34189E-03
 0.76500001E+01 -0.41939E-03
 0.77000003E+01 -0.47636E-03
 0.77500000E+01 -0.59118E-03
 0.78000002E+01 -0.69046E-03
 0.78499999E+01 -0.75895E-03
 0.79000001E+01 -0.81463E-03
 0.79500003E+01 -0.81046E-03
 0.80000000E+01 -0.82792E-03
 0.80500002E+01 -0.79005E-03
 0.81000004E+01 -0.76090E-03
 0.81500006E+01 -0.69322E-03
 0.81999998E+01 -0.59254E-03
 0.82500000E+01 -0.47073E-03
 0.83000002E+01 -0.31836E-03
 0.83500004E+01 -0.18905E-03
 0.84000006E+01 -0.13943E-04
 0.84499998E+01  0.12565E-03
 0.85000000E+01  0.23271E-03
 0.85500002E+01  0.29285E-03
 0.86000004E+01  0.37261E-03
 0.86500006E+01  0.45456E-03
 0.86999998E+01  0.50514E-03
 0.87500000E+01  0.51219E-03
 0.88000002E+01  0.52674E-03
 0.88500004E+01  0.51976E-03
 0.89000006E+01  0.47859E-03
 0.89499998E+01  0.49345E-03
 0.90000000E+01  0.42693E-03
 0.90500002E+01  0.35661E-03
 0.91000004E+01  0.26664E-03
 0.91500006E+01  0.21018E-03
 0.91999998E+01  0.15233E-03
 0.92500000E+01  0.49317E-04
 0.93000002E+01 -0.23199E-04
 0.93500004E+01 -0.10490E-03
 0.94000006E+01 -0.12127E-03
 0.94499998E+01 -0.20179E-03
 0.95000000E+01 -0.25427E-03
 0.95500002E+01 -0.29783E-03
 0.96000004E+01 -0.34565E-03
 0.96500006E+01 -0.39109E-03
 0.96999998E+01 -0.48319E-03
 0.97500000E+01 -0.55695E-03
 0.98000002E+01 -0.63400E-03
 0.98500004E+01 -0.69983E-03
 0.99000006E+01 -0.75338E-03
 0.99499998E+01 -0.76090E-03
 0.10000000E+02 -0.74641E-03
 0.10050000E+02 -0.70370E-03
 0.10100000E+02 -0.64564E-03
 0.10150001E+02 -0.58364E-03
 0.10200000E+02 -0.43957E-03
 0.10250000E+02 -0.30769E-03
 0.10300000E+02 -0.18860E-03
 0.10350000E+02 -0.53495E-04
 0.10400001E+02  0.10660E-03
 0.10450000E+02  0.25544E-03
 0.10500000E+02  0.40892E-03
 0.10550000E+02  0.57627E-03
 0.10600000E+02  0.67043E-03
 0.10650001E+02  0.78817E-03
 0.10700000E+02  0.81871E-03
 0.10750000E+02  0.86568E-03
 0.10800000E+02  0.90509E-03
 0.10850000E+02  0.88356E-03
 0.10900001E+02  0.85018E-03
 0.10950000E+02  0.79959E-03
 0.11000000E+02  0.74426E-03
 0.11050000E+02  0.69680E-03
 0.11100000E+02  0.61338E-03
 0.11150001E+02  0.52102E-03
 0.11200000E+02  0.44423E-03
 0.11250000E+02  0.32435E-03
 0.11300000E+02  0.22878E-03
 0.11350000E+02  0.16450E-03
 0.11400001E+02  0.10861E-03
 0.11450000E+02  0.29309E-04
 0.11500000E+02 -0.34186E-04
 0.11550000E+02 -0.86412E-04
 0.11600000E+02 -0.13544E-03
 0.11650001E+02 -0.15428E-03
 0.11700000E+02 -0.12280E-03
 0.11750000E+02 -0.10291E-03
 0.11800000E+02 -0.54036E-04
 0.11850000E+02  0.36151E-04
 0.11900001E+02  0.12448E-03
 0.11950000E+02  0.18181E-03
 0.12000000E+02  0.21810E-03
 0.12050000E+02  0.22426E-03
 0.12100000E+02  0.25983E-03
 0.12150001E+02  0.25984E-03
 0.12200000E+02  0.22729E-03
 0.12250000E+02  0.13006E-03
 0.12300000E+02  0.16797E-04
 0.12350000E+02 -0.30747E-04
 0.12400001E+02 -0.95603E-04
 0.12450000E+02 -0.98220E-04
 0.12500000E+02 -0.14499E-03
 0.12550000E+02 -0.17941E-03
 0.12600000E+02 -0.20305E-03
 0.12650001E+02 -0.23653E-03
 0.12700000E+02 -0.27262E-03
 0.12750000E+02 -0.28619E-03
 0.12800000E+02 -0.30402E-03
 0.12850000E+02 -0.31295E-03
 0.12900001E+02 -0.30854E-03
 0.12950000E+02 -0.32914E-03
 0.13000000E+02 -0.36321E-03
 0.13050000E+02 -0.39984E-03
 0.13100000E+02 -0.38192E-03
 0.13150001E+02 -0.39672E-03
 0.13200000E+02 -0.41117E-03
 0.13250000E+02 -0.41551E-03
 0.13300000E+02 -0.43807E-03
 0.13350000E+02 -0.45838E-03
 0.13400001E+02 -0.47572E-03
 0.13450000E+02 -0.47168E-03
 0.13500000E+02 -0.47472E-03
 0.13550000E+02 -0.47584E-03
 0.13600000E+02 -0.44041E-03
 0.13650001E+02 -0.39275E-03
 0.13700000E+02 -0.32938E-03
 0.13750000E+02 -0.29790E-03
 0.13800000E+02 -0.24645E-03
 0.13850000E+02 -0.23294E-03
 0.13900001E+02 -0.20501E-03
 0.13950000E+02 -0.15057E-03
 0.14000000E+02 -0.14433E-03
 0.14050000E+02 -0.99729E-04
 0.14100000E+02 -0.77317E-04
 0.14150001E+02 -0.28680E-04
 0.14200000E+02  0.20017E-05
 0.14250000E+02  0.18116E-04
 0.14300000E+02  0.42108E-04
 0.14350000E+02  0.85054E-04
 0.14400001E+02  0.15975E-03
 0.14450000E+02  0.15682E-03
 0.14500000E+02  0.20731E-03
 0.14550000E+02  0.30761E-03
 0.14600000E+02  0.36879E-03
 0.14650001E+02  0.41782E-03
 0.14700000E+02  0.49713E-03
 0.14750000E+02  0.59869E-03
 0.14800000E+02  0.67957E-03
 0.14850000E+02  0.77869E-03
 0.14900001E+02  0.85690E-03
 0.14950000E+02  0.93218E-03
 0.15000000E+02  0.10495E-02
 0.15050000E+02  0.11513E-02
 0.15100000E+02  0.11713E-02
 0.15150001E+02  0.11981E-02
 0.15200000E+02  0.12371E-02
 0.15250000E+02  0.12737E-02
 0.15300000E+02  0.13244E-02
 0.15350000E+02  0.13030E-02
 0.15400001E+02  0.13043E-02
 0.15450000E+02  0.12997E-02
 0.15500000E+02  0.12326E-02
 0.15550000E+02  0.11519E-02
 0.15600000E+02  0.10600E-02
 0.15650001E+02  0.10001E-02
 0.15700000E+02  0.92696E-03
 0.15750000E+02  0.86887E-03
 0.15800000E+02  0.77001E-03
 0.15850000E+02  0.65394E-03
 0.15900001E+02  0.58711E-03
 0.15950000E+02  0.45757E-03
 0.16000000E+02  0.34007E-03
 0.16050001E+02  0.19644E-03
 0.16100000E+02  0.54425E-04
 0.16150000E+02 -0.16244E-04
 0.16200001E+02 -0.19055E-03
 0.16250000E+02 -0.34853E-03
 0.16300001E+02 -0.52433E-03
 0.16350000E+02 -0.75084E-03
 0.16400000E+02 -0.91503E-03
 0.16450001E+02 -0.10753E-02
 0.16500000E+02 -0.11602E-02
 0.16550001E+02 -0.12406E-02
 0.16600000E+02 -0.13275E-02
 0.16650000E+02 -0.13633E-02
 0.16700001E+02 -0.14055E-02
 0.16750000E+02 -0.14129E-02
 0.16800001E+02 -0.13879E-02
 0.16850000E+02 -0.13526E-02
 0.16900000E+02 -0.13553E-02
 0.16950001E+02 -0.13151E-02
 0.17000000E+02 -0.12500E-02
 0.17050001E+02 -0.11925E-02
 0.17100000E+02 -0.10997E-02
 0.17150000E+02 -0.10370E-02
 0.17200001E+02 -0.97456E-03
 0.17250000E+02 -0.91951E-03
 0.17300001E+02 -0.85262E-03
 0.17350000E+02 -0.81018E-03
 0.17400000E+02 -0.73959E-03
 0.17450001E+02 -0.66986E-03
 0.17500000E+02 -0.56631E-03
 0.17550001E+02 -0.44206E-03
 0.17600000E+02 -0.35262E-03
 0.17650000E+02 -0.26922E-03
 0.17700001E+02 -0.21525E-03
 0.17750000E+02 -0.17391E-03
 0.17800001E+02 -0.14179E-03
 0.17850000E+02 -0.10686E-03
 0.17900000E+02 -0.70296E-04
 0.17950001E+02 -0.75907E-04
 0.18000000E+02 -0.12279E-03
 0.18050001E+02 -0.14309E-03
 0.18100000E+02 -0.14079E-03
 0.18150000E+02 -0.65542E-04
 0.18200001E+02 -0.44999E-04
 0.18250000E+02 -0.12412E-03
 0.18300001E+02 -0.39756E-03
 0.18350000E+02 -0.33641E-03
 0.18400000E+02 -0.10390E-02
 0.18450001E+02 -0.15890E-02
 0.18500000E+02 -0.72777E-03
 0.18550001E+02 -0.13680E-02
 0.18600000E+02 -0.77912E-03
 0.18650000E+02 -0.19516E-02
 0.18700001E+02  0.23392E-02
 0.18750000E+02 -0.18659E-02
 0.18800001E+02  0.37465E-02
 0.18850000E+02 -0.14186E-02
 0.18900000E+02  0.59246E-02
 0.18950001E+02 -0.29103E-02
 0.19000000E+02  0.56377E-02
 0.19050001E+02 -0.13817E-02
 0.19100000E+02  0.73815E-02
 0.19150000E+02  0.87353E-02
 0.19200001E+02  0.31973E-01
 0.19250000E+02  0.70826E-01
 0.19300001E+02  0.11314E+00
 0.19350000E+02  0.17057E+00
 0.19400000E+02  0.16662E+00
 0.19450001E+02  0.26843E+00
 0.19500000E+02  0.11454E+00
 0.19550001E+02  0.58724E-01
 0.19600000E+02  0.19585E-01
 0.19650000E+02  0.46394E-01
 0.19700001E+02 -0.26607E+00
 0.19750000E+02 -0.23625E+00
 0.19800001E+02 -0.11424E+00
 0.19850000E+02 -0.21521E+00
 0.19900000E+02 -0.17345E+00
 0.19950001E+02 -0.38023E-01
 0.20000000E+02  0.12015E+00
 0.20050001E+02 -0.10722E+00
 0.20100000E+02  0.14942E-01
 0.20150000E+02  0.96163E-01
 0.20200001E+02  0.16451E+00
 0.20250000E+02  0.45045E-01
 0.20300001E+02  0.32035E+00
 0.20350000E+02  0.27427E+00
 0.20400000E+02  0.15204E+00
 0.20450001E+02  0.32027E+00
 0.20500000E+02  0.18161E+00
 0.20550001E+02 -0.20421E+00
 0.20600000E+02 -0.71622E-01
 0.20650000E+02  0.91466E-01
 0.20700001E+02 -0.18173E+00
 0.20750000E+02 -0.67367E+00
 0.20800001E+02 -0.44653E+00
 0.20850000E+02  0.28970E+00
 0.20900000E+02 -0.15358E+00
 0.20950001E+02 -0.53825E+00
 0.21000000E+02 -0.11654E+00
 0.21050001E+02  0.21123E+00
 0.21100000E+02 -0.13795E+00
 0.21150000E+02 -0.84633E-01
 0.21200001E+02  0.24231E+00
 0.21250000E+02  0.56068E+00
 0.21300001E+02  0.64405E-01
 0.21350000E+02  0.74678E-02
 0.21400000E+02  0.21023E+00
 0.21450001E+02 -0.31576E+00
 0.21500000E+02 -0.57693E+00
 0.21550001E+02 -0.83093E-01
 0.21600000E+02  0.23973E+00
 0.21650000E+02 -0.26198E+00
 0.21700001E+02 -0.12069E-01
 0.21750000E+02  0.28994E+00
 0.21800001E+02  0.42235E+00
 0.21850000E+02 -0.55228E-01
 0.21900000E+02 -0.25954E+00
 0.21950001E+02 -0.51813E-01
 0.22000000E+02 -0.14779E+00
 0.22050001E+02 -0.38860E-01
 0.22100000E+02  0.22573E-01
 0.22150000E+02  0.89666E-01
 0.22200001E+02  0.24355E-01
 0.22250000E+02 -0.57117E-01
 0.22300001E+02 -0.96103E-01
 0.22350000E+02  0.11524E+00
 0.22400000E+02  0.43806E-01
 0.22450001E+02  0.12468E+00
 0.22500000E+02 -0.77691E-01
 0.22550001E+02 -0.20107E+00
 0.22600000E+02  0.14756E+00
 0.22650000E+02  0.68768E-01
 0.22700001E+02 -0.21279E+00
 0.22750000E+02 -0.28104E+00
 0.22800001E+02  0.13454E+00
 0.22850000E+02 -0.48260E-01
 0.22900000E+02 -0.24768E+00
 0.22950001E+02 -0.27063E-01
 0.23000000E+02 -0.65096E-01
 0.23050001E+02 -0.12145E+00
 0.23100000E+02  0.65889E-01
 0.23150000E+02 -0.34438E-01
 0.23200001E+02 -0.19325E+00
 0.23250000E+02  0.17580E-01
 0.23300001E+02  0.26354E+00
 0.23350000E+02  0.44322E+00
 0.23400000E+02  0.46576E+00
 0.23450001E+02  0.33383E+00
 0.23500000E+02 -0.50141E-01
 0.23550001E+02 -0.22028E+00
 0.23600000E+02 -0.24650E+00
 0.23650000E+02 -0.17942E+00
 0.23700001E+02 -0.62282E-01
 0.23750000E+02 -0.17217E+00
 0.23800001E+02 -0.31197E+00
 0.23850000E+02 -0.28566E+00
 0.23900000E+02 -0.12447E+00
 0.23950001E+02 -0.20504E+00
 0.24000000E+02 -0.49232E-01
 0.24050001E+02  0.16525E+00
 0.24100000E+02  0.24683E+00
 0.24150000E+02  0.40413E+00
 0.24200001E+02  0.55335E+00
 0.24250000E+02  0.60188E+00
 0.24300001E+02  0.22924E+00
 0.24350000E+02  0.97809E-01
 0.24400000E+02 -0.79102E-01
 0.24450001E+02 -0.19070E+00
 0.24500000E+02 -0.31324E+00
 0.24550001E+02 -0.50978E+00
 0.24600000E+02 -0.15450E+00
 0.24650000E+02 -0.55752E-01
 0.24700001E+02 -0.47834E-01
 0.24750000E+02  0.75137E-01
 0.24800001E+02  0.29855E+00
 0.24850000E+02  0.21346E+00
 0.24900000E+02  0.18381E+00
 0.24950001E+02  0.31513E+00
 0.25000000E+02 -0.10029E+00
 0.25050001E+02 -0.30058E+00
 0.25100000E+02  0.19407E-01
 0.25150000E+02  0.32809E+00
 0.25200001E+02  0.87014E-01
 0.25250000E+02 -0.13641E+00
 0.25300001E+02 -0.17164E+00
 0.25350000E+02 -0.12571E+00
 0.25400000E+02  0.85946E-01
 0.25450001E+02  0.80659E-01
 0.25500000E+02  0.17473E-01
 0.25550001E+02  0.22064E+00
 0.25600000E+02  0.29913E+00
 0.25650000E+02  0.28016E+00
 0.25700001E+02  0.18876E+00
 0.25750000E+02 -0.12845E+00
 0.25800001E+02 -0.24275E+00
 0.25850000E+02 -0.16747E+00
 0.25900000E+02 -0.23972E+00
 0.25950001E+02 -0.23897E+00
 0.26000000E+02  0.24969E-01
 0.26050001E+02  0.11816E+00
 0.26100000E+02 -0.96201E-01
 0.26150000E+02 -0.13236E+00
 0.26200001E+02 -0.10987E-01
 0.26250000E+02 -0.19379E+00
 0.26300001E+02 -0.22165E+00
 0.26350000E+02 -0.15797E+00
 0.26400000E+02 -0.44929E-01
 0.26450001E+02  0.12473E+00
 0.26500000E+02  0.18516E+00
 0.26550001E+02  0.21009E+00
 0.26600000E+02  0.17983E+00
 0.26650000E+02  0.13924E+00
 0.26700001E+02 -0.76797E-01
 0.26750000E+02 -0.38193E+00
 0.26800001E+02 -0.50854E+00
 0.26850000E+02 -0.33103E+00
 0.26900000E+02 -0.31620E+00
 0.26950001E+02 -0.39194E+00
 0.27000000E+02 -0.38268E+00
 0.27050001E+02 -0.14720E+00
 0.27100000E+02  0.58004E-02
 0.27150000E+02  0.18654E-01
 0.27200001E+02  0.19575E+00
 0.27250000E+02  0.46322E+00
 0.27300001E+02  0.49671E+00
 0.27350000E+02  0.47663E-01
 0.27400000E+02 -0.17544E+00
 0.27450001E+02 -0.22203E+00
 0.27500000E+02 -0.38541E+00
 0.27550001E+02 -0.59243E+00
 0.27600000E+02 -0.36296E+00
 0.27650000E+02  0.94371E-01
 0.27700001E+02  0.16339E+00
 0.27750000E+02  0.27020E+00
 0.27800001E+02  0.30449E+00
 0.27850000E+02  0.19265E+00
 0.27900000E+02  0.15049E+00
 0.27950001E+02 -0.21851E-01
 0.28000000E+02 -0.24750E+00
 0.28050001E+02 -0.16521E+00
 0.28100000E+02  0.15484E+00
 0.28150000E+02  0.17408E+00
 0.28200001E+02  0.14446E+00
 0.28250000E+02  0.17530E+00
 0.28300001E+02  0.29293E+00
 0.28350000E+02  0.16454E+00
 0.28400000E+02  0.45600E-01
 0.28450001E+02 -0.61372E-01
 0.28500000E+02 -0.31170E+00
 0.28550001E+02 -0.35716E+00
 0.28600000E+02 -0.29047E+00
 0.28650000E+02 -0.31301E-01
 0.28700001E+02  0.14538E+00
 0.28750000E+02  0.29230E+00
 0.28800001E+02  0.16862E+00
 0.28850000E+02  0.15737E+00
 0.28900000E+02  0.27454E+00
 0.28950001E+02  0.23285E+00
 0.29000000E+02  0.11555E+00
 0.29050001E+02 -0.48720E-02
 0.29100000E+02 -0.28779E+00
 0.29150000E+02 -0.38424E+00
 0.29200001E+02 -0.20754E+00
 0.29250000E+02 -0.25316E+00
 0.29300001E+02 -0.29956E-01
 0.29350000E+02  0.15048E+00
 0.29400000E+02  0.39014E+00
 0.29450001E+02  0.48644E+00
 0.29500000E+02  0.30580E+00
 0.29550001E+02  0.16819E+00
 0.29600000E+02 -0.15148E-01
 0.29650000E+02 -0.10106E+00
 0.29700001E+02 -0.18568E+00
 0.29750000E+02 -0.30562E+00
 0.29800001E+02 -0.21841E+00
 0.29850000E+02 -0.11969E+00
 0.29900000E+02 -0.21370E+00
 0.29950001E+02 -0.37168E-01
 0.30000000E+02  0.13673E+00
 0.30050001E+02  0.25039E+00
 0.30100000E+02  0.27393E+00
 0.30150000E+02  0.21325E+00
 0.30200001E+02  0.86490E-01
 0.30250000E+02  0.28275E+00
 0.30300001E+02  0.33541E+00
 0.30350000E+02 -0.13761E-01
 0.30400000E+02 -0.82526E-01
 0.30450001E+02 -0.15630E+00
 0.30500000E+02 -0.18517E-01
 0.30550001E+02  0.50522E-01
 0.30600000E+02  0.84848E-03
 0.30650000E+02 -0.10219E+00
 0.30700001E+02 -0.84434E-01
 0.30750000E+02 -0.89745E-01
 0.30800001E+02 -0.19468E+00
 0.30850000E+02 -0.22037E+00
 0.30900000E+02 -0.12962E+00
 0.30950001E+02 -0.49008E-01
 0.31000000E+02 -0.15008E+00
 0.31050001E+02  0.10946E+00
 0.31100000E+02  0.26816E+00
 0.31150000E+02  0.31316E+00
 0.31200001E+02  0.22854E+00
 0.31250000E+02  0.29243E+00
 0.31300001E+02  0.35386E+00
 0.31350000E+02  0.16510E+00
 0.31400000E+02 -0.42674E-01
 0.31450001E+02 -0.42545E+00
 0.31500000E+02 -0.51482E+00
 0.31550001E+02 -0.47217E+00
 0.31600000E+02 -0.38873E+00
 0.31650000E+02 -0.34445E+00
 0.31700001E+02 -0.18586E+00
 0.31750000E+02 -0.78012E-01
 0.31800001E+02  0.11528E+00
 0.31850000E+02  0.11801E+00
 0.31900000E+02 -0.19937E-01
 0.31950001E+02  0.13347E+00
 0.32000000E+02  0.15829E+00
 0.32049999E+02  0.12817E+00
 0.32100002E+02  0.18829E-01
 0.32150002E+02  0.10514E+00
 0.32200001E+02  0.13428E+00
 0.32250000E+02  0.93168E-01
 0.32299999E+02  0.47673E-01
 0.32350002E+02  0.39210E-02
 0.32400002E+02 -0.10032E+00
 0.32450001E+02 -0.25905E+00
 0.32500000E+02 -0.17105E+00
 0.32549999E+02 -0.18281E+00
 0.32600002E+02 -0.33440E+00
 0.32650002E+02 -0.49723E+00
 0.32700001E+02 -0.29619E+00
 0.32750000E+02  0.94918E-01
 0.32799999E+02  0.24694E+00
 0.32850002E+02  0.33203E+00
 0.32900002E+02  0.46490E+00
 0.32950001E+02  0.66777E+00
 0.33000000E+02  0.78621E+00
 0.33049999E+02  0.67541E+00
 0.33100002E+02  0.40602E+00
 0.33150002E+02  0.37610E+00
 0.33200001E+02  0.12838E+00
 0.33250000E+02 -0.16354E+00
 0.33299999E+02 -0.35166E+00
 0.33350002E+02 -0.56765E+00
 0.33400002E+02 -0.38552E+00
 0.33450001E+02 -0.19790E+00
 0.33500000E+02 -0.69368E-01
 0.33549999E+02 -0.77698E-01
 0.33600002E+02  0.13126E+00
 0.33650002E+02  0.44804E+00
 0.33700001E+02  0.44471E+00
 0.33750000E+02  0.22517E+00
 0.33799999E+02  0.14505E+00
 0.33850002E+02  0.22784E+00
 0.33900002E+02  0.13433E-01
 0.33950001E+02 -0.13868E+00
 0.34000000E+02 -0.18016E+00
 0.34049999E+02 -0.34282E+00
 0.34100002E+02 -0.41790E+00
 0.34150002E+02 -0.15542E+00
 0.34200001E+02  0.36497E+00
 0.34250000E+02  0.53110E+00
 0.34299999E+02  0.20511E+00
 0.34350002E+02  0.16887E+00
 0.34400002E+02  0.99367E-01
 0.34450001E+02 -0.14332E+00
 0.34500000E+02 -0.13807E+00
 0.34549999E+02 -0.22158E+00
 0.34600002E+02 -0.29975E+00
 0.34650002E+02 -0.60059E+00
 0.34700001E+02 -0.10000E+01
 0.34750000E+02 -0.92155E+00
 0.34799999E+02 -0.50047E+00
 0.34850002E+02 -0.93011E-01
 0.34900002E+02  0.27351E+00
 0.34950001E+02  0.67599E-01
 0.35000000E+02 -0.17928E-02
 0.35049999E+02  0.44480E+00
 0.35100002E+02  0.36834E+00
 0.35150002E+02  0.18440E+00
 0.35200001E+02  0.33397E+00
 0.35250000E+02  0.49984E+00
 0.35299999E+02  0.45344E+00
 0.35350002E+02 -0.11524E-01
 0.35400002E+02 -0.53049E+00
 0.35450001E+02 -0.37550E-01
 0.35500000E+02  0.16397E+00
 0.35549999E+02 -0.19286E+00
 0.35600002E+02 -0.40632E+00
 0.35650002E+02 -0.56678E+00
 0.35700001E+02 -0.21695E+00
 0.35750000E+02 -0.42777E-01
 0.35799999E+02  0.14469E+00
 0.35850002E+02  0.19605E+00
 0.35900002E+02 -0.13393E+00
 0.35950001E+02 -0.17280E+00
 0.36000000E+02  0.20399E+00
 0.36049999E+02  0.51758E+00
 0.36100002E+02  0.64387E+00
 0.36150002E+02  0.44933E+00
 0.36200001E+02  0.66144E-01
 0.36250000E+02 -0.10850E+00
 0.36299999E+02 -0.19553E+00
 0.36350002E+02  0.41195E-01
 0.36400002E+02  0.27369E+00
 0.36450001E+02  0.21361E+00
 0.36500000E+02 -0.12965E+00
 0.36549999E+02 -0.34475E+00
 0.36600002E+02 -0.41906E-01
 0.36650002E+02  0.35115E+00
 0.36700001E+02  0.26774E+00
 0.36750000E+02 -0.15789E+00
 0.36799999E+02 -0.37378E+00
 0.36850002E+02 -0.53050E-01
 0.36900002E+02  0.52618E+00
 0.36950001E+02  0.53868E+00
 0.37000000E+02  0.62264E-03
 0.37049999E+02 -0.43928E+00
 0.37100002E+02 -0.31862E+00
 0.37150002E+02  0.29905E+00
 0.37200001E+02  0.72607E+00
 0.37250000E+02  0.52597E+00
 0.37299999E+02  0.67609E-02
 0.37350002E+02 -0.26279E+00
 0.37400002E+02 -0.27527E+00
 0.37450001E+02 -0.24585E+00
 0.37500000E+02 -0.33969E+00
 0.37549999E+02 -0.45873E+00
 0.37600002E+02 -0.35757E+00
 0.37650002E+02 -0.19846E+00
 0.37700001E+02 -0.78506E-01
 0.37750000E+02  0.50384E-01
 0.37799999E+02  0.21662E+00
 0.37850002E+02  0.34187E+00
 0.37900002E+02  0.24871E+00
 0.37950001E+02  0.13226E+00
 0.38000000E+02  0.29096E+00
 0.38049999E+02  0.46741E+00
 0.38100002E+02  0.41168E+00
 0.38150002E+02  0.14911E+00
 0.38200001E+02 -0.44015E-01
 0.38250000E+02 -0.23825E+00
 0.38299999E+02 -0.41508E+00
 0.38350002E+02 -0.24986E+00
 0.38400002E+02  0.10684E+00
 0.38450001E+02  0.48196E+00
 0.38500000E+02  0.56545E+00
 0.38549999E+02  0.25154E+00
 0.38600002E+02 -0.17876E+00
 0.38650002E+02 -0.64260E+00
 0.38700001E+02 -0.64493E+00
 0.38750000E+02 -0.88324E-01
 0.38799999E+02  0.17348E+00
 0.38850002E+02  0.16630E+00
 0.38900002E+02  0.18545E+00
 0.38950001E+02  0.14371E+00
 0.39000000E+02  0.14664E+00
 0.39049999E+02  0.74901E-01
 0.39100002E+02  0.54449E-01
 0.39150002E+02  0.11291E+00
 0.39200001E+02 -0.22956E-02
 0.39250000E+02 -0.74087E-01
 0.39299999E+02  0.96385E-01
 0.39350002E+02  0.16029E+00
 0.39400002E+02  0.19371E+00
 0.39450001E+02  0.27649E+00
 0.39500000E+02  0.23043E+00
 0.39549999E+02  0.11313E+00
 0.39600002E+02 -0.18475E+00
 0.39650002E+02 -0.32315E+00
 0.39700001E+02 -0.22955E+00
 0.39750000E+02 -0.22710E+00
 0.39799999E+02 -0.18832E+00
 0.39850002E+02 -0.14410E+00
 0.39900002E+02 -0.11018E+00
 0.39950001E+02 -0.19834E+00
 0.40000000E+02 -0.31842E+00
 0.40049999E+02 -0.27448E+00
 0.40100002E+02 -0.67642E-01
 0.40150002E+02  0.14214E+00
 0.40200001E+02  0.12544E+00
 0.40250000E+02  0.16230E-01
 0.40299999E+02 -0.60261E-01
 0.40350002E+02  0.60219E-01
 0.40400002E+02 -0.14366E-01
 0.40450001E+02 -0.22514E+00
 0.40500000E+02 -0.24430E+00
 0.40549999E+02  0.93182E-02
 0.40600002E+02  0.23792E+00
 0.40650002E+02  0.79316E-01
 0.40700001E+02 -0.16552E+00
 0.40750000E+02 -0.33395E+00
 0.40799999E+02 -0.44593E+00
 0.40850002E+02 -0.59577E+00
 0.40900002E+02 -0.52277E+00
 0.40950001E+02 -0.37006E+00
 0.41000000E+02 -0.36192E+00
 0.41049999E+02 -0.27667E+00
 0.41100002E+02 -0.23461E+00
 0.41150002E+02 -0.19517E+00
 0.41200001E+02 -0.17168E-01
 0.41250000E+02  0.14745E+00
 0.41299999E+02  0.23670E+00
 0.41350002E+02  0.36873E+00
 0.41400002E+02  0.47904E+00
 0.41450001E+02  0.48004E+00
 0.41500000E+02  0.47235E+00
 0.41549999E+02  0.35068E+00
 0.41600002E+02  0.14890E+00
 0.41650002E+02 -0.27744E-01
 0.41700001E+02 -0.68648E-01
 0.41750000E+02 -0.11109E-01
 0.41799999E+02 -0.52415E-01
 0.41850002E+02 -0.21119E+00
 0.41900002E+02 -0.39275E+00
 0.41950001E+02 -0.38588E+00
 0.42000000E+02 -0.21125E+00
 0.42049999E+02 -0.10692E-01
 0.42100002E+02  0.19398E+00
 0.42150002E+02  0.24045E+00
 0.42200001E+02  0.28109E+00
 0.42250000E+02  0.44972E+00
 0.42299999E+02  0.54273E+00
 0.42350002E+02  0.53623E+00
 0.42400002E+02  0.30000E+00
 0.42450001E+02 -0.54809E-01
 0.42500000E+02 -0.22544E+00
 0.42549999E+02 -0.21892E+00
 0.42600002E+02 -0.26597E+00
 0.42650002E+02 -0.32955E+00
 0.42700001E+02 -0.22618E+00
 0.42750000E+02 -0.80433E-01
 0.42799999E+02  0.23676E-01
 0.42850002E+02  0.57031E-01
 0.42900002E+02  0.16238E-02
 0.42950001E+02 -0.79421E-01
 0.43000000E+02 -0.17008E+00
 0.43049999E+02 -0.16181E+00
 0.43100002E+02 -0.12305E+00
 0.43150002E+02 -0.35275E-01
 0.43200001E+02  0.80327E-01
 0.43250000E+02  0.78759E-01
 0.43299999E+02  0.11321E-01
 0.43350002E+02  0.11729E-01
 0.43400002E+02 -0.48746E-01
 0.43450001E+02 -0.32168E+00
 0.43500000E+02 -0.62645E+00
 0.43549999E+02 -0.71116E+00
 0.43600002E+02 -0.67988E+00
 0.43650002E+02 -0.67768E+00
 0.43700001E+02 -0.53082E+00
 0.43750000E+02 -0.24146E+00
 0.43799999E+02  0.73540E-01
 0.43850002E+02  0.28526E+00
 0.43900002E+02  0.39408E+00
 0.43950001E+02  0.39617E+00
 0.44000000E+02  0.39708E+00
 0.44049999E+02  0.33165E+00
 0.44100002E+02  0.10606E+00
 0.44150002E+02 -0.12770E+00
 0.44200001E+02 -0.28737E+00
 0.44250000E+02 -0.32917E+00
 0.44299999E+02 -0.27092E+00
 0.44350002E+02 -0.14070E+00
 0.44400002E+02 -0.30969E-02
 0.44450001E+02  0.58504E-01
 0.44500000E+02  0.13407E+00
 0.44549999E+02  0.25440E+00
 0.44600002E+02  0.32946E+00
 0.44650002E+02  0.31028E+00
 0.44700001E+02  0.30975E+00
 0.44750000E+02  0.38856E+00
 0.44799999E+02  0.43767E+00
 0.44850002E+02  0.38947E+00
 0.44900002E+02  0.20041E+00
 0.44950001E+02  0.33513E-01
 0.45000000E+02  0.49527E-01
 0.45049999E+02  0.56360E-01
 0.45100002E+02  0.17916E-01
 0.45150002E+02 -0.49424E-01
 0.45200001E+02 -0.17726E+00
 0.45250000E+02 -0.27651E+00
 0.45299999E+02 -0.32856E+00
 0.45350002E+02 -0.26892E+00
 0.45400002E+02 -0.11551E+00
 0.45450001E+02  0.67544E-01
 0.45500000E+02  0.19100E+00
 0.45549999E+02  0.23071E+00
 0.45600002E+02  0.26126E+00
 0.45650002E+02  0.26583E+00
 0.45700001E+02  0.13252E+00
 0.45750000E+02 -0.20002E-02
 0.45799999E+02 -0.35840E-01
 0.45850002E+02 -0.51018E-01
 0.45900002E+02  0.99401E-03
 0.45950001E+02  0.14492E+00
 0.46000000E+02  0.36844E+00
 0.46049999E+02  0.49890E+00
 0.46100002E+02  0.45711E+00
 0.46150002E+02  0.32962E+00
 0.46200001E+02  0.17531E+00
 0.46250000E+02  0.80412E-01
 0.46299999E+02 -0.77917E-01
 0.46350002E+02 -0.29700E+00
 0.46400002E+02 -0.45528E+00
 0.46450001E+02 -0.51776E+00
 0.46500000E+02 -0.53710E+00
 0.46549999E+02 -0.43821E+00
 0.46600002E+02 -0.16783E+00
 0.46650002E+02  0.88210E-01
 0.46700001E+02  0.28672E+00
 0.46750000E+02  0.33971E+00
 0.46799999E+02  0.26189E+00
 0.46850002E+02  0.12947E+00
 0.46900002E+02 -0.10332E-01
 0.46950001E+02 -0.12774E+00
 0.47000000E+02 -0.10502E+00
 0.47049999E+02  0.11900E+00
 0.47100002E+02  0.38777E+00
 0.47150002E+02  0.46539E+00
 0.47200001E+02  0.41217E+00
 0.47250000E+02  0.38201E+00
 0.47299999E+02  0.33578E+00
 0.47350002E+02  0.18699E+00
 0.47400002E+02 -0.71083E-01
 0.47450001E+02 -0.31029E+00
 0.47500000E+02 -0.45261E+00
 0.47549999E+02 -0.56060E+00
 0.47600002E+02 -0.59905E+00
 0.47650002E+02 -0.48112E+00
 0.47700001E+02 -0.30395E+00
 0.47750000E+02 -0.62280E-01
 0.47799999E+02  0.20725E+00
 0.47850002E+02  0.37975E+00
 0.47900002E+02  0.47276E+00
 0.47950001E+02  0.57372E+00
 0.48000000E+02  0.56311E+00
 0.48049999E+02  0.43679E+00
 0.48100002E+02  0.28524E+00
 0.48150002E+02  0.21804E-01
 0.48200001E+02 -0.27811E+00
 0.48250000E+02 -0.40385E+00
 0.48299999E+02 -0.38974E+00
 0.48350002E+02 -0.25975E+00
 0.48400002E+02 -0.12071E+00
 0.48450001E+02 -0.22462E-01
 0.48500000E+02 -0.12617E-01
 0.48549999E+02  0.31863E-01
 0.48600002E+02  0.16706E+00
 0.48650002E+02  0.20590E+00
 0.48700001E+02  0.18434E+00
 0.48750000E+02  0.70001E-01
 0.48799999E+02 -0.16064E-01
 0.48850002E+02  0.72282E-01
 0.48900002E+02  0.30728E+00
 0.48950001E+02  0.39944E+00
 0.49000000E+02  0.32887E+00
 0.49049999E+02  0.26881E+00
 0.49100002E+02  0.16774E+00
 0.49150002E+02  0.89980E-02
 0.49200001E+02 -0.18762E+00
 0.49250000E+02 -0.30350E+00
 0.49299999E+02 -0.30975E+00
 0.49350002E+02 -0.31261E+00
 0.49400002E+02 -0.27717E+00
 0.49450001E+02 -0.24161E+00
 0.49500000E+02 -0.19895E+00
 0.49549999E+02 -0.71739E-01
 0.49600002E+02  0.49400E-02
 0.49650002E+02  0.50950E-01
 0.49700001E+02  0.27765E-01
 0.49750000E+02  0.60040E-02
 0.49799999E+02 -0.61003E-01
 0.49850002E+02 -0.22424E+00
 0.49900002E+02 -0.27679E+00
 0.49950001E+02 -0.27533E+00
 0.50000000E+02 -0.26343E+00
 0.50049999E+02 -0.27865E+00
 0.50100002E+02 -0.27567E+00
 0.50150002E+02 -0.21978E+00
 0.50200001E+02 -0.16375E+00
 0.50250000E+02 -0.14776E+00
 0.50299999E+02 -0.76921E-01
 0.50350002E+02  0.13394E-01
 0.50400002E+02  0.35304E-01
 0.50450001E+02  0.49502E-01
 0.50500000E+02  0.11959E+00
 0.50549999E+02  0.23560E+00
 0.50600002E+02  0.29120E+00
 0.50650002E+02  0.26889E+00
 0.50700001E+02  0.22331E+00
 0.50750000E+02  0.23118E+00
 0.50799999E+02  0.22227E+00
 0.50850002E+02  0.18492E+00
 0.50900002E+02  0.14830E+00
 0.50950001E+02  0.65068E-01
 0.51000000E+02 -0.19294E-01
 0.51049999E+02 -0.97166E-01
 0.51100002E+02 -0.16024E+00
 0.51150002E+02 -0.14331E+00
 0.51200001E+02 -0.43268E-01
 0.51250000E+02  0.52409E-01
 0.51299999E+02  0.69186E-01
 0.51350002E+02  0.24357E-01
 0.51400002E+02 -0.47668E-01
 0.51450001E+02 -0.52370E-01
 0.51500000E+02 -0.16123E-01
 0.51549999E+02 -0.93206E-02
 0.51600002E+02 -0.65608E-01
 0.51650002E+02 -0.16403E+00
 0.51700001E+02 -0.21575E+00
 0.51750000E+02 -0.12548E+00
 0.51799999E+02  0.27027E-01
 0.51850002E+02  0.10680E+00
 0.51900002E+02  0.11931E+00
 0.51950001E+02  0.12201E+00
 0.52000000E+02  0.11019E+00
 0.52049999E+02  0.50030E-01
 0.52100002E+02 -0.17366E-01
 0.52150002E+02 -0.12450E+00
 0.52200001E+02 -0.18166E+00
 0.52250000E+02 -0.16453E+00
 0.52299999E+02 -0.15471E+00
 0.52350002E+02 -0.15622E+00
 0.52400002E+02 -0.17420E+00
 0.52450001E+02 -0.25208E+00
 0.52500000E+02 -0.34487E+00
 0.52549999E+02 -0.37621E+00
 0.52600002E+02 -0.34361E+00
 0.52650002E+02 -0.30016E+00
 0.52700001E+02 -0.21450E+00
 0.52750000E+02 -0.87427E-01
 0.52799999E+02  0.18976E-01
 0.52850002E+02  0.88700E-01
 0.52900002E+02  0.13796E+00
 0.52950001E+02  0.21331E+00
 0.53000000E+02  0.27026E+00
 0.53049999E+02  0.25154E+00
 0.53100002E+02  0.20737E+00
 0.53150002E+02  0.25025E+00
 0.53200001E+02  0.24108E+00
 0.53250000E+02  0.16137E+00
 0.53299999E+02  0.95670E-01
 0.53350002E+02  0.34927E-01
 0.53400002E+02  0.19751E-01
 0.53450001E+02  0.37569E-01
 0.53500000E+02 -0.12337E-01
 0.53549999E+02 -0.77384E-01
 0.53600002E+02 -0.35150E-01
 0.53650002E+02  0.25777E-01
 0.53700001E+02  0.77218E-01
 0.53750000E+02  0.13536E+00
 0.53799999E+02  0.22379E+00
 0.53850002E+02  0.28462E+00
 0.53900002E+02  0.31588E+00
 0.53950001E+02  0.27711E+00
 0.54000000E+02  0.16634E+00
 0.54049999E+02  0.56413E-01
 0.54100002E+02 -0.74875E-01
 0.54150002E+02 -0.15670E+00
 0.54200001E+02 -0.18747E+00
 0.54250000E+02 -0.22286E+00
 0.54299999E+02 -0.27457E+00
 0.54350002E+02 -0.26244E+00
 0.54400002E+02 -0.15273E+00
 0.54450001E+02  0.36322E-01
 0.54500000E+02  0.18063E+00
 0.54549999E+02  0.24216E+00
 0.54600002E+02  0.26723E+00
 0.54650002E+02  0.23616E+00
 0.54700001E+02  0.11278E+00
 0.54750000E+02 -0.74240E-01
 0.54799999E+02 -0.20131E+00
 0.54850002E+02 -0.22941E+00
 0.54900002E+02 -0.20222E+00
 0.54950001E+02 -0.16293E+00
 0.55000000E+02 -0.12722E+00
 0.55049999E+02 -0.16361E+00
 0.55100002E+02 -0.20164E+00
 0.55150002E+02 -0.23508E+00
 0.55200001E+02 -0.25042E+00
 0.55250000E+02 -0.18850E+00
 0.55299999E+02 -0.83847E-01
 0.55350002E+02  0.18809E-01
 0.55400002E+02  0.75511E-01
 0.55450001E+02  0.12760E+00
 0.55500000E+02  0.23138E+00
 0.55549999E+02  0.33130E+00
 0.55600002E+02  0.27699E+00
 0.55650002E+02  0.14703E+00
 0.55700001E+02  0.44336E-01
 0.55750000E+02  0.12142E-01
 0.55799999E+02  0.13403E-01
 0.55850002E+02  0.13358E-01
 0.55900002E+02 -0.11294E-02
 0.55950001E+02  0.19304E-01
 0.56000000E+02  0.14153E+00
 0.56049999E+02  0.26552E+00
 0.56100002E+02  0.33940E+00
 0.56150002E+02  0.32007E+00
 0.56200001E+02  0.22552E+00
 0.56250000E+02  0.10224E+00
 0.56299999E+02 -0.52942E-01
 0.56350002E+02 -0.17592E+00
 0.56400002E+02 -0.18775E+00
 0.56450001E+02 -0.17674E+00
 0.56500000E+02 -0.19529E+00
 0.56549999E+02 -0.19864E+00
 0.56600002E+02 -0.20896E+00
 0.56650002E+02 -0.24502E+00
 0.56700001E+02 -0.27662E+00
 0.56750000E+02 -0.29368E+00
 0.56799999E+02 -0.26518E+00
 0.56850002E+02 -0.19068E+00
 0.56900002E+02 -0.14022E+00
 0.56950001E+02 -0.10047E+00
 0.57000000E+02 -0.42156E-01
 0.57049999E+02  0.32388E-01
 0.57100002E+02  0.96108E-01
 0.57150002E+02  0.11673E+00
 0.57200001E+02  0.12429E+00
 0.57250000E+02  0.14496E+00
 0.57299999E+02  0.14125E+00
 0.57350002E+02  0.66412E-01
 0.57400002E+02 -0.44340E-01
 0.57450001E+02 -0.10610E+00
 0.57500000E+02 -0.92995E-01
 0.57549999E+02 -0.60329E-01
 0.57600002E+02 -0.45684E-01
 0.57650002E+02 -0.25028E-01
 0.57700001E+02  0.10464E-01
 0.57750000E+02  0.53175E-01
 0.57799999E+02  0.11028E+00
 0.57850002E+02  0.11308E+00
 0.57900002E+02  0.62057E-01
 0.57950001E+02 -0.42347E-02
 0.58000000E+02 -0.43211E-01
 0.58049999E+02  0.97381E-02
 0.58100002E+02  0.10254E+00
 0.58150002E+02  0.22608E+00
 0.58200001E+02  0.33554E+00
 0.58250000E+02  0.39146E+00
 0.58299999E+02  0.38880E+00
 0.58350002E+02  0.31174E+00
 0.58400002E+02  0.19976E+00
 0.58450001E+02  0.88668E-01
 0.58500000E+02 -0.41323E-01
 0.58549999E+02 -0.16229E+00
 0.58600002E+02 -0.21202E+00
 0.58650002E+02 -0.25036E+00
 0.58700001E+02 -0.23410E+00
 0.58750000E+02 -0.16324E+00
 0.58799999E+02 -0.89156E-01
 0.58850002E+02  0.26096E-02
 0.58900002E+02  0.92553E-01
 0.58950001E+02  0.16511E+00
 0.59000000E+02  0.21657E+00
 0.59049999E+02  0.22846E+00
 0.59100002E+02  0.17185E+00
 0.59150002E+02  0.76547E-01
 0.59200001E+02 -0.64918E-02
 0.59250000E+02 -0.46949E-01
 0.59299999E+02 -0.33212E-01
 0.59350002E+02 -0.34754E-01
 0.59400002E+02 -0.64803E-01
 0.59450001E+02 -0.92238E-01
 0.59500000E+02 -0.16283E+00
 0.59549999E+02 -0.24431E+00
 0.59600002E+02 -0.28019E+00
 0.59650002E+02 -0.25563E+00
 0.59700001E+02 -0.19442E+00
 0.59750000E+02 -0.89770E-01
 0.59799999E+02  0.23135E-01
 0.59850002E+02  0.71333E-01
 0.59900002E+02  0.64126E-01
 0.59950001E+02  0.83358E-01
 0.60000000E+02  0.13808E+00
 0.60049999E+02  0.15454E+00
 0.60100002E+02  0.11895E+00
 0.60150002E+02  0.56455E-01
 0.60200001E+02 -0.20366E-01
 0.60250000E+02 -0.10632E+00
 0.60299999E+02 -0.16197E+00
 0.60350002E+02 -0.15752E+00
 0.60400002E+02 -0.98483E-01
 0.60450001E+02 -0.55592E-01
 0.60500000E+02 -0.49727E-01
 0.60549999E+02 -0.42849E-01
 0.60600002E+02 -0.48697E-01
 0.60650002E+02 -0.91122E-01
 0.60700001E+02 -0.12002E+00
 0.60750000E+02 -0.10473E+00
 0.60799999E+02 -0.68690E-01
 0.60850002E+02 -0.34669E-01
 0.60900002E+02  0.17032E-02
 0.60950001E+02  0.71314E-01
 0.61000000E+02  0.16471E+00
 0.61049999E+02  0.24193E+00
 0.61100002E+02  0.23946E+00
 0.61150002E+02  0.17404E+00
 0.61200001E+02  0.88763E-01
 0.61250000E+02  0.10299E-01
 0.61299999E+02 -0.41462E-01
 0.61350002E+02 -0.78982E-01
 0.61400002E+02 -0.84260E-01
 0.61450001E+02 -0.77017E-01
 0.61500000E+02 -0.10803E+00
 0.61549999E+02 -0.16565E+00
 0.61600002E+02 -0.22594E+00
 0.61650002E+02 -0.23948E+00
 0.61700001E+02 -0.17249E+00
 0.61750000E+02 -0.63148E-01
 0.61799999E+02  0.30006E-01
 0.61850002E+02  0.90178E-01
 0.61900002E+02  0.90825E-01
 0.61950001E+02  0.84940E-01
 0.62000000E+02  0.10772E+00
 0.62049999E+02  0.12906E+00
 0.62100002E+02  0.13412E+00
 0.62150002E+02  0.10018E+00
 0.62200001E+02  0.65775E-01
 0.62250000E+02  0.33937E-01
 0.62299999E+02  0.34717E-01
 0.62350002E+02  0.47362E-01
 0.62400002E+02  0.45661E-01
 0.62450001E+02  0.63740E-01
 0.62500000E+02  0.98822E-01
 0.62549999E+02  0.10048E+00
 0.62600002E+02  0.63770E-01
 0.62650002E+02  0.49540E-01
 0.62700001E+02  0.54717E-01
 0.62750000E+02  0.12324E-01
 0.62799999E+02 -0.44949E-01
 0.62850002E+02 -0.42748E-01
 0.62900002E+02  0.75329E-03
 0.62950001E+02  0.65022E-01
 0.63000000E+02  0.11405E+00
 0.63049999E+02  0.12411E+00
 0.63100002E+02  0.13064E+00
 0.63150002E+02  0.15305E+00
 0.63200001E+02  0.15615E+00
 0.63250000E+02  0.81596E-01
 0.63299999E+02 -0.24647E-01
 0.63350002E+02 -0.69359E-01
 0.63400002E+02 -0.95475E-01
 0.63450001E+02 -0.12411E+00
 0.63500000E+02 -0.15370E+00
 0.63549999E+02 -0.17095E+00
 0.63600002E+02 -0.15299E+00
 0.63650002E+02 -0.12144E+00
 0.63700001E+02 -0.75724E-01
 0.63750000E+02 -0.51728E-01
 0.63799999E+02 -0.37761E-01
 0.63850002E+02 -0.44707E-01
 0.63900002E+02 -0.11398E+00
 0.63950001E+02 -0.17922E+00
 0.64000000E+02 -0.16477E+00
 0.64050003E+02 -0.85936E-01
 0.64099998E+02 -0.31328E-01
 0.64150002E+02  0.43696E-02
 0.64200005E+02  0.41590E-01
 0.64250000E+02  0.64986E-01
 0.64300003E+02  0.69943E-01
 0.64349998E+02  0.52259E-01
 0.64400002E+02  0.35718E-01
 0.64450005E+02  0.75854E-02
 0.64500000E+02 -0.50072E-01
 0.64550003E+02 -0.10339E+00
 0.64599998E+02 -0.10946E+00
 0.64650002E+02 -0.67253E-01
 0.64700005E+02 -0.91199E-02
 0.64750000E+02  0.41497E-01
 0.64800003E+02  0.83191E-01
 0.64849998E+02  0.10707E+00
 0.64900002E+02  0.10725E+00
 0.64950005E+02  0.90401E-01
 0.65000000E+02  0.67898E-01
 0.65050003E+02  0.49886E-01
 0.65099998E+02  0.43726E-01
 0.65150002E+02  0.41236E-01
 0.65200005E+02  0.18483E-01
 0.65250000E+02 -0.47930E-01
 0.65300003E+02 -0.90388E-01
 0.65349998E+02 -0.74709E-01
 0.65400002E+02 -0.44384E-01
 0.65450005E+02 -0.34792E-01
 0.65500000E+02 -0.27949E-01
 0.65550003E+02 -0.82438E-02
 0.65599998E+02 -0.23835E-01
 0.65650002E+02 -0.49714E-01
 0.65700005E+02 -0.56477E-01
 0.65750000E+02 -0.42693E-01
 0.65800003E+02 -0.33542E-01
 0.65849998E+02 -0.18576E-01
 0.65900002E+02  0.13560E-01
 0.65950005E+02  0.83814E-01
 0.66000000E+02  0.15621E+00
 0.66050003E+02  0.16564E+00
 0.66099998E+02  0.11530E+00
 0.66150002E+02  0.41175E-01
 0.66200005E+02  0.58973E-02
 0.66250000E+02  0.22703E-02
 0.66300003E+02  0.16461E-01
 0.66349998E+02  0.28537E-01
 0.66400002E+02  0.57585E-01
 0.66450005E+02  0.81547E-01
 0.66500000E+02  0.10665E+00
 0.66550003E+02  0.11654E+00
 0.66599998E+02  0.60537E-01
 0.66650002E+02 -0.39528E-01
 0.66700005E+02 -0.16008E+00
 0.66750000E+02 -0.24972E+00
 0.66800003E+02 -0.28561E+00
 0.66849998E+02 -0.24468E+00
 0.66900002E+02 -0.19275E+00
 0.66950005E+02 -0.13587E+00
 0.67000000E+02 -0.49918E-01
 0.67050003E+02  0.45410E-01
 0.67099998E+02  0.11099E+00
 0.67150002E+02  0.12440E+00
 0.67200005E+02  0.13728E+00
 0.67250000E+02  0.16215E+00
 0.67300003E+02  0.19198E+00
 0.67349998E+02  0.20083E+00
 0.67400002E+02  0.17060E+00
 0.67450005E+02  0.95946E-01
 0.67500000E+02 -0.14493E-01
 0.67550003E+02 -0.13338E+00
 0.67599998E+02 -0.19721E+00
 0.67650002E+02 -0.20536E+00
 0.67700005E+02 -0.18205E+00
 0.67750000E+02 -0.12743E+00
 0.67800003E+02 -0.47835E-01
 0.67849998E+02  0.46959E-01
 0.67900002E+02  0.14710E+00
 0.67950005E+02  0.22438E+00
 0.68000000E+02  0.25352E+00
 0.68050003E+02  0.23879E+00
 0.68099998E+02  0.18755E+00
 0.68150002E+02  0.13377E+00
 0.68200005E+02  0.85981E-01
 0.68250000E+02  0.39776E-01
 0.68300003E+02  0.72590E-02
 0.68349998E+02 -0.39304E-01
 0.68400002E+02 -0.11697E+00
 0.68450005E+02 -0.17912E+00
 0.68500000E+02 -0.21364E+00
 0.68550003E+02 -0.23757E+00
 0.68599998E+02 -0.23466E+00
 0.68650002E+02 -0.21002E+00
 0.68700005E+02 -0.19728E+00
 0.68750000E+02 -0.17696E+00
 0.68800003E+02 -0.15735E+00
 0.68849998E+02 -0.11512E+00
 0.68900002E+02 -0.14644E-01
 0.68950005E+02  0.86586E-01
 0.69000000E+02  0.17828E+00
 0.69050003E+02  0.23624E+00
 0.69099998E+02  0.24990E+00
 0.69150002E+02  0.26048E+00
 0.69200005E+02  0.23345E+00
 0.69250000E+02  0.15585E+00
 0.69300003E+02  0.71252E-01
 0.69349998E+02  0.27763E-03
 0.69400002E+02 -0.46141E-01
 0.69450005E+02 -0.80788E-01
 0.69500000E+02 -0.11337E+00
 0.69550003E+02 -0.13326E+00
 0.69599998E+02 -0.12951E+00
 0.69650002E+02 -0.10470E+00
 0.69700005E+02 -0.80394E-01
 0.69750000E+02 -0.75086E-01
 0.69800003E+02 -0.55643E-01
 0.69849998E+02  0.17807E-02
 0.69900002E+02  0.74180E-01
 0.69950005E+02  0.10402E+00
 0.70000000E+02  0.70684E-01
 0.70050003E+02  0.48121E-01
 0.70099998E+02  0.54925E-01
 0.70150002E+02  0.71526E-01
 0.70200005E+02  0.76721E-01
 0.70250000E+02  0.43760E-01
 0.70300003E+02 -0.51661E-02
 0.70349998E+02 -0.24202E-01
 0.70400002E+02 -0.19320E-01
 0.70450005E+02 -0.13814E-01
 0.70500000E+02 -0.15322E-01
 0.70550003E+02 -0.38600E-01
 0.70599998E+02 -0.59161E-01
 0.70650002E+02 -0.67703E-01
 0.70700005E+02 -0.82126E-01
 0.70750000E+02 -0.96095E-01
 0.70800003E+02 -0.95157E-01
 0.70849998E+02 -0.72913E-01
 0.70900002E+02 -0.46307E-01
 0.70950005E+02 -0.29036E-01
 0.71000000E+02 -0.86753E-02
 0.71050003E+02  0.42339E-02
 0.71099998E+02 -0.10281E-01
 0.71150002E+02 -0.29946E-01
 0.71200005E+02 -0.46909E-01
 0.71250000E+02 -0.80691E-01
 0.71300003E+02 -0.10754E+00
 0.71349998E+02 -0.98641E-01
 0.71400002E+02 -0.74543E-01
 0.71450005E+02 -0.31269E-01
 0.71500000E+02  0.18341E-01
 0.71550003E+02  0.46375E-01
 0.71599998E+02  0.60081E-01
 0.71650002E+02  0.70944E-01
 0.71700005E+02  0.76783E-01
 0.71750000E+02  0.83674E-01
 0.71800003E+02  0.94006E-01
 0.71849998E+02  0.86138E-01
 0.71900002E+02  0.65972E-01
 0.71950005E+02  0.42329E-01
 0.72000000E+02  0.47806E-01
 0.72050003E+02  0.68054E-01
 0.72099998E+02  0.81404E-01
 0.72150002E+02  0.90389E-01
 0.72200005E+02  0.88789E-01
 0.72250000E+02  0.76143E-01
 0.72300003E+02  0.65411E-01
 0.72349998E+02  0.70567E-01
 0.72400002E+02  0.76762E-01
 0.72450005E+02  0.10445E+00
 0.72500000E+02  0.13322E+00
 0.72550003E+02  0.14387E+00
 0.72599998E+02  0.15482E+00
 0.72650002E+02  0.14705E+00
 0.72700005E+02  0.10945E+00
 0.72750000E+02  0.61253E-01
 0.72800003E+02  0.26366E-02
 0.72849998E+02 -0.76638E-01
 0.72900002E+02 -0.15816E+00
 0.72950005E+02 -0.22160E+00
 0.73000000E+02 -0.22726E+00
 0.73050003E+02 -0.17240E+00
 0.73099998E+02 -0.10307E+00
 0.73150002E+02 -0.54201E-01
 0.73200005E+02 -0.34173E-01
 0.73250000E+02 -0.62188E-02
 0.73300003E+02  0.21932E-01
 0.73349998E+02  0.32598E-01
 0.73400002E+02  0.26822E-01
 0.73450005E+02  0.16293E-01
 0.73500000E+02  0.22693E-01
 0.73550003E+02  0.29579E-01
 0.73599998E+02  0.15520E-01
 0.73650002E+02 -0.32053E-01
 0.73700005E+02 -0.87931E-01
 0.73750000E+02 -0.10390E+00
 0.73800003E+02 -0.85163E-01
 0.73849998E+02 -0.62688E-01
 0.73900002E+02 -0.22684E-01
 0.73950005E+02  0.28629E-01
 0.74000000E+02  0.62254E-01
 0.74050003E+02  0.71015E-01
 0.74099998E+02  0.60915E-01
 0.74150002E+02  0.28338E-01
 0.74200005E+02 -0.27793E-01
 0.74250000E+02 -0.81024E-01
 0.74300003E+02 -0.10412E+00
 0.74349998E+02 -0.98704E-01
 0.74400002E+02 -0.65774E-01
 0.74450005E+02 -0.24423E-01
 0.74500000E+02  0.21552E-01
 0.74550003E+02  0.80686E-01
 0.74599998E+02  0.11398E+00
 0.74650002E+02  0.11795E+00
 0.74700005E+02  0.11215E+00
 0.74750000E+02  0.10152E+00
 0.74800003E+02  0.73089E-01
 0.74849998E+02  0.41243E-01
 0.74900002E+02  0.15665E-01
 0.74950005E+02 -0.15987E-01
 0.75000000E+02 -0.38887E-01
 0.75050003E+02 -0.54040E-01
 0.75099998E+02 -0.78719E-01
 0.75150002E+02 -0.97014E-01
 0.75200005E+02 -0.93585E-01
 0.75250000E+02 -0.89615E-01
 0.75300003E+02 -0.82429E-01
 0.75349998E+02 -0.73587E-01
 0.75400002E+02 -0.79143E-01
 0.75450005E+02 -0.68147E-01
 0.75500000E+02 -0.32495E-01
 0.75550003E+02 -0.12791E-01
 0.75599998E+02 -0.74612E-02
 0.75650002E+02  0.22081E-02
 0.75700005E+02  0.91498E-02
 0.75750000E+02  0.23306E-01
 0.75800003E+02  0.33235E-01
 0.75849998E+02  0.20801E-01
 0.75900002E+02  0.10314E-01
 0.75950005E+02  0.12389E-01
 0.76000000E+02  0.23126E-01
 0.76050003E+02  0.41444E-01
 0.76099998E+02  0.49654E-01
 0.76150002E+02  0.40053E-01
 0.76200005E+02  0.30573E-01
 0.76250000E+02  0.27786E-01
 0.76300003E+02  0.18993E-01
 0.76349998E+02 -0.61102E-03
 0.76400002E+02 -0.41371E-01
 0.76450005E+02 -0.85537E-01
 0.76500000E+02 -0.10139E+00
 0.76550003E+02 -0.94198E-01
 0.76599998E+02 -0.86715E-01
 0.76650002E+02 -0.73083E-01
 0.76700005E+02 -0.42729E-01
 0.76750000E+02 -0.26218E-01
 0.76800003E+02 -0.20531E-01
 0.76849998E+02 -0.19023E-02
 0.76900002E+02  0.42662E-01
 0.76950005E+02  0.86898E-01
 0.77000000E+02  0.10453E+00
 0.77050003E+02  0.11076E+00
 0.77099998E+02  0.12585E+00
 0.77150002E+02  0.14728E+00
 0.77200005E+02  0.15698E+00
 0.77250000E+02  0.15354E+00
 0.77300003E+02  0.13105E+00
 0.77349998E+02  0.92664E-01
 0.77400002E+02  0.53898E-01
 0.77450005E+02  0.16594E-01
 0.77500000E+02 -0.10032E-01
 0.77550003E+02 -0.23901E-01
 0.77599998E+02 -0.36931E-01
 0.77650002E+02 -0.43924E-01
 0.77700005E+02 -0.44417E-01
 0.77750000E+02 -0.39096E-01
 0.77800003E+02 -0.38570E-01
 0.77849998E+02 -0.52750E-01
 0.77900002E+02 -0.71235E-01
 0.77950005E+02 -0.73549E-01
 0.78000000E+02 -0.64174E-01
 0.78050003E+02 -0.51017E-01
 0.78099998E+02 -0.32369E-01
 0.78150002E+02 -0.26724E-02
 0.78200005E+02  0.17547E-01
 0.78250000E+02  0.22314E-01
 0.78300003E+02  0.29148E-01
 0.78349998E+02  0.24092E-01
 0.78400002E+02  0.18254E-01
 0.78450005E+02  0.24105E-01
 0.78500000E+02  0.31673E-01
 0.78550003E+02  0.29341E-01
 0.78599998E+02  0.30003E-01
 0.78650002E+02  0.34375E-01
 0.78700005E+02  0.31678E-01
 0.78750000E+02  0.26890E-01
 0.78800003E+02  0.17131E-01
 0.78849998E+02 -0.61369E-02
 0.78900002E+02 -0.49470E-01
 0.78950005E+02 -0.98081E-01
 0.79000000E+02 -0.14436E+00
 0.79050003E+02 -0.19408E+00
 0.79099998E+02 -0.23160E+00
 0.79150002E+02 -0.24757E+00
 0.79200005E+02 -0.23831E+00
 0.79250000E+02 -0.20311E+00
 0.79300003E+02 -0.14273E+00
 0.79349998E+02 -0.68643E-01
 0.79400002E+02  0.17166E-01
 0.79450005E+02  0.11131E+00
 0.79500000E+02  0.17654E+00
 0.79550003E+02  0.20076E+00
 0.79599998E+02  0.20241E+00
 0.79650002E+02  0.18452E+00
 0.79700005E+02  0.13921E+00
 0.79750000E+02  0.79601E-01
 0.79800003E+02  0.32201E-01
 0.79849998E+02  0.69010E-02
 0.79900002E+02 -0.15182E-02
 0.79950005E+02 -0.80346E-02
 0.80000000E+02 -0.14279E-01
 0.80050003E+02 -0.16357E-01
 0.80099998E+02 -0.33786E-01
 0.80150002E+02 -0.50050E-01
 0.80200005E+02 -0.53820E-01
 0.80250000E+02 -0.52684E-01
 0.80300003E+02 -0.43963E-01
 0.80349998E+02 -0.13223E-01
 0.80400002E+02  0.43215E-01
 0.80450005E+02  0.10432E+00
 0.80500000E+02  0.14430E+00
 0.80550003E+02  0.16874E+00
 0.80599998E+02  0.18217E+00
 0.80650002E+02  0.16060E+00
 0.80700005E+02  0.12561E+00
 0.80750000E+02  0.81494E-01
 0.80800003E+02  0.24192E-01
 0.80849998E+02 -0.29501E-01
 0.80900002E+02 -0.81254E-01
 0.80950005E+02 -0.12127E+00
 0.81000000E+02 -0.14062E+00
 0.81050003E+02 -0.13958E+00
 0.81099998E+02 -0.11140E+00
 0.81150002E+02 -0.74980E-01
 0.81200005E+02 -0.46551E-01
 0.81250000E+02 -0.27570E-01
 0.81300003E+02 -0.71273E-02
 0.81349998E+02  0.15882E-01
 0.81400002E+02  0.35612E-01
 0.81450005E+02  0.52556E-01
 0.81500000E+02  0.50619E-01
 0.81550003E+02  0.33834E-01
 0.81599998E+02  0.11053E-01
 0.81650002E+02 -0.12370E-01
 0.81700005E+02 -0.33212E-01
 0.81750000E+02 -0.37076E-01
 0.81800003E+02 -0.30696E-01
 0.81849998E+02 -0.32367E-01
 0.81900002E+02 -0.29003E-01
 0.81950005E+02 -0.27772E-01
 0.82000000E+02 -0.39070E-01
 0.82050003E+02 -0.55138E-01
 0.82099998E+02 -0.53921E-01
 0.82150002E+02 -0.34444E-01
 0.82200005E+02 -0.79481E-02
 0.82250000E+02  0.18678E-01
 0.82300003E+02  0.43193E-01
 0.82349998E+02  0.64469E-01
 0.82400002E+02  0.72110E-01
 0.82450005E+02  0.73898E-01
 0.82500000E+02  0.65923E-01
 0.82550003E+02  0.42415E-01
 0.82599998E+02  0.60142E-02
 0.82650002E+02 -0.15624E-01
 0.82700005E+02 -0.14385E-01
 0.82750000E+02 -0.72582E-02
 0.82800003E+02 -0.79177E-02
 0.82849998E+02 -0.14922E-01
 0.82900002E+02 -0.98399E-02
 0.82950005E+02 -0.91992E-02
 0.83000000E+02 -0.14279E-01
 0.83050003E+02 -0.13030E-01
 0.83099998E+02 -0.10118E-01
 0.83150002E+02 -0.16090E-01
 0.83200005E+02 -0.25759E-01
 0.83250000E+02 -0.30880E-01
 0.83300003E+02 -0.23818E-01
 0.83349998E+02 -0.37762E-02
 0.83400002E+02  0.83725E-02
 0.83450005E+02  0.54384E-02
 0.83500000E+02 -0.19770E-02
 0.83550003E+02 -0.55032E-02
 0.83599998E+02 -0.19981E-02
 0.83650002E+02  0.36788E-02
 0.83700005E+02  0.13112E-01
 0.83750000E+02  0.29973E-01
 0.83800003E+02  0.48290E-01
 0.83849998E+02  0.63084E-01
 0.83900002E+02  0.72124E-01
 0.83950005E+02  0.81341E-01
 0.84000000E+02  0.83162E-01
 0.84050003E+02  0.72181E-01
 0.84099998E+02  0.49976E-01
 0.84150002E+02  0.24553E-01
 0.84200005E+02 -0.34054E-02
 0.84250000E+02 -0.33243E-01
 0.84300003E+02 -0.56126E-01
 0.84349998E+02 -0.68173E-01
 0.84400002E+02 -0.70122E-01
 0.84450005E+02 -0.73786E-01
 0.84500000E+02 -0.71645E-01
 0.84550003E+02 -0.58639E-01
 0.84599998E+02 -0.44141E-01
 0.84650002E+02 -0.31313E-01
 0.84700005E+02 -0.24711E-01
 0.84750000E+02 -0.25703E-01
 0.84800003E+02 -0.23675E-01
 0.84849998E+02 -0.20785E-01
 0.84900002E+02 -0.25860E-01
 0.84950005E+02 -0.29092E-01
 0.85000000E+02 -0.30616E-01
 0.85050003E+02 -0.36838E-01
 0.85099998E+02 -0.32363E-01
 0.85150002E+02 -0.27109E-01
 0.85200005E+02 -0.36324E-01
 0.85250000E+02 -0.49425E-01
 0.85300003E+02 -0.49047E-01
 0.85349998E+02 -0.35528E-01
 0.85400002E+02 -0.18829E-01
 0.85450005E+02  0.15718E-02
 0.85500000E+02  0.14501E-01
 0.85550003E+02  0.23629E-01
 0.85599998E+02  0.39433E-01
 0.85650002E+02  0.58755E-01
 0.85700005E+02  0.64516E-01
 0.85750000E+02  0.64958E-01
 0.85800003E+02  0.72134E-01
 0.85849998E+02  0.72635E-01
 0.85900002E+02  0.58371E-01
 0.85950005E+02  0.34297E-01
 0.86000000E+02  0.17991E-01
 0.86050003E+02  0.12923E-01
 0.86099998E+02  0.16272E-01
 0.86150002E+02  0.23953E-01
 0.86200005E+02  0.29514E-01
 0.86250000E+02  0.30465E-01
 0.86300003E+02  0.23440E-01
 0.86349998E+02  0.74136E-02
 0.86400002E+02 -0.10692E-01
 0.86450005E+02 -0.23813E-01
 0.86500000E+02 -0.36881E-01
 0.86550003E+02 -0.46449E-01
 0.86599998E+02 -0.39270E-01
 0.86650002E+02 -0.12941E-01
 0.86700005E+02  0.18814E-01
 0.86750000E+02  0.47347E-01
 0.86800003E+02  0.73117E-01
 0.86849998E+02  0.90732E-01
 0.86900002E+02  0.86039E-01
 0.86950005E+02  0.58677E-01
 0.87000000E+02  0.25512E-01
 0.87050003E+02 -0.44594E-02
 0.87099998E+02 -0.29091E-01
 0.87150002E+02 -0.54365E-01
 0.87200005E+02 -0.83016E-01
 0.87250000E+02 -0.10763E+00
 0.87300003E+02 -0.12074E+00
 0.87349998E+02 -0.12652E+00
 0.87400002E+02 -0.12062E+00
 0.87450005E+02 -0.93408E-01
 0.87500000E+02 -0.52659E-01
 0.87550003E+02 -0.23168E-01
 0.87599998E+02 -0.14567E-01
 0.87650002E+02 -0.15617E-01
 0.87700005E+02 -0.88885E-02
 0.87750000E+02  0.75570E-02
 0.87800003E+02  0.18493E-01
 0.87849998E+02  0.30179E-01
 0.87900002E+02  0.44608E-01
 0.87950005E+02  0.61943E-01
 0.88000000E+02  0.80687E-01
 0.88050003E+02  0.86446E-01
 0.88099998E+02  0.72931E-01
 0.88150002E+02  0.46643E-01
 0.88200005E+02  0.13681E-01
 0.88250000E+02 -0.16158E-01
 0.88300003E+02 -0.27836E-01
 0.88349998E+02 -0.28892E-01
 0.88400002E+02 -0.32796E-01
 0.88450005E+02 -0.34965E-01
 0.88500000E+02 -0.30594E-01
 0.88550003E+02 -0.18247E-01
 0.88599998E+02 -0.32176E-02
 0.88650002E+02  0.69679E-02
 0.88700005E+02  0.15127E-01
 0.88750000E+02  0.16211E-01
 0.88800003E+02  0.78827E-02
 0.88849998E+02 -0.23741E-02
 0.88900002E+02 -0.64078E-02
 0.88950005E+02  0.23821E-02
 0.89000000E+02  0.16994E-01
 0.89050003E+02  0.30604E-01
 0.89099998E+02  0.41105E-01
 0.89150002E+02  0.48328E-01
 0.89200005E+02  0.52982E-01
 0.89250000E+02  0.52438E-01
 0.89300003E+02  0.45322E-01
 0.89349998E+02  0.39082E-01
 0.89400002E+02  0.40708E-01
 0.89450005E+02  0.47141E-01
 0.89500000E+02  0.59370E-01
 0.89550003E+02  0.59687E-01
 0.89599998E+02  0.39969E-01
 0.89650002E+02  0.14359E-01
 0.89700005E+02 -0.13988E-01
 0.89750000E+02 -0.39259E-01
 0.89800003E+02 -0.56253E-01
 0.89849998E+02 -0.72454E-01
 0.89900002E+02 -0.82472E-01
 0.89950005E+02 -0.76240E-01
 0.90000000E+02 -0.57721E-01
 0.90050003E+02 -0.29489E-01
 0.90099998E+02 -0.49842E-02
 0.90150002E+02  0.99915E-02
 0.90200005E+02  0.20079E-01
 0.90250000E+02  0.21874E-01
 0.90300003E+02  0.17221E-01
 0.90349998E+02  0.13936E-01
 0.90400002E+02  0.10657E-01
 0.90450005E+02  0.49409E-02
 0.90500000E+02 -0.35665E-02
 0.90550003E+02 -0.10612E-01
 0.90599998E+02 -0.90225E-02
 0.90650002E+02  0.85331E-03
 0.90700005E+02  0.94806E-02
 0.90750000E+02  0.10625E-01
 0.90800003E+02  0.26598E-02
 0.90849998E+02 -0.13265E-01
 0.90900002E+02 -0.26816E-01
 0.90950005E+02 -0.28523E-01
 0.91000000E+02 -0.21149E-01
 0.91050003E+02 -0.18339E-01
 0.91099998E+02 -0.19973E-01
 0.91150002E+02 -0.29220E-01
 0.91200005E+02 -0.42692E-01
 0.91250000E+02 -0.44402E-01
 0.91300003E+02 -0.26401E-01
 0.91349998E+02  0.13652E-03
 0.91400002E+02  0.22654E-01
 0.91450005E+02  0.38340E-01
 0.91500000E+02  0.39372E-01
 0.91550003E+02  0.38530E-01
 0.91599998E+02  0.43507E-01
 0.91650002E+02  0.52646E-01
 0.91700005E+02  0.59632E-01
 0.91750000E+02  0.51644E-01
 0.91800003E+02  0.32216E-01
 0.91849998E+02  0.10200E-01
 0.91900002E+02 -0.95994E-02
 0.91950005E+02 -0.31370E-01
 0.92000000E+02 -0.54190E-01
 0.92050003E+02 -0.78444E-01
 0.92099998E+02 -0.94714E-01
 0.92150002E+02 -0.97599E-01
 0.92200005E+02 -0.93151E-01
 0.92250000E+02 -0.79327E-01
 0.92300003E+02 -0.59569E-01
 0.92349998E+02 -0.32650E-01
 0.92400002E+02 -0.24542E-02
 0.92450005E+02  0.27290E-01
 0.92500000E+02  0.58013E-01
 0.92550003E+02  0.86519E-01
 0.92599998E+02  0.10574E+00
 0.92650002E+02  0.10456E+00
 0.92700005E+02  0.86994E-01
 0.92750000E+02  0.62327E-01
 0.92800003E+02  0.29497E-01
 0.92849998E+02 -0.45965E-02
 0.92900002E+02 -0.29803E-01
 0.92950005E+02 -0.43287E-01
 0.93000000E+02 -0.54925E-01
 0.93050003E+02 -0.66328E-01
 0.93099998E+02 -0.67241E-01
 0.93150002E+02 -0.57263E-01
 0.93200005E+02 -0.40330E-01
 0.93250000E+02 -0.23584E-01
 0.93300003E+02 -0.54680E-02
 0.93349998E+02  0.22491E-01
 0.93400002E+02  0.53851E-01
 0.93450005E+02  0.76503E-01
 0.93500000E+02  0.89136E-01
 0.93550003E+02  0.96390E-01
 0.93599998E+02  0.10224E+00
 0.93650002E+02  0.10383E+00
 0.93700005E+02  0.99783E-01
 0.93750000E+02  0.82286E-01
 0.93800003E+02  0.41292E-01
 0.93849998E+02 -0.63950E-02
 0.93900002E+02 -0.45055E-01
 0.93950005E+02 -0.64657E-01
 0.94000000E+02 -0.65491E-01
 0.94050003E+02 -0.58478E-01
 0.94099998E+02 -0.46894E-01
 0.94150002E+02 -0.32491E-01
 0.94200005E+02 -0.13634E-01
 0.94250000E+02  0.32471E-02
 0.94300003E+02  0.14404E-01
 0.94349998E+02  0.17232E-01
 0.94400002E+02  0.12058E-01
 0.94450005E+02  0.49053E-02
 0.94500000E+02 -0.36773E-02
 0.94550003E+02 -0.73224E-02
 0.94599998E+02 -0.14493E-02
 0.94650002E+02  0.52119E-02
 0.94700005E+02  0.78904E-02
 0.94750000E+02  0.65341E-02
 0.94800003E+02  0.33244E-02
 0.94849998E+02 -0.12553E-02
 0.94900002E+02 -0.81840E-02
 0.94950005E+02 -0.16333E-01
 0.95000000E+02 -0.22647E-01
 0.95050003E+02 -0.23574E-01
 0.95099998E+02 -0.18413E-01
 0.95150002E+02 -0.14189E-01
 0.95200005E+02 -0.23677E-01
 0.95250000E+02 -0.40864E-01
 0.95300003E+02 -0.54433E-01
 0.95349998E+02 -0.61422E-01
 0.95400002E+02 -0.63205E-01
 0.95450005E+02 -0.58490E-01
 0.95500000E+02 -0.47213E-01
 0.95550003E+02 -0.33354E-01
 0.95599998E+02 -0.18539E-01
 0.95650002E+02  0.22765E-02
 0.95700005E+02  0.26403E-01
 0.95750000E+02  0.44518E-01
 0.95800003E+02  0.50313E-01
 0.95849998E+02  0.42366E-01
 0.95900002E+02  0.28230E-01
 0.95950005E+02  0.16708E-01
 0.96000000E+02  0.13577E-01
 0.96050003E+02  0.14826E-01
 0.96099998E+02  0.18917E-01
 0.96150002E+02  0.22559E-01
 0.96200005E+02  0.22162E-01
 0.96250000E+02  0.18675E-01
 0.96300003E+02  0.14558E-01
 0.96349998E+02  0.16305E-01
 0.96400002E+02  0.20441E-01
 0.96450005E+02  0.25115E-01
 0.96500000E+02  0.28874E-01
 0.96550003E+02  0.27814E-01
 0.96599998E+02  0.26915E-01
 0.96650002E+02  0.27458E-01
 0.96700005E+02  0.29230E-01
 0.96750000E+02  0.25433E-01
 0.96800003E+02  0.12930E-01
 0.96849998E+02  0.23351E-03
 0.96900002E+02 -0.25362E-02
 0.96950005E+02  0.49805E-02
 0.97000000E+02  0.17717E-01
 0.97050003E+02  0.28625E-01
 0.97099998E+02  0.24833E-01
 0.97150002E+02  0.99386E-02
 0.97200005E+02 -0.55737E-02
 0.97250000E+02 -0.20134E-01
 0.97300003E+02 -0.36926E-01
 0.97349998E+02 -0.56095E-01
 0.97400002E+02 -0.71850E-01
 0.97450005E+02 -0.75773E-01
 0.97500000E+02 -0.70149E-01
 0.97550003E+02 -0.63020E-01
 0.97599998E+02 -0.56639E-01
 0.97650002E+02 -0.49016E-01
 0.97700005E+02 -0.29172E-01
 0.97750000E+02 -0.43209E-02
 0.97800003E+02  0.13587E-01
 0.97849998E+02  0.21923E-01
 0.97900002E+02  0.24294E-01
 0.97950005E+02  0.22068E-01
 0.98000000E+02  0.11134E-01
 0.98050003E+02 -0.19944E-02
 0.98099998E+02 -0.13637E-01
 0.98150002E+02 -0.25027E-01
 0.98200005E+02 -0.35855E-01
 0.98250000E+02 -0.40851E-01
 0.98300003E+02 -0.42701E-01
 0.98349998E+02 -0.40467E-01
 0.98400002E+02 -0.36779E-01
 0.98450005E+02 -0.31192E-01
 0.98500000E+02 -0.14558E-01
 0.98550003E+02  0.87983E-02
 0.98599998E+02  0.23063E-01
 0.98650002E+02  0.23576E-01
 0.98700005E+02  0.19339E-01
 0.98750000E+02  0.12404E-01
 0.98800003E+02  0.60433E-02
 0.98849998E+02  0.15531E-02
 0.98900002E+02 -0.26621E-02
 0.98950005E+02 -0.55474E-02
 0.99000000E+02 -0.16788E-02
 0.99050003E+02  0.10898E-01
 0.99099998E+02  0.23927E-01
 0.99150002E+02  0.30089E-01
 0.99200005E+02  0.25391E-01
 0.99250000E+02  0.15304E-01
 0.99300003E+02  0.80071E-02
 0.99349998E+02  0.80711E-02
 0.99400002E+02  0.13216E-01
 0.99450005E+02  0.16874E-01
 0.99500000E+02  0.25145E-01
 0.99550003E+02  0.37442E-01
 0.99599998E+02  0.50234E-01
 0.99650002E+02  0.57144E-01
 0.99700005E+02  0.50308E-01
 0.99750000E+02  0.36629E-01
 0.99800003E+02  0.21536E-01
 0.99849998E+02  0.73553E-02
 0.99900002E+02 -0.54819E-02
 0.99950005E+02 -0.16187E-01
 0.10000000E+03 -0.19009E-01
 0.10005000E+03 -0.10201E-01
 0.10010000E+03  0.45404E-02
 0.10015000E+03  0.18980E-01
 0.10020000E+03  0.28116E-01
 0.10025000E+03  0.29399E-01
 0.10030000E+03  0.28303E-01
 0.10035000E+03  0.24853E-01
 0.10040000E+03  0.20339E-01
 0.10045000E+03  0.14180E-01
 0.10050000E+03 -0.12096E-02
 0.10055000E+03 -0.26923E-01
 0.10060000E+03 -0.51936E-01
 0.10065000E+03 -0.68789E-01
 0.10070000E+03 -0.77950E-01
 0.10075000E+03 -0.77504E-01
 0.10080000E+03 -0.69137E-01
 0.10085000E+03 -0.54451E-01
 0.10090000E+03 -0.38193E-01
 0.10095000E+03 -0.26406E-01
 0.10100000E+03 -0.13218E-01
 0.10105000E+03  0.63053E-02
 0.10110000E+03  0.31686E-01
 0.10115000E+03  0.53649E-01
 0.10120000E+03  0.63675E-01
 0.10125000E+03  0.69554E-01
 0.10130000E+03  0.73697E-01
 0.10135000E+03  0.69408E-01
 0.10140000E+03  0.58315E-01
 0.10145000E+03  0.45705E-01
 0.10150000E+03  0.32010E-01
 0.10155000E+03  0.21024E-01
 0.10160000E+03  0.12807E-01
 0.10165000E+03  0.54603E-03
 0.10170000E+03 -0.18242E-01
 0.10175000E+03 -0.33051E-01
 0.10180000E+03 -0.36431E-01
 0.10185000E+03 -0.32566E-01
 0.10190000E+03 -0.26255E-01
 0.10195000E+03 -0.26374E-01
 0.10200000E+03 -0.35410E-01
 0.10205000E+03 -0.45280E-01
 0.10210000E+03 -0.52798E-01
 0.10215000E+03 -0.58812E-01
 0.10220000E+03 -0.64109E-01
 0.10225000E+03 -0.68194E-01
 0.10230000E+03 -0.63901E-01
 0.10235000E+03 -0.48381E-01
 0.10240000E+03 -0.29457E-01
 0.10245000E+03 -0.11039E-01
 0.10250000E+03  0.47774E-02
 0.10255000E+03  0.12386E-01
 0.10260000E+03  0.12258E-01
 0.10265000E+03  0.10552E-01
 0.10270000E+03  0.14587E-01
 0.10275000E+03  0.22030E-01
 0.10280000E+03  0.27697E-01
 0.10285000E+03  0.29138E-01
 0.10290000E+03  0.25428E-01
 0.10295000E+03  0.19886E-01
 0.10300000E+03  0.14836E-01
 0.10305000E+03  0.11973E-01
 0.10310000E+03  0.76871E-02
 0.10315000E+03 -0.21150E-02
 0.10320000E+03 -0.17843E-01
 0.10325000E+03 -0.32480E-01
 0.10330000E+03 -0.43474E-01
 0.10335000E+03 -0.51995E-01
 0.10340000E+03 -0.56044E-01
 0.10345000E+03 -0.58418E-01
 0.10350000E+03 -0.53703E-01
 0.10355000E+03 -0.40388E-01
 0.10360000E+03 -0.26894E-01
 0.10365000E+03 -0.16340E-01
 0.10370000E+03 -0.31318E-02
 0.10375000E+03  0.14175E-01
 0.10380000E+03  0.32605E-01
 0.10385000E+03  0.49259E-01
 0.10390000E+03  0.64800E-01
 0.10395000E+03  0.81592E-01
 0.10400000E+03  0.92483E-01
 0.10405000E+03  0.97166E-01
 0.10410000E+03  0.96077E-01
 0.10415000E+03  0.86548E-01
 0.10420000E+03  0.68474E-01
 0.10425000E+03  0.42600E-01
 0.10430000E+03  0.17935E-01
 0.10435000E+03  0.19795E-02
 0.10440000E+03 -0.71732E-02
 0.10445000E+03 -0.16938E-01
 0.10450000E+03 -0.26292E-01
 0.10455000E+03 -0.33170E-01
 0.10460000E+03 -0.36068E-01
 0.10465000E+03 -0.41188E-01
 0.10470000E+03 -0.54900E-01
 0.10475000E+03 -0.70109E-01
 0.10480000E+03 -0.77284E-01
 0.10485000E+03 -0.68943E-01
 0.10490000E+03 -0.55509E-01
 0.10495000E+03 -0.45972E-01
 0.10500000E+03 -0.40790E-01
 0.10505000E+03 -0.40048E-01
 0.10510000E+03 -0.40186E-01
 0.10515000E+03 -0.35169E-01
 0.10520000E+03 -0.25845E-01
 0.10525000E+03 -0.12005E-01
 0.10530000E+03  0.86567E-02
 0.10535000E+03  0.28314E-01
 0.10540000E+03  0.42735E-01
 0.10545000E+03  0.54973E-01
 0.10550000E+03  0.63547E-01
 0.10555000E+03  0.61414E-01
 0.10560000E+03  0.48841E-01
 0.10565000E+03  0.33848E-01
 0.10570000E+03  0.22823E-01
 0.10575000E+03  0.16256E-01
 0.10580000E+03  0.10594E-01
 0.10585000E+03  0.56277E-02
 0.10590000E+03  0.47133E-02
 0.10595000E+03  0.94820E-02
 0.10600000E+03  0.17172E-01
 0.10605000E+03  0.19572E-01
 0.10610000E+03  0.15284E-01
 0.10615000E+03  0.10333E-01
 0.10620000E+03  0.46976E-02
 0.10625000E+03 -0.19647E-02
 0.10630000E+03 -0.43852E-02
 0.10635000E+03 -0.11402E-02
 0.10640000E+03  0.45708E-02
 0.10645000E+03  0.83220E-02
 0.10650000E+03  0.85215E-02
 0.10655000E+03  0.37067E-02
 0.10660000E+03 -0.21374E-02
 0.10665000E+03 -0.80781E-02
 0.10670000E+03 -0.13319E-01
 0.10675000E+03 -0.16084E-01
 0.10680000E+03 -0.19672E-01
 0.10685000E+03 -0.22734E-01
 0.10690000E+03 -0.21587E-01
 0.10695000E+03 -0.12472E-01
 0.10700000E+03 -0.31933E-02
 0.10705000E+03  0.95949E-03
 0.10710000E+03  0.21395E-02
 0.10715000E+03  0.56147E-02
 0.10720000E+03  0.10154E-01
 0.10725000E+03  0.17493E-01
 0.10730000E+03  0.28275E-01
 0.10735000E+03  0.39391E-01
 0.10740000E+03  0.45632E-01
 0.10745000E+03  0.41850E-01
 0.10750000E+03  0.30812E-01
 0.10755000E+03  0.12617E-01
 0.10760000E+03 -0.58120E-02
 0.10765000E+03 -0.20060E-01
 0.10770000E+03 -0.27156E-01
 0.10775000E+03 -0.25235E-01
 0.10780000E+03 -0.12965E-01
 0.10785000E+03  0.23747E-02
 0.10790000E+03  0.10720E-01
 0.10795000E+03  0.92476E-02
 0.10800000E+03  0.13952E-02
 0.10805000E+03 -0.50158E-02
 0.10810000E+03 -0.56998E-02
 0.10815000E+03 -0.11201E-02
 0.10820000E+03  0.56604E-02
 0.10825000E+03  0.12375E-01
 0.10830000E+03  0.17618E-01
 0.10835000E+03  0.18227E-01
 0.10840000E+03  0.10522E-01
 0.10845000E+03  0.10423E-02
 0.10850000E+03 -0.65080E-02
 0.10855000E+03 -0.12022E-01
 0.10860000E+03 -0.12966E-01
 0.10865000E+03 -0.83142E-02
 0.10870000E+03 -0.23620E-02
 0.10875000E+03  0.18430E-02
 0.10880000E+03  0.62846E-02
 0.10885000E+03  0.79347E-02
 0.10890000E+03  0.99342E-02
 0.10895000E+03  0.11141E-01
 0.10900000E+03  0.56829E-02
 0.10905000E+03 -0.50011E-03
 0.10910000E+03 -0.27890E-02
 0.10915000E+03 -0.35200E-02
 0.10920000E+03 -0.58091E-02
 0.10925000E+03 -0.94719E-02
 0.10930000E+03 -0.12520E-01
 0.10935000E+03 -0.16569E-01
 0.10940000E+03 -0.24576E-01
 0.10945000E+03 -0.31689E-01
 0.10950000E+03 -0.31709E-01
 0.10955000E+03 -0.23255E-01
 0.10960000E+03 -0.12711E-01
 0.10965000E+03 -0.53543E-02
 0.10970000E+03 -0.78884E-03
 0.10975000E+03  0.11061E-02
 0.10980000E+03 -0.10050E-03
 0.10985000E+03 -0.47712E-02
 0.10990000E+03 -0.82053E-02
 0.10995000E+03 -0.54075E-02
 0.11000000E+03  0.24131E-02
 0.11005000E+03  0.99037E-02
 0.11010000E+03  0.15174E-01
 0.11015000E+03  0.15519E-01
 0.11020000E+03  0.11342E-01
 0.11025000E+03  0.40687E-02
 0.11030000E+03 -0.45888E-02
 0.11035000E+03 -0.11025E-01
 0.11040000E+03 -0.13918E-01
 0.11045000E+03 -0.12150E-01
 0.11050000E+03 -0.10839E-01
 0.11055000E+03 -0.14477E-01
 0.11060000E+03 -0.21029E-01
 0.11065000E+03 -0.24027E-01
 0.11070000E+03 -0.24470E-01
 0.11075000E+03 -0.24679E-01
 0.11080000E+03 -0.22959E-01
 0.11085000E+03 -0.21687E-01
 0.11090000E+03 -0.17860E-01
 0.11095000E+03 -0.92389E-02
 0.11100000E+03  0.32875E-02
 0.11105000E+03  0.14927E-01
 0.11110000E+03  0.23735E-01
 0.11115000E+03  0.30481E-01
 0.11120000E+03  0.33732E-01
 0.11125000E+03  0.30659E-01
 0.11130000E+03  0.19824E-01
 0.11135000E+03  0.95657E-02
 0.11140000E+03  0.48207E-02
 0.11145000E+03  0.19893E-02
 0.11150000E+03 -0.91340E-03
 0.11155000E+03 -0.88510E-03
 0.11160000E+03  0.24549E-02
 0.11165000E+03  0.92537E-02
 0.11170000E+03  0.17134E-01
 0.11175000E+03  0.21491E-01
 0.11180000E+03  0.24199E-01
 0.11185000E+03  0.26888E-01
 0.11190000E+03  0.25961E-01
 0.11195000E+03  0.17060E-01
 0.11200000E+03  0.14401E-02
 0.11205000E+03 -0.11542E-01
 0.11210000E+03 -0.17753E-01
 0.11215000E+03 -0.17040E-01
 0.11220000E+03 -0.85623E-02
 0.11225000E+03  0.49206E-02
 0.11230000E+03  0.20325E-01
 0.11235000E+03  0.32763E-01
 0.11240000E+03  0.39309E-01
 0.11245000E+03  0.39508E-01
 0.11250000E+03  0.32114E-01
 0.11255000E+03  0.17209E-01
 0.11260000E+03  0.72861E-03
 0.11265000E+03 -0.15439E-01
 0.11270000E+03 -0.26894E-01
 0.11275000E+03 -0.27477E-01
 0.11280000E+03 -0.20128E-01
 0.11285000E+03 -0.10960E-01
 0.11290000E+03 -0.28434E-02
 0.11295000E+03  0.45921E-02
 0.11300000E+03  0.12970E-01
 0.11305000E+03  0.21563E-01
 0.11310000E+03  0.24293E-01
 0.11315000E+03  0.23804E-01
 0.11320000E+03  0.20436E-01
 0.11325000E+03  0.14273E-01
 0.11330000E+03  0.87258E-02
 0.11335000E+03  0.30264E-02
 0.11340000E+03 -0.46551E-02
 0.11345000E+03 -0.16217E-01
 0.11350000E+03 -0.31833E-01
 0.11355000E+03 -0.49838E-01
 0.11360000E+03 -0.63647E-01
 0.11365000E+03 -0.68250E-01
 0.11370000E+03 -0.62193E-01
 0.11375000E+03 -0.46607E-01
 0.11380000E+03 -0.22466E-01
 0.11385000E+03  0.21864E-02
 0.11390000E+03  0.19882E-01
 0.11395000E+03  0.27957E-01
 0.11400000E+03  0.26752E-01
 0.11405000E+03  0.21295E-01
 0.11410000E+03  0.15624E-01
 0.11415000E+03  0.12230E-01
 0.11420000E+03  0.99697E-02
 0.11425000E+03  0.87801E-02
 0.11430000E+03  0.74549E-02
 0.11435000E+03  0.80912E-02
 0.11440000E+03  0.10145E-01
 0.11445000E+03  0.10554E-01
 0.11450000E+03  0.76881E-02
 0.11455000E+03  0.51340E-02
 0.11460000E+03  0.52156E-02
 0.11465000E+03  0.64984E-02
 0.11470000E+03  0.82955E-02
 0.11475000E+03  0.99101E-02
 0.11480000E+03  0.11807E-01
 0.11485000E+03  0.10939E-01
 0.11490000E+03  0.74970E-02
 0.11495000E+03  0.43311E-02
 0.11500000E+03  0.21055E-02
 0.11505000E+03 -0.73590E-03
 0.11510000E+03 -0.85987E-03
 0.11515000E+03  0.31775E-02
 0.11520000E+03  0.10550E-01
 0.11525000E+03  0.17951E-01
 0.11530000E+03  0.23113E-01
 0.11535000E+03  0.26718E-01
 0.11540000E+03  0.24598E-01
 0.11545000E+03  0.17102E-01
 0.11550000E+03  0.74048E-02
 0.11555000E+03 -0.69009E-02
 0.11560000E+03 -0.24417E-01
 0.11565000E+03 -0.38311E-01
 0.11570000E+03 -0.43588E-01
 0.11575000E+03 -0.41621E-01
 0.11580000E+03 -0.34978E-01
 0.11585000E+03 -0.25158E-01
 0.11590000E+03 -0.12798E-01
 0.11595000E+03 -0.17609E-03
 0.11600000E+03  0.99268E-02
 0.11605000E+03  0.18264E-01
 0.11610000E+03  0.21502E-01
 0.11615000E+03  0.20377E-01
 0.11620000E+03  0.17162E-01
 0.11625000E+03  0.10887E-01
 0.11630000E+03 -0.10644E-02
 0.11635000E+03 -0.13576E-01
 0.11640000E+03 -0.21636E-01
 0.11645000E+03 -0.26272E-01
 0.11650000E+03 -0.24156E-01
 0.11655000E+03 -0.17246E-01
 0.11660000E+03 -0.96014E-02
 0.11665000E+03 -0.16693E-02
 0.11670000E+03  0.47211E-02
 0.11675000E+03  0.66192E-02
 0.11680000E+03  0.69428E-02
 0.11685000E+03  0.62150E-02
 0.11690000E+03  0.43478E-02
 0.11695000E+03  0.45896E-02
 0.11700000E+03  0.35324E-02
 0.11705000E+03 -0.27997E-03
 0.11710000E+03 -0.56446E-02
 0.11715000E+03 -0.11086E-01
 0.11720000E+03 -0.15985E-01
 0.11725000E+03 -0.19010E-01
 0.11730000E+03 -0.19570E-01
 0.11735000E+03 -0.19302E-01
 0.11740000E+03 -0.16523E-01
 0.11745000E+03 -0.10530E-01
 0.11750000E+03 -0.35745E-02
 0.11755000E+03  0.53776E-03
 0.11760000E+03  0.31819E-02
 0.11765000E+03  0.71676E-02
 0.11770000E+03  0.11435E-01
 0.11775000E+03  0.12928E-01
 0.11780000E+03  0.10715E-01
 0.11785000E+03  0.66695E-02
 0.11790000E+03  0.31816E-02
 0.11795000E+03  0.35097E-02
 0.11800000E+03  0.60121E-02
 0.11805000E+03  0.79956E-02
 0.11810000E+03  0.10085E-01
 0.11815000E+03  0.10418E-01
 0.11820000E+03  0.60202E-02
 0.11825000E+03  0.61893E-03
 0.11830000E+03 -0.26810E-02
 0.11835000E+03 -0.52028E-02
 0.11840000E+03 -0.81862E-02
 0.11845000E+03 -0.10373E-01
 0.11850000E+03 -0.12346E-01
 0.11855000E+03 -0.16719E-01
 0.11860000E+03 -0.24690E-01
 0.11865000E+03 -0.34631E-01
 0.11870000E+03 -0.42813E-01
 0.11875000E+03 -0.45207E-01
 0.11880000E+03 -0.43137E-01
 0.11885000E+03 -0.41053E-01
 0.11890000E+03 -0.35308E-01
 0.11895000E+03 -0.25940E-01
 0.11900000E+03 -0.13929E-01
 0.11905000E+03  0.11067E-03
 0.11910000E+03  0.13527E-01
 0.11915000E+03  0.23755E-01
 0.11920000E+03  0.29918E-01
 0.11925000E+03  0.34187E-01
 0.11930000E+03  0.36431E-01
 0.11935000E+03  0.35133E-01
 0.11940000E+03  0.30670E-01
 0.11945000E+03  0.23818E-01
 0.11950000E+03  0.18512E-01
 0.11955000E+03  0.15467E-01
 0.11960000E+03  0.11575E-01
 0.11965000E+03  0.95017E-02
 0.11970000E+03  0.11220E-01
 0.11975000E+03  0.15468E-01
 0.11980000E+03  0.18758E-01
 0.11985000E+03  0.18977E-01
 0.11990000E+03  0.15993E-01
 0.11995000E+03  0.94159E-02
 0.12000000E+03  0.16115E-02
