 0.00000000E+00 -0.85811E-04
 0.50000001E-01  0.43745E-04
 0.10000000E+00 -0.49499E-04
 0.15000001E+00 -0.88598E-04
 0.20000000E+00 -0.14887E-03
 0.25000000E+00 -0.19159E-03
 0.30000001E+00 -0.24867E-03
 0.34999999E+00 -0.26608E-03
 0.40000001E+00 -0.28584E-03
 0.45000002E+00 -0.29609E-03
 0.50000000E+00 -0.32068E-03
 0.55000001E+00 -0.35374E-03
 0.60000002E+00 -0.38475E-03
 0.65000004E+00 -0.41082E-03
 0.69999999E+00 -0.43400E-03
 0.75000000E+00 -0.45653E-03
 0.80000001E+00 -0.46600E-03
 0.85000002E+00 -0.47528E-03
 0.90000004E+00 -0.47085E-03
 0.94999999E+00 -0.44472E-03
 0.10000000E+01 -0.41256E-03
 0.10500001E+01 -0.37412E-03
 0.11000000E+01 -0.32252E-03
 0.11500000E+01 -0.27207E-03
 0.12000000E+01 -0.20466E-03
 0.12500000E+01 -0.12861E-03
 0.13000001E+01 -0.42130E-04
 0.13500000E+01  0.42104E-04
 0.14000000E+01  0.12200E-03
 0.14500000E+01  0.19692E-03
 0.15000000E+01  0.26417E-03
 0.15500001E+01  0.31916E-03
 0.16000000E+01  0.34733E-03
 0.16500000E+01  0.35560E-03
 0.17000000E+01  0.33563E-03
 0.17500000E+01  0.29178E-03
 0.18000001E+01  0.23702E-03
 0.18500000E+01  0.16268E-03
 0.19000000E+01  0.72774E-04
 0.19500000E+01 -0.33962E-04
 0.20000000E+01 -0.13285E-03
 0.20500000E+01 -0.22267E-03
 0.21000001E+01 -0.30051E-03
 0.21500001E+01 -0.36090E-03
 0.22000000E+01 -0.40119E-03
 0.22500000E+01 -0.41590E-03
 0.23000000E+01 -0.40561E-03
 0.23500001E+01 -0.37390E-03
 0.24000001E+01 -0.31810E-03
 0.24500000E+01 -0.24630E-03
 0.25000000E+01 -0.17734E-03
 0.25500000E+01 -0.95806E-04
 0.26000001E+01 -0.64451E-05
 0.26500001E+01  0.71333E-04
 0.27000000E+01  0.14460E-03
 0.27500000E+01  0.21175E-03
 0.28000000E+01  0.25075E-03
 0.28500001E+01  0.27289E-03
 0.29000001E+01  0.27996E-03
 0.29500000E+01  0.26947E-03
 0.30000000E+01  0.22821E-03
 0.30500000E+01  0.17348E-03
 0.31000001E+01  0.81441E-04
 0.31500001E+01 -0.30381E-04
 0.32000000E+01 -0.14780E-03
 0.32500000E+01 -0.27104E-03
 0.33000000E+01 -0.36701E-03
 0.33500001E+01 -0.45038E-03
 0.34000001E+01 -0.49659E-03
 0.34500000E+01 -0.50883E-03
 0.35000000E+01 -0.50792E-03
 0.35500000E+01 -0.49910E-03
 0.36000001E+01 -0.47631E-03
 0.36500001E+01 -0.44015E-03
 0.37000000E+01 -0.40529E-03
 0.37500000E+01 -0.38313E-03
 0.38000000E+01 -0.36100E-03
 0.38500001E+01 -0.34868E-03
 0.39000001E+01 -0.35211E-03
 0.39500000E+01 -0.34758E-03
 0.40000000E+01 -0.35291E-03
 0.40500002E+01 -0.35412E-03
 0.40999999E+01 -0.34808E-03
 0.41500001E+01 -0.35565E-03
 0.42000003E+01 -0.35329E-03
 0.42500000E+01 -0.34627E-03
 0.43000002E+01 -0.33795E-03
 0.43499999E+01 -0.30951E-03
 0.44000001E+01 -0.26418E-03
 0.44500003E+01 -0.21383E-03
 0.45000000E+01 -0.15969E-03
 0.45500002E+01 -0.10690E-03
 0.45999999E+01 -0.65623E-04
 0.46500001E+01 -0.33693E-04
 0.47000003E+01  0.27409E-05
 0.47500000E+01  0.21212E-04
 0.48000002E+01  0.13881E-04
 0.48499999E+01  0.76782E-05
 0.49000001E+01 -0.11293E-04
 0.49500003E+01 -0.47393E-04
 0.50000000E+01 -0.89056E-04
 0.50500002E+01 -0.13907E-03
 0.50999999E+01 -0.17771E-03
 0.51500001E+01 -0.19767E-03
 0.52000003E+01 -0.20336E-03
 0.52500000E+01 -0.17806E-03
 0.53000002E+01 -0.12572E-03
 0.53499999E+01 -0.40064E-04
 0.54000001E+01  0.58237E-04
 0.54500003E+01  0.16084E-03
 0.55000000E+01  0.28002E-03
 0.55500002E+01  0.39914E-03
 0.55999999E+01  0.50325E-03
 0.56500001E+01  0.57706E-03
 0.57000003E+01  0.61381E-03
 0.57500000E+01  0.63077E-03
 0.58000002E+01  0.62811E-03
 0.58499999E+01  0.59845E-03
 0.59000001E+01  0.52875E-03
 0.59500003E+01  0.43336E-03
 0.60000000E+01  0.32743E-03
 0.60500002E+01  0.22179E-03
 0.60999999E+01  0.11578E-03
 0.61500001E+01  0.74768E-05
 0.62000003E+01 -0.84227E-04
 0.62500000E+01 -0.17041E-03
 0.63000002E+01 -0.25020E-03
 0.63499999E+01 -0.32580E-03
 0.64000001E+01 -0.40160E-03
 0.64500003E+01 -0.48377E-03
 0.65000000E+01 -0.55072E-03
 0.65500002E+01 -0.59806E-03
 0.65999999E+01 -0.63630E-03
 0.66500001E+01 -0.63074E-03
 0.67000003E+01 -0.60568E-03
 0.67500000E+01 -0.55070E-03
 0.68000002E+01 -0.46001E-03
 0.68499999E+01 -0.34671E-03
 0.69000001E+01 -0.20578E-03
 0.69500003E+01 -0.54345E-04
 0.70000000E+01  0.10041E-03
 0.70500002E+01  0.25159E-03
 0.70999999E+01  0.39188E-03
 0.71500001E+01  0.49659E-03
 0.72000003E+01  0.57131E-03
 0.72500000E+01  0.61198E-03
 0.73000002E+01  0.61534E-03
 0.73499999E+01  0.57691E-03
 0.74000001E+01  0.49704E-03
 0.74500003E+01  0.40070E-03
 0.75000000E+01  0.27457E-03
 0.75500002E+01  0.12404E-03
 0.75999999E+01 -0.25340E-04
 0.76500001E+01 -0.17034E-03
 0.77000003E+01 -0.31373E-03
 0.77500000E+01 -0.44691E-03
 0.78000002E+01 -0.55625E-03
 0.78499999E+01 -0.64340E-03
 0.79000001E+01 -0.70220E-03
 0.79500003E+01 -0.73363E-03
 0.80000000E+01 -0.72673E-03
 0.80500002E+01 -0.69317E-03
 0.81000004E+01 -0.63141E-03
 0.81500006E+01 -0.55935E-03
 0.81999998E+01 -0.48845E-03
 0.82500000E+01 -0.39037E-03
 0.83000002E+01 -0.27827E-03
 0.83500004E+01 -0.19515E-03
 0.84000006E+01 -0.12996E-03
 0.84499998E+01 -0.71998E-04
 0.85000000E+01 -0.48981E-04
 0.85500002E+01 -0.36952E-04
 0.86000004E+01 -0.25618E-04
 0.86500006E+01 -0.20261E-04
 0.86999998E+01 -0.12305E-04
 0.87500000E+01  0.88004E-05
 0.88000002E+01  0.44898E-04
 0.88500004E+01  0.10324E-03
 0.89000006E+01  0.15915E-03
 0.89499998E+01  0.19978E-03
 0.90000000E+01  0.25064E-03
 0.90500002E+01  0.30491E-03
 0.91000004E+01  0.34410E-03
 0.91500006E+01  0.36877E-03
 0.91999998E+01  0.37706E-03
 0.92500000E+01  0.35533E-03
 0.93000002E+01  0.30770E-03
 0.93500004E+01  0.24679E-03
 0.94000006E+01  0.16921E-03
 0.94499998E+01  0.90702E-04
 0.95000000E+01  0.16760E-04
 0.95500002E+01 -0.57867E-04
 0.96000004E+01 -0.12603E-03
 0.96500006E+01 -0.17271E-03
 0.96999998E+01 -0.21181E-03
 0.97500000E+01 -0.23209E-03
 0.98000002E+01 -0.21945E-03
 0.98500004E+01 -0.17810E-03
 0.99000006E+01 -0.96438E-04
 0.99499998E+01  0.10691E-04
 0.10000000E+02  0.13429E-03
 0.10050000E+02  0.25770E-03
 0.10100000E+02  0.37160E-03
 0.10150001E+02  0.46683E-03
 0.10200000E+02  0.54551E-03
 0.10250000E+02  0.62090E-03
 0.10300000E+02  0.66875E-03
 0.10350000E+02  0.67568E-03
 0.10400001E+02  0.65048E-03
 0.10450000E+02  0.60610E-03
 0.10500000E+02  0.54364E-03
 0.10550000E+02  0.47951E-03
 0.10600000E+02  0.40772E-03
 0.10650001E+02  0.34157E-03
 0.10700000E+02  0.28049E-03
 0.10750000E+02  0.21718E-03
 0.10800000E+02  0.17184E-03
 0.10850000E+02  0.12584E-03
 0.10900001E+02  0.88227E-04
 0.10950000E+02  0.38922E-04
 0.11000000E+02 -0.47886E-05
 0.11050000E+02 -0.54072E-04
 0.11100000E+02 -0.12506E-03
 0.11150001E+02 -0.19914E-03
 0.11200000E+02 -0.28346E-03
 0.11250000E+02 -0.37169E-03
 0.11300000E+02 -0.44531E-03
 0.11350000E+02 -0.50449E-03
 0.11400001E+02 -0.55602E-03
 0.11450000E+02 -0.59697E-03
 0.11500000E+02 -0.63396E-03
 0.11550000E+02 -0.63634E-03
 0.11600000E+02 -0.61388E-03
 0.11650001E+02 -0.58335E-03
 0.11700000E+02 -0.53174E-03
 0.11750000E+02 -0.47316E-03
 0.11800000E+02 -0.41327E-03
 0.11850000E+02 -0.35354E-03
 0.11900001E+02 -0.29450E-03
 0.11950000E+02 -0.24083E-03
 0.12000000E+02 -0.19844E-03
 0.12050000E+02 -0.16008E-03
 0.12100000E+02 -0.12083E-03
 0.12150001E+02 -0.80634E-04
 0.12200000E+02 -0.43922E-04
 0.12250000E+02 -0.79941E-07
 0.12300000E+02  0.58850E-04
 0.12350000E+02  0.10479E-03
 0.12400001E+02  0.12871E-03
 0.12450000E+02  0.15640E-03
 0.12500000E+02  0.18275E-03
 0.12550000E+02  0.19516E-03
 0.12600000E+02  0.20882E-03
 0.12650001E+02  0.22512E-03
 0.12700000E+02  0.24051E-03
 0.12750000E+02  0.26872E-03
 0.12800000E+02  0.30057E-03
 0.12850000E+02  0.31596E-03
 0.12900001E+02  0.29966E-03
 0.12950000E+02  0.25943E-03
 0.13000000E+02  0.19328E-03
 0.13050000E+02  0.12226E-03
 0.13100000E+02  0.44885E-04
 0.13150001E+02 -0.57699E-04
 0.13200000E+02 -0.16234E-03
 0.13250000E+02 -0.26205E-03
 0.13300000E+02 -0.35428E-03
 0.13350000E+02 -0.43016E-03
 0.13400001E+02 -0.46522E-03
 0.13450000E+02 -0.46996E-03
 0.13500000E+02 -0.43535E-03
 0.13550000E+02 -0.35118E-03
 0.13600000E+02 -0.24675E-03
 0.13650001E+02 -0.11869E-03
 0.13700000E+02  0.81031E-05
 0.13750000E+02  0.12409E-03
 0.13800000E+02  0.23866E-03
 0.13850000E+02  0.34159E-03
 0.13900001E+02  0.44015E-03
 0.13950000E+02  0.51951E-03
 0.14000000E+02  0.58674E-03
 0.14050000E+02  0.63765E-03
 0.14100000E+02  0.66687E-03
 0.14150001E+02  0.68395E-03
 0.14200000E+02  0.67024E-03
 0.14250000E+02  0.65757E-03
 0.14300000E+02  0.64158E-03
 0.14350000E+02  0.61031E-03
 0.14400001E+02  0.56365E-03
 0.14450000E+02  0.50867E-03
 0.14500000E+02  0.47135E-03
 0.14550000E+02  0.41818E-03
 0.14600000E+02  0.36097E-03
 0.14650001E+02  0.29014E-03
 0.14700000E+02  0.20380E-03
 0.14750000E+02  0.10315E-03
 0.14800000E+02 -0.52814E-05
 0.14850000E+02 -0.95701E-04
 0.14900001E+02 -0.18715E-03
 0.14950000E+02 -0.24846E-03
 0.15000000E+02 -0.27922E-03
 0.15050000E+02 -0.27388E-03
 0.15100000E+02 -0.25300E-03
 0.15150001E+02 -0.22469E-03
 0.15200000E+02 -0.19572E-03
 0.15250000E+02 -0.19172E-03
 0.15300000E+02 -0.18952E-03
 0.15350000E+02 -0.20251E-03
 0.15400001E+02 -0.22834E-03
 0.15450000E+02 -0.24737E-03
 0.15500000E+02 -0.26895E-03
 0.15550000E+02 -0.29749E-03
 0.15600000E+02 -0.31543E-03
 0.15650001E+02 -0.33128E-03
 0.15700000E+02 -0.35155E-03
 0.15750000E+02 -0.37899E-03
 0.15800000E+02 -0.40393E-03
 0.15850000E+02 -0.43152E-03
 0.15900001E+02 -0.46276E-03
 0.15950000E+02 -0.49612E-03
 0.16000000E+02 -0.53060E-03
 0.16050001E+02 -0.56795E-03
 0.16100000E+02 -0.60416E-03
 0.16150000E+02 -0.61766E-03
 0.16200001E+02 -0.63031E-03
 0.16250000E+02 -0.61831E-03
 0.16300001E+02 -0.58840E-03
 0.16350000E+02 -0.55237E-03
 0.16400000E+02 -0.49211E-03
 0.16450001E+02 -0.42007E-03
 0.16500000E+02 -0.33356E-03
 0.16550001E+02 -0.22766E-03
 0.16600000E+02 -0.10229E-03
 0.16650000E+02  0.54928E-04
 0.16700001E+02  0.23834E-03
 0.16750000E+02  0.41497E-03
 0.16800001E+02  0.59243E-03
 0.16850000E+02  0.75388E-03
 0.16900000E+02  0.88736E-03
 0.16950001E+02  0.99676E-03
 0.17000000E+02  0.10588E-02
 0.17050001E+02  0.10849E-02
 0.17100000E+02  0.10771E-02
 0.17150000E+02  0.10356E-02
 0.17200001E+02  0.95090E-03
 0.17250000E+02  0.83286E-03
 0.17300001E+02  0.71067E-03
 0.17350000E+02  0.58264E-03
 0.17400000E+02  0.46841E-03
 0.17450001E+02  0.36753E-03
 0.17500000E+02  0.27119E-03
 0.17550001E+02  0.19519E-03
 0.17600000E+02  0.13074E-03
 0.17650000E+02  0.83156E-04
 0.17700001E+02  0.66009E-04
 0.17750000E+02  0.54261E-04
 0.17800001E+02  0.31832E-04
 0.17850000E+02  0.96816E-06
 0.17900000E+02 -0.40764E-04
 0.17950001E+02 -0.10477E-03
 0.18000000E+02 -0.17903E-03
 0.18050001E+02 -0.24404E-03
 0.18100000E+02 -0.31363E-03
 0.18150000E+02 -0.36091E-03
 0.18200001E+02 -0.37668E-03
 0.18250000E+02 -0.38962E-03
 0.18300001E+02 -0.37311E-03
 0.18350000E+02 -0.35581E-03
 0.18400000E+02 -0.33124E-03
 0.18450001E+02 -0.31431E-03
 0.18500000E+02 -0.27850E-03
 0.18550001E+02 -0.25058E-03
 0.18600000E+02 -0.21802E-03
 0.18650000E+02 -0.17557E-03
 0.18700001E+02 -0.15573E-03
 0.18750000E+02 -0.11422E-03
 0.18800001E+02 -0.86054E-04
 0.18850000E+02 -0.66479E-05
 0.18900000E+02  0.14914E-03
 0.18950001E+02  0.64490E-03
 0.19000000E+02  0.17267E-02
 0.19050001E+02  0.24723E-02
 0.19100000E+02  0.18454E-02
 0.19150000E+02  0.15307E-02
 0.19200001E+02  0.10226E-02
 0.19250000E+02  0.65898E-03
 0.19300001E+02  0.91025E-03
 0.19350000E+02  0.17425E-02
 0.19400000E+02  0.31569E-02
 0.19450001E+02  0.53679E-02
 0.19500000E+02  0.50869E-02
 0.19550001E+02  0.41991E-02
 0.19600000E+02  0.16570E-02
 0.19650000E+02 -0.84960E-03
 0.19700001E+02 -0.31446E-02
 0.19750000E+02 -0.31988E-02
 0.19800001E+02 -0.50970E-02
 0.19850000E+02 -0.45898E-02
 0.19900000E+02 -0.76107E-03
 0.19950001E+02 -0.22838E-03
 0.20000000E+02 -0.67743E-02
 0.20050001E+02 -0.12954E-01
 0.20100000E+02  0.49484E-02
 0.20150000E+02  0.30857E-02
 0.20200001E+02 -0.33395E-02
 0.20250000E+02 -0.60445E-02
 0.20300001E+02 -0.13790E-01
 0.20350000E+02  0.44914E-02
 0.20400000E+02  0.19822E-02
 0.20450001E+02 -0.61489E-02
 0.20500000E+02  0.88081E-02
 0.20550001E+02  0.52799E-02
 0.20600000E+02 -0.19285E-02
 0.20650000E+02 -0.16814E-01
 0.20700001E+02 -0.12732E-01
 0.20750000E+02  0.13110E-01
 0.20800001E+02  0.16522E-01
 0.20850000E+02 -0.16796E-01
 0.20900000E+02 -0.63481E-02
 0.20950001E+02  0.30250E-01
 0.21000000E+02  0.78130E-02
 0.21050001E+02 -0.63681E-02
 0.21100000E+02 -0.51922E-02
 0.21150000E+02  0.63243E-02
 0.21200001E+02  0.15053E-01
 0.21250000E+02  0.40496E-02
 0.21300001E+02 -0.10916E-02
 0.21350000E+02  0.86537E-02
 0.21400000E+02 -0.69625E-02
 0.21450001E+02  0.65462E-02
 0.21500000E+02  0.68961E-02
 0.21550001E+02  0.27810E-02
 0.21600000E+02  0.22617E-01
 0.21650000E+02  0.12019E-01
 0.21700001E+02  0.32483E-02
 0.21750000E+02  0.98891E-03
 0.21800001E+02 -0.54269E-02
 0.21850000E+02 -0.48911E-02
 0.21900000E+02 -0.12917E-01
 0.21950001E+02 -0.25895E-01
 0.22000000E+02 -0.10033E-01
 0.22050001E+02 -0.18356E-03
 0.22100000E+02 -0.60893E-02
 0.22150000E+02  0.13677E-01
 0.22200001E+02  0.12009E-01
 0.22250000E+02 -0.12723E-01
 0.22300001E+02  0.85314E-03
 0.22350000E+02 -0.22707E-01
 0.22400000E+02 -0.19725E-01
 0.22450001E+02  0.30631E-02
 0.22500000E+02  0.78896E-02
 0.22550001E+02 -0.29820E-03
 0.22600000E+02  0.53009E-02
 0.22650000E+02  0.75649E-02
 0.22700001E+02  0.28229E-02
 0.22750000E+02 -0.88546E-03
 0.22800001E+02 -0.14317E-01
 0.22850000E+02  0.29208E-02
 0.22900000E+02 -0.75665E-02
 0.22950001E+02 -0.49475E-02
 0.23000000E+02  0.12068E-01
 0.23050001E+02  0.90592E-02
 0.23100000E+02  0.13735E-01
 0.23150000E+02  0.20352E-01
 0.23200001E+02  0.86986E-02
 0.23250000E+02 -0.29499E-02
 0.23300001E+02 -0.34231E-02
 0.23350000E+02 -0.44426E-02
 0.23400000E+02  0.49441E-03
 0.23450001E+02 -0.12910E-01
 0.23500000E+02 -0.25114E-01
 0.23550001E+02  0.12993E-01
 0.23600000E+02  0.32700E-01
 0.23650000E+02  0.34027E-01
 0.23700001E+02  0.23413E-01
 0.23750000E+02  0.49224E-02
 0.23800001E+02  0.21966E-02
 0.23850000E+02  0.24018E-02
 0.23900000E+02  0.61988E-03
 0.23950001E+02 -0.71626E-02
 0.24000000E+02  0.20291E-02
 0.24050001E+02 -0.12059E-01
 0.24100000E+02 -0.87335E-02
 0.24150000E+02  0.17175E-02
 0.24200001E+02 -0.18042E-01
 0.24250000E+02  0.27146E-02
 0.24300001E+02  0.62142E-02
 0.24350000E+02  0.35295E-02
 0.24400000E+02  0.12545E-02
 0.24450001E+02 -0.80853E-02
 0.24500000E+02 -0.13303E-01
 0.24550001E+02 -0.16246E-01
 0.24600000E+02 -0.72375E-02
 0.24650000E+02  0.42931E-02
 0.24700001E+02  0.88090E-02
 0.24750000E+02 -0.97528E-02
 0.24800001E+02 -0.26638E-02
 0.24850000E+02 -0.18340E-01
 0.24900000E+02 -0.19900E-01
 0.24950001E+02  0.14412E-01
 0.25000000E+02  0.18631E-01
 0.25050001E+02  0.19212E-01
 0.25100000E+02  0.14343E-01
 0.25150000E+02  0.29197E-02
 0.25200001E+02 -0.10489E-02
 0.25250000E+02 -0.11423E-01
 0.25300001E+02  0.88293E-02
 0.25350000E+02  0.18170E-01
 0.25400000E+02 -0.66388E-02
 0.25450001E+02 -0.29135E-02
 0.25500000E+02  0.69804E-02
 0.25550001E+02  0.95288E-02
 0.25600000E+02  0.49075E-02
 0.25650000E+02 -0.70760E-02
 0.25700001E+02 -0.10174E-01
 0.25750000E+02 -0.23172E-02
 0.25800001E+02 -0.21377E-02
 0.25850000E+02 -0.11929E-02
 0.25900000E+02  0.62561E-04
 0.25950001E+02  0.12158E-01
 0.26000000E+02  0.88753E-02
 0.26050001E+02 -0.12100E-01
 0.26100000E+02 -0.14837E-01
 0.26150000E+02 -0.21264E-01
 0.26200001E+02 -0.30452E-01
 0.26250000E+02 -0.29520E-01
 0.26300001E+02 -0.21078E-01
 0.26350000E+02 -0.19299E-01
 0.26400000E+02 -0.15227E-03
 0.26450001E+02  0.11219E-01
 0.26500000E+02 -0.19160E-02
 0.26550001E+02 -0.16820E-02
 0.26600000E+02 -0.78892E-02
 0.26650000E+02 -0.63597E-02
 0.26700001E+02  0.18491E-01
 0.26750000E+02  0.18352E-01
 0.26800001E+02  0.69716E-02
 0.26850000E+02  0.23963E-01
 0.26900000E+02  0.11316E-01
 0.26950001E+02 -0.12645E-02
 0.27000000E+02  0.38468E-02
 0.27050001E+02  0.19527E-02
 0.27100000E+02  0.18925E-01
 0.27150000E+02  0.66288E-02
 0.27200001E+02 -0.34297E-02
 0.27250000E+02  0.19479E-02
 0.27300001E+02 -0.33294E-02
 0.27350000E+02  0.35827E-02
 0.27400000E+02 -0.15685E-01
 0.27450001E+02 -0.14599E-01
 0.27500000E+02 -0.58067E-02
 0.27550001E+02 -0.20585E-01
 0.27600000E+02 -0.15821E-01
 0.27650000E+02 -0.88911E-02
 0.27700001E+02 -0.31240E-02
 0.27750000E+02 -0.88640E-02
 0.27800001E+02 -0.77172E-02
 0.27850000E+02 -0.61591E-02
 0.27900000E+02 -0.22698E-01
 0.27950001E+02 -0.27153E-01
 0.28000000E+02 -0.11374E-01
 0.28050001E+02 -0.25064E-02
 0.28100000E+02  0.70244E-02
 0.28150000E+02 -0.68010E-03
 0.28200001E+02 -0.71108E-02
 0.28250000E+02 -0.52061E-02
 0.28300001E+02 -0.14923E-01
 0.28350000E+02  0.19866E-02
 0.28400000E+02  0.72867E-02
 0.28450001E+02  0.70763E-02
 0.28500000E+02  0.11363E-01
 0.28550001E+02  0.70571E-02
 0.28600000E+02  0.61452E-02
 0.28650000E+02  0.26269E-01
 0.28700001E+02  0.27559E-01
 0.28750000E+02 -0.43824E-02
 0.28800001E+02 -0.43542E-03
 0.28850000E+02  0.15153E-01
 0.28900000E+02  0.13718E-01
 0.28950001E+02 -0.55487E-02
 0.29000000E+02 -0.21584E-01
 0.29050001E+02 -0.93780E-02
 0.29100000E+02 -0.32283E-02
 0.29150000E+02 -0.13519E-02
 0.29200001E+02  0.10393E-01
 0.29250000E+02  0.29665E-02
 0.29300001E+02  0.38886E-02
 0.29350000E+02  0.90641E-02
 0.29400000E+02  0.65068E-02
 0.29450001E+02  0.17200E-01
 0.29500000E+02  0.91531E-02
 0.29550001E+02 -0.27517E-02
 0.29600000E+02  0.88868E-02
 0.29650000E+02  0.17716E-02
 0.29700001E+02 -0.98883E-02
 0.29750000E+02 -0.49016E-02
 0.29800001E+02 -0.70364E-02
 0.29850000E+02 -0.20449E-01
 0.29900000E+02 -0.35132E-01
 0.29950001E+02 -0.36659E-01
 0.30000000E+02 -0.21239E-01
 0.30050001E+02 -0.65316E-03
 0.30100000E+02  0.12261E-02
 0.30150000E+02 -0.56933E-02
 0.30200001E+02 -0.46492E-02
 0.30250000E+02  0.19660E-01
 0.30300001E+02  0.11966E-01
 0.30350000E+02 -0.12980E-01
 0.30400000E+02  0.29540E-02
 0.30450001E+02  0.18296E-01
 0.30500000E+02  0.93545E-02
 0.30550001E+02  0.19501E-02
 0.30600000E+02  0.13178E-01
 0.30650000E+02  0.65433E-03
 0.30700001E+02  0.10427E-02
 0.30750000E+02  0.65711E-02
 0.30800001E+02 -0.12442E-02
 0.30850000E+02  0.19514E-01
 0.30900000E+02  0.20697E-01
 0.30950001E+02  0.16008E-02
 0.31000000E+02  0.88400E-02
 0.31050001E+02  0.26743E-02
 0.31100000E+02 -0.21531E-02
 0.31150000E+02 -0.26562E-02
 0.31200001E+02 -0.17225E-01
 0.31250000E+02 -0.14916E-01
 0.31300001E+02 -0.78445E-02
 0.31350000E+02 -0.10717E-01
 0.31400000E+02 -0.34500E-02
 0.31450001E+02  0.26558E-02
 0.31500000E+02  0.10958E-02
 0.31550001E+02  0.26132E-02
 0.31600000E+02  0.63866E-02
 0.31650000E+02  0.13611E-02
 0.31700001E+02 -0.13743E-01
 0.31750000E+02 -0.33064E-02
 0.31800001E+02  0.44006E-02
 0.31850000E+02  0.19886E-01
 0.31900000E+02  0.28589E-01
 0.31950001E+02  0.19486E-01
 0.32000000E+02  0.96317E-02
 0.32049999E+02 -0.33566E-02
 0.32100002E+02 -0.90967E-02
 0.32150002E+02 -0.46956E-02
 0.32200001E+02 -0.11339E-01
 0.32250000E+02 -0.19375E-02
 0.32299999E+02  0.10758E-01
 0.32350002E+02  0.21942E-01
 0.32400002E+02  0.62903E-01
 0.32450001E+02  0.83095E-01
 0.32500000E+02  0.83218E-01
 0.32549999E+02  0.58572E-01
 0.32600002E+02  0.28590E-01
 0.32650002E+02 -0.51759E-02
 0.32700001E+02 -0.44414E-01
 0.32750000E+02 -0.93196E-01
 0.32799999E+02 -0.13629E+00
 0.32850002E+02 -0.15910E+00
 0.32900002E+02 -0.16682E+00
 0.32950001E+02 -0.16719E+00
 0.33000000E+02 -0.15421E+00
 0.33049999E+02 -0.10010E+00
 0.33100002E+02  0.27508E-02
 0.33150002E+02  0.11138E+00
 0.33200001E+02  0.16968E+00
 0.33250000E+02  0.19530E+00
 0.33299999E+02  0.21378E+00
 0.33350002E+02  0.20182E+00
 0.33400002E+02  0.13858E+00
 0.33450001E+02  0.11426E+00
 0.33500000E+02  0.44510E-01
 0.33549999E+02 -0.39302E-01
 0.33600002E+02 -0.69361E-01
 0.33650002E+02 -0.70835E-01
 0.33700001E+02 -0.17726E-01
 0.33750000E+02  0.19875E-01
 0.33799999E+02  0.25351E-01
 0.33850002E+02  0.58756E-01
 0.33900002E+02  0.14143E+00
 0.33950001E+02  0.15433E+00
 0.34000000E+02  0.10419E+00
 0.34049999E+02  0.28550E-01
 0.34100002E+02 -0.73889E-01
 0.34150002E+02 -0.27217E+00
 0.34200001E+02 -0.40441E+00
 0.34250000E+02 -0.44021E+00
 0.34299999E+02 -0.52795E+00
 0.34350002E+02 -0.48052E+00
 0.34400002E+02 -0.36052E+00
 0.34450001E+02 -0.12714E+00
 0.34500000E+02  0.19840E+00
 0.34549999E+02  0.50595E+00
 0.34600002E+02  0.76634E+00
 0.34650002E+02  0.83198E+00
 0.34700001E+02  0.85121E+00
 0.34750000E+02  0.73982E+00
 0.34799999E+02  0.29933E+00
 0.34850002E+02 -0.23492E+00
 0.34900002E+02 -0.58424E+00
 0.34950001E+02 -0.78883E+00
 0.35000000E+02 -0.10000E+01
 0.35049999E+02 -0.88797E+00
 0.35100002E+02 -0.22002E+00
 0.35150002E+02  0.29203E+00
 0.35200001E+02  0.42793E+00
 0.35250000E+02  0.49106E+00
 0.35299999E+02  0.61791E+00
 0.35350002E+02  0.38982E+00
 0.35400002E+02  0.57628E-01
 0.35450001E+02  0.14833E+00
 0.35500000E+02 -0.14566E+00
 0.35549999E+02 -0.51489E+00
 0.35600002E+02 -0.44035E+00
 0.35650002E+02 -0.43247E+00
 0.35700001E+02 -0.36996E+00
 0.35750000E+02 -0.26753E-01
 0.35799999E+02 -0.36134E-01
 0.35850002E+02 -0.18524E+00
 0.35900002E+02 -0.86299E-01
 0.35950001E+02  0.78279E-01
 0.36000000E+02  0.35704E+00
 0.36049999E+02  0.60558E+00
 0.36100002E+02  0.66478E+00
 0.36150002E+02  0.64463E+00
 0.36200001E+02  0.36952E+00
 0.36250000E+02  0.11944E+00
 0.36299999E+02 -0.10067E+00
 0.36350002E+02 -0.31673E+00
 0.36400002E+02 -0.37940E+00
 0.36450001E+02 -0.54558E+00
 0.36500000E+02 -0.36496E+00
 0.36549999E+02 -0.15963E+00
 0.36600002E+02  0.10982E+00
 0.36650002E+02  0.24816E+00
 0.36700001E+02  0.13616E+00
 0.36750000E+02  0.53708E-01
 0.36799999E+02 -0.48043E-01
 0.36850002E+02  0.57076E-01
 0.36900002E+02 -0.15988E+00
 0.36950001E+02 -0.13152E+00
 0.37000000E+02 -0.12359E+00
 0.37049999E+02 -0.21257E+00
 0.37100002E+02  0.86996E-01
 0.37150002E+02  0.77646E-01
 0.37200001E+02  0.10269E-01
 0.37250000E+02 -0.57398E-01
 0.37299999E+02  0.95772E-02
 0.37350002E+02 -0.20538E-01
 0.37400002E+02 -0.36675E-01
 0.37450001E+02  0.88476E-01
 0.37500000E+02  0.54149E-02
 0.37549999E+02  0.70204E-01
 0.37600002E+02  0.16452E+00
 0.37650002E+02  0.14850E+00
 0.37700001E+02  0.45614E-01
 0.37750000E+02 -0.17718E+00
 0.37799999E+02 -0.28148E+00
 0.37850002E+02 -0.23161E+00
 0.37900002E+02 -0.54740E-01
 0.37950001E+02 -0.42903E-01
 0.38000000E+02 -0.23900E-01
 0.38049999E+02  0.11778E+00
 0.38100002E+02  0.12526E+00
 0.38150002E+02  0.21023E+00
 0.38200001E+02  0.20258E+00
 0.38250000E+02  0.77705E-01
 0.38299999E+02  0.22371E-01
 0.38350002E+02 -0.70922E-01
 0.38400002E+02 -0.16551E+00
 0.38450001E+02 -0.35694E-01
 0.38500000E+02  0.27539E-01
 0.38549999E+02  0.48264E-01
 0.38600002E+02  0.48930E-01
 0.38650002E+02  0.69461E-02
 0.38700001E+02  0.11711E+00
 0.38750000E+02  0.27213E-01
 0.38799999E+02 -0.14326E+00
 0.38850002E+02 -0.17813E+00
 0.38900002E+02 -0.17713E+00
 0.38950001E+02 -0.72394E-01
 0.39000000E+02  0.25925E-01
 0.39049999E+02  0.95947E-01
 0.39100002E+02  0.21035E+00
 0.39150002E+02  0.24422E+00
 0.39200001E+02  0.18587E+00
 0.39250000E+02  0.66198E-01
 0.39299999E+02 -0.38912E-01
 0.39350002E+02 -0.17287E+00
 0.39400002E+02 -0.35275E+00
 0.39450001E+02 -0.35747E+00
 0.39500000E+02 -0.28629E+00
 0.39549999E+02 -0.18274E+00
 0.39600002E+02 -0.47756E-01
 0.39650002E+02  0.85680E-01
 0.39700001E+02  0.25005E+00
 0.39750000E+02  0.28144E+00
 0.39799999E+02  0.19670E+00
 0.39850002E+02  0.14729E+00
 0.39900002E+02  0.12404E+00
 0.39950001E+02  0.41919E-01
 0.40000000E+02 -0.15928E-01
 0.40049999E+02 -0.78416E-01
 0.40100002E+02 -0.71108E-01
 0.40150002E+02 -0.78472E-01
 0.40200001E+02 -0.93543E-01
 0.40250000E+02 -0.92416E-01
 0.40299999E+02 -0.18603E+00
 0.40350002E+02 -0.17852E+00
 0.40400002E+02 -0.15340E+00
 0.40450001E+02 -0.73294E-02
 0.40500000E+02  0.16346E+00
 0.40549999E+02  0.27525E+00
 0.40600002E+02  0.29943E+00
 0.40650002E+02  0.18698E+00
 0.40700001E+02  0.11791E+00
 0.40750000E+02  0.66631E-03
 0.40799999E+02 -0.10010E+00
 0.40850002E+02 -0.13188E+00
 0.40900002E+02 -0.91647E-01
 0.40950001E+02 -0.96058E-01
 0.41000000E+02 -0.10193E+00
 0.41049999E+02 -0.81531E-01
 0.41100002E+02 -0.20779E-01
 0.41150002E+02  0.10104E+00
 0.41200001E+02  0.10072E+00
 0.41250000E+02  0.84023E-01
 0.41299999E+02  0.92134E-01
 0.41350002E+02  0.12800E+00
 0.41400002E+02  0.15348E+00
 0.41450001E+02  0.14255E+00
 0.41500000E+02  0.96460E-01
 0.41549999E+02  0.52043E-01
 0.41600002E+02 -0.50652E-01
 0.41650002E+02 -0.19835E+00
 0.41700001E+02 -0.24148E+00
 0.41750000E+02 -0.20035E+00
 0.41799999E+02 -0.87290E-01
 0.41850002E+02  0.23961E-01
 0.41900002E+02  0.10811E+00
 0.41950001E+02  0.13354E+00
 0.42000000E+02  0.96314E-01
 0.42049999E+02  0.64326E-01
 0.42100002E+02  0.23468E-01
 0.42150002E+02 -0.70920E-01
 0.42200001E+02 -0.11457E+00
 0.42250000E+02 -0.10981E+00
 0.42299999E+02 -0.12603E+00
 0.42350002E+02 -0.12066E+00
 0.42400002E+02 -0.14838E+00
 0.42450001E+02 -0.14899E+00
 0.42500000E+02 -0.77499E-01
 0.42549999E+02 -0.78261E-01
 0.42600002E+02 -0.96096E-01
 0.42650002E+02 -0.70848E-01
 0.42700001E+02 -0.34685E-01
 0.42750000E+02  0.60936E-01
 0.42799999E+02  0.92823E-01
 0.42850002E+02  0.14663E+00
 0.42900002E+02  0.20616E+00
 0.42950001E+02  0.15361E+00
 0.43000000E+02  0.12546E+00
 0.43049999E+02  0.87886E-01
 0.43100002E+02  0.85730E-01
 0.43150002E+02  0.12706E+00
 0.43200001E+02  0.74833E-01
 0.43250000E+02  0.86711E-02
 0.43299999E+02 -0.33879E-01
 0.43350002E+02 -0.43870E-01
 0.43400002E+02 -0.28141E-01
 0.43450001E+02 -0.60673E-01
 0.43500000E+02 -0.76499E-01
 0.43549999E+02 -0.52482E-01
 0.43600002E+02  0.35903E-01
 0.43650002E+02  0.12615E+00
 0.43700001E+02  0.10232E+00
 0.43750000E+02  0.22115E-01
 0.43799999E+02 -0.18178E-01
 0.43850002E+02 -0.46135E-01
 0.43900002E+02 -0.11486E+00
 0.43950001E+02 -0.16285E+00
 0.44000000E+02 -0.12907E+00
 0.44049999E+02 -0.74387E-01
 0.44100002E+02  0.18020E-01
 0.44150002E+02  0.90735E-01
 0.44200001E+02  0.12008E+00
 0.44250000E+02  0.13812E+00
 0.44299999E+02  0.83915E-01
 0.44350002E+02  0.48020E-01
 0.44400002E+02  0.13851E-02
 0.44450001E+02 -0.41112E-01
 0.44500000E+02 -0.48076E-01
 0.44549999E+02 -0.38176E-01
 0.44600002E+02 -0.37814E-01
 0.44650002E+02 -0.35488E-01
 0.44700001E+02 -0.55308E-01
 0.44750000E+02 -0.81250E-01
 0.44799999E+02 -0.13322E+00
 0.44850002E+02 -0.21234E+00
 0.44900002E+02 -0.18708E+00
 0.44950001E+02 -0.10169E+00
 0.45000000E+02  0.15273E-01
 0.45049999E+02  0.63411E-01
 0.45100002E+02  0.12071E+00
 0.45150002E+02  0.17665E+00
 0.45200001E+02  0.16100E+00
 0.45250000E+02  0.13341E+00
 0.45299999E+02  0.10076E+00
 0.45350002E+02  0.48681E-01
 0.45400002E+02  0.62205E-02
 0.45450001E+02 -0.10439E-01
 0.45500000E+02 -0.11221E-01
 0.45549999E+02  0.12216E-01
 0.45600002E+02  0.24777E-01
 0.45650002E+02  0.60591E-01
 0.45700001E+02  0.68093E-01
 0.45750000E+02  0.84824E-01
 0.45799999E+02  0.11706E+00
 0.45850002E+02  0.10196E+00
 0.45900002E+02  0.98222E-01
 0.45950001E+02  0.10791E+00
 0.46000000E+02  0.10681E+00
 0.46049999E+02  0.76510E-01
 0.46100002E+02 -0.25055E-01
 0.46150002E+02 -0.14516E+00
 0.46200001E+02 -0.24548E+00
 0.46250000E+02 -0.29477E+00
 0.46299999E+02 -0.32654E+00
 0.46350002E+02 -0.31094E+00
 0.46400002E+02 -0.18785E+00
 0.46450001E+02 -0.80157E-01
 0.46500000E+02  0.16902E-01
 0.46549999E+02  0.11186E+00
 0.46600002E+02  0.15477E+00
 0.46650002E+02  0.17583E+00
 0.46700001E+02  0.17656E+00
 0.46750000E+02  0.15587E+00
 0.46799999E+02  0.98687E-01
 0.46850002E+02  0.40445E-01
 0.46900002E+02 -0.14632E-01
 0.46950001E+02 -0.67290E-01
 0.47000000E+02 -0.92183E-01
 0.47049999E+02 -0.83750E-01
 0.47100002E+02 -0.52761E-01
 0.47150002E+02 -0.42410E-01
 0.47200001E+02  0.93894E-02
 0.47250000E+02  0.75794E-01
 0.47299999E+02  0.12921E+00
 0.47350002E+02  0.13989E+00
 0.47400002E+02  0.10375E+00
 0.47450001E+02  0.68374E-01
 0.47500000E+02  0.13598E-01
 0.47549999E+02 -0.44125E-01
 0.47600002E+02 -0.90662E-01
 0.47650002E+02 -0.13619E+00
 0.47700001E+02 -0.18934E+00
 0.47750000E+02 -0.19732E+00
 0.47799999E+02 -0.15224E+00
 0.47850002E+02 -0.89703E-01
 0.47900002E+02 -0.28917E-01
 0.47950001E+02  0.39679E-01
 0.48000000E+02  0.99983E-01
 0.48049999E+02  0.14148E+00
 0.48100002E+02  0.16483E+00
 0.48150002E+02  0.15510E+00
 0.48200001E+02  0.12923E+00
 0.48250000E+02  0.70893E-01
 0.48299999E+02  0.39631E-01
 0.48350002E+02  0.35517E-01
 0.48400002E+02  0.27913E-01
 0.48450001E+02  0.30597E-01
 0.48500000E+02  0.24256E-01
 0.48549999E+02  0.11691E-01
 0.48600002E+02  0.13865E-01
 0.48650002E+02  0.45698E-01
 0.48700001E+02  0.60453E-01
 0.48750000E+02  0.22119E-01
 0.48799999E+02 -0.21589E-01
 0.48850002E+02 -0.60876E-01
 0.48900002E+02 -0.88248E-01
 0.48950001E+02 -0.11388E+00
 0.49000000E+02 -0.14325E+00
 0.49049999E+02 -0.16585E+00
 0.49100002E+02 -0.19176E+00
 0.49150002E+02 -0.21401E+00
 0.49200001E+02 -0.19747E+00
 0.49250000E+02 -0.14503E+00
 0.49299999E+02 -0.86934E-01
 0.49350002E+02  0.59115E-03
 0.49400002E+02  0.10234E+00
 0.49450001E+02  0.19493E+00
 0.49500000E+02  0.22206E+00
 0.49549999E+02  0.21570E+00
 0.49600002E+02  0.19978E+00
 0.49650002E+02  0.13487E+00
 0.49700001E+02  0.80603E-01
 0.49750000E+02  0.15936E-01
 0.49799999E+02 -0.37726E-01
 0.49850002E+02 -0.44836E-01
 0.49900002E+02 -0.58082E-01
 0.49950001E+02 -0.26542E-01
 0.50000000E+02  0.17601E-02
 0.50049999E+02  0.12658E-02
 0.50100002E+02  0.20122E-01
 0.50150002E+02  0.24855E-01
 0.50200001E+02  0.12856E-01
 0.50250000E+02  0.13365E-01
 0.50299999E+02  0.10797E-01
 0.50350002E+02  0.21456E-01
 0.50400002E+02  0.22404E-01
 0.50450001E+02 -0.55353E-02
 0.50500000E+02 -0.28310E-01
 0.50549999E+02 -0.56273E-01
 0.50600002E+02 -0.45521E-01
 0.50650002E+02 -0.53003E-01
 0.50700001E+02 -0.70104E-01
 0.50750000E+02 -0.56241E-01
 0.50799999E+02 -0.61146E-01
 0.50850002E+02 -0.71717E-01
 0.50900002E+02 -0.53873E-01
 0.50950001E+02 -0.31593E-01
 0.51000000E+02 -0.22715E-02
 0.51049999E+02  0.51510E-01
 0.51100002E+02  0.61549E-01
 0.51150002E+02  0.68175E-01
 0.51200001E+02  0.80801E-01
 0.51250000E+02  0.73262E-01
 0.51299999E+02  0.47613E-01
 0.51350002E+02  0.90542E-02
 0.51400002E+02 -0.14605E-01
 0.51450001E+02 -0.33802E-01
 0.51500000E+02 -0.26349E-01
 0.51549999E+02 -0.21738E-01
 0.51600002E+02 -0.13012E-03
 0.51650002E+02  0.51197E-01
 0.51700001E+02  0.90196E-01
 0.51750000E+02  0.87807E-01
 0.51799999E+02  0.46061E-01
 0.51850002E+02  0.82546E-02
 0.51900002E+02 -0.43832E-01
 0.51950001E+02 -0.86492E-01
 0.52000000E+02 -0.10198E+00
 0.52049999E+02 -0.10537E+00
 0.52100002E+02 -0.92377E-01
 0.52150002E+02 -0.99111E-01
 0.52200001E+02 -0.10621E+00
 0.52250000E+02 -0.12030E+00
 0.52299999E+02 -0.13602E+00
 0.52350002E+02 -0.13049E+00
 0.52400002E+02 -0.12658E+00
 0.52450001E+02 -0.88410E-01
 0.52500000E+02 -0.42762E-01
 0.52549999E+02  0.29676E-02
 0.52600002E+02  0.51790E-01
 0.52650002E+02  0.98583E-01
 0.52700001E+02  0.15421E+00
 0.52750000E+02  0.18714E+00
 0.52799999E+02  0.17269E+00
 0.52850002E+02  0.15372E+00
 0.52900002E+02  0.14995E+00
 0.52950001E+02  0.13867E+00
 0.53000000E+02  0.12993E+00
 0.53049999E+02  0.11703E+00
 0.53100002E+02  0.90797E-01
 0.53150002E+02  0.65431E-01
 0.53200001E+02  0.50551E-01
 0.53250000E+02  0.11612E-01
 0.53299999E+02 -0.34981E-01
 0.53350002E+02 -0.38556E-01
 0.53400002E+02 -0.30653E-01
 0.53450001E+02 -0.42762E-01
 0.53500000E+02 -0.66619E-01
 0.53549999E+02 -0.79585E-01
 0.53600002E+02 -0.93815E-01
 0.53650002E+02 -0.13183E+00
 0.53700001E+02 -0.15796E+00
 0.53750000E+02 -0.17319E+00
 0.53799999E+02 -0.17288E+00
 0.53850002E+02 -0.17223E+00
 0.53900002E+02 -0.17568E+00
 0.53950001E+02 -0.15221E+00
 0.54000000E+02 -0.10133E+00
 0.54049999E+02 -0.53083E-01
 0.54100002E+02 -0.24247E-01
 0.54150002E+02  0.21647E-01
 0.54200001E+02  0.75445E-01
 0.54250000E+02  0.13735E+00
 0.54299999E+02  0.18116E+00
 0.54350002E+02  0.19042E+00
 0.54400002E+02  0.18354E+00
 0.54450001E+02  0.15180E+00
 0.54500000E+02  0.10810E+00
 0.54549999E+02  0.35316E-01
 0.54600002E+02 -0.35500E-01
 0.54650002E+02 -0.78352E-01
 0.54700001E+02 -0.84986E-01
 0.54750000E+02 -0.41613E-01
 0.54799999E+02  0.28690E-01
 0.54850002E+02  0.98798E-01
 0.54900002E+02  0.16581E+00
 0.54950001E+02  0.22535E+00
 0.55000000E+02  0.23542E+00
 0.55049999E+02  0.21502E+00
 0.55100002E+02  0.16002E+00
 0.55150002E+02  0.90940E-01
 0.55200001E+02  0.31821E-01
 0.55250000E+02 -0.36968E-01
 0.55299999E+02 -0.74714E-01
 0.55350002E+02 -0.89423E-01
 0.55400002E+02 -0.11400E+00
 0.55450001E+02 -0.12762E+00
 0.55500000E+02 -0.14871E+00
 0.55549999E+02 -0.15979E+00
 0.55600002E+02 -0.13611E+00
 0.55650002E+02 -0.13386E+00
 0.55700001E+02 -0.13232E+00
 0.55750000E+02 -0.11446E+00
 0.55799999E+02 -0.86334E-01
 0.55850002E+02 -0.49744E-01
 0.55900002E+02 -0.27886E-01
 0.55950001E+02 -0.45598E-02
 0.56000000E+02  0.14273E-01
 0.56049999E+02  0.22198E-01
 0.56100002E+02  0.29691E-01
 0.56150002E+02  0.19291E-01
 0.56200001E+02 -0.44289E-02
 0.56250000E+02 -0.18177E-01
 0.56299999E+02 -0.20786E-01
 0.56350002E+02 -0.39834E-02
 0.56400002E+02  0.19476E-01
 0.56450001E+02  0.40719E-01
 0.56500000E+02  0.60232E-01
 0.56549999E+02  0.81579E-01
 0.56600002E+02  0.89234E-01
 0.56650002E+02  0.70956E-01
 0.56700001E+02  0.61696E-01
 0.56750000E+02  0.51167E-01
 0.56799999E+02  0.39657E-01
 0.56850002E+02  0.41422E-01
 0.56900002E+02  0.56396E-01
 0.56950001E+02  0.69142E-01
 0.57000000E+02  0.81072E-01
 0.57049999E+02  0.79697E-01
 0.57100002E+02  0.65097E-01
 0.57150002E+02  0.33055E-01
 0.57200001E+02 -0.19241E-01
 0.57250000E+02 -0.55152E-01
 0.57299999E+02 -0.94466E-01
 0.57350002E+02 -0.10369E+00
 0.57400002E+02 -0.75431E-01
 0.57450001E+02 -0.35834E-01
 0.57500000E+02  0.99677E-02
 0.57549999E+02  0.52047E-01
 0.57600002E+02  0.90215E-01
 0.57650002E+02  0.96059E-01
 0.57700001E+02  0.71824E-01
 0.57750000E+02  0.31543E-01
 0.57799999E+02 -0.22288E-01
 0.57850002E+02 -0.78596E-01
 0.57900002E+02 -0.11853E+00
 0.57950001E+02 -0.15596E+00
 0.58000000E+02 -0.18437E+00
 0.58049999E+02 -0.16974E+00
 0.58100002E+02 -0.13819E+00
 0.58150002E+02 -0.11127E+00
 0.58200001E+02 -0.78500E-01
 0.58250000E+02 -0.40157E-01
 0.58299999E+02 -0.50816E-02
 0.58350002E+02  0.44526E-01
 0.58400002E+02  0.89698E-01
 0.58450001E+02  0.10296E+00
 0.58500000E+02  0.10598E+00
 0.58549999E+02  0.95238E-01
 0.58600002E+02  0.85913E-01
 0.58650002E+02  0.74271E-01
 0.58700001E+02  0.42459E-01
 0.58750000E+02 -0.87179E-02
 0.58799999E+02 -0.48253E-01
 0.58850002E+02 -0.71706E-01
 0.58900002E+02 -0.87977E-01
 0.58950001E+02 -0.76770E-01
 0.59000000E+02 -0.55657E-01
 0.59049999E+02 -0.51616E-02
 0.59100002E+02  0.45995E-01
 0.59150002E+02  0.92398E-01
 0.59200001E+02  0.13041E+00
 0.59250000E+02  0.13580E+00
 0.59299999E+02  0.12327E+00
 0.59350002E+02  0.94750E-01
 0.59400002E+02  0.67416E-01
 0.59450001E+02  0.51977E-01
 0.59500000E+02  0.41516E-01
 0.59549999E+02  0.21317E-01
 0.59600002E+02  0.51758E-02
 0.59650002E+02 -0.17436E-01
 0.59700001E+02 -0.31457E-01
 0.59750000E+02 -0.33350E-01
 0.59799999E+02 -0.48400E-01
 0.59850002E+02 -0.67881E-01
 0.59900002E+02 -0.92422E-01
 0.59950001E+02 -0.10221E+00
 0.60000000E+02 -0.10124E+00
 0.60049999E+02 -0.10018E+00
 0.60100002E+02 -0.94091E-01
 0.60150002E+02 -0.84536E-01
 0.60200001E+02 -0.56646E-01
 0.60250000E+02 -0.28785E-01
 0.60299999E+02 -0.39700E-01
 0.60350002E+02 -0.62618E-01
 0.60400002E+02 -0.79543E-01
 0.60450001E+02 -0.83245E-01
 0.60500000E+02 -0.58602E-01
 0.60549999E+02 -0.37399E-01
 0.60600002E+02 -0.57529E-02
 0.60650002E+02  0.29617E-01
 0.60700001E+02  0.58740E-01
 0.60750000E+02  0.85408E-01
 0.60799999E+02  0.12248E+00
 0.60850002E+02  0.15999E+00
 0.60900002E+02  0.16774E+00
 0.60950001E+02  0.16432E+00
 0.61000000E+02  0.14340E+00
 0.61049999E+02  0.11848E+00
 0.61100002E+02  0.11269E+00
 0.61150002E+02  0.10535E+00
 0.61200001E+02  0.59768E-01
 0.61250000E+02  0.11426E-01
 0.61299999E+02 -0.41221E-01
 0.61350002E+02 -0.89240E-01
 0.61400002E+02 -0.11074E+00
 0.61450001E+02 -0.11800E+00
 0.61500000E+02 -0.98365E-01
 0.61549999E+02 -0.77867E-01
 0.61600002E+02 -0.57389E-01
 0.61650002E+02 -0.20915E-01
 0.61700001E+02  0.20962E-01
 0.61750000E+02  0.45497E-01
 0.61799999E+02  0.43018E-01
 0.61850002E+02  0.18991E-01
 0.61900002E+02  0.14249E-02
 0.61950001E+02 -0.44759E-02
 0.62000000E+02 -0.10478E-01
 0.62049999E+02 -0.16957E-01
 0.62100002E+02 -0.30682E-01
 0.62150002E+02 -0.33255E-01
 0.62200001E+02 -0.32114E-01
 0.62250000E+02 -0.31374E-01
 0.62299999E+02 -0.34672E-01
 0.62350002E+02 -0.41851E-01
 0.62400002E+02 -0.58861E-01
 0.62450001E+02 -0.89734E-01
 0.62500000E+02 -0.10431E+00
 0.62549999E+02 -0.10395E+00
 0.62600002E+02 -0.99378E-01
 0.62650002E+02 -0.10879E+00
 0.62700001E+02 -0.97133E-01
 0.62750000E+02 -0.71703E-01
 0.62799999E+02 -0.52134E-01
 0.62850002E+02 -0.33884E-01
 0.62900002E+02 -0.20260E-01
 0.62950001E+02  0.68061E-02
 0.63000000E+02  0.32987E-01
 0.63049999E+02  0.75011E-01
 0.63100002E+02  0.12984E+00
 0.63150002E+02  0.18397E+00
 0.63200001E+02  0.23005E+00
 0.63250000E+02  0.24983E+00
 0.63299999E+02  0.26158E+00
 0.63350002E+02  0.25471E+00
 0.63400002E+02  0.21293E+00
 0.63450001E+02  0.15723E+00
 0.63500000E+02  0.97914E-01
 0.63549999E+02  0.33034E-01
 0.63600002E+02 -0.22822E-01
 0.63650002E+02 -0.63205E-01
 0.63700001E+02 -0.10270E+00
 0.63750000E+02 -0.13641E+00
 0.63799999E+02 -0.15740E+00
 0.63850002E+02 -0.15962E+00
 0.63900002E+02 -0.15770E+00
 0.63950001E+02 -0.15285E+00
 0.64000000E+02 -0.12967E+00
 0.64050003E+02 -0.11134E+00
 0.64099998E+02 -0.10221E+00
 0.64150002E+02 -0.87583E-01
 0.64200005E+02 -0.62051E-01
 0.64250000E+02 -0.38011E-01
 0.64300003E+02 -0.21721E-01
 0.64349998E+02 -0.12181E-01
 0.64400002E+02 -0.85498E-02
 0.64450005E+02  0.14901E-01
 0.64500000E+02  0.40216E-01
 0.64550003E+02  0.56439E-01
 0.64599998E+02  0.70853E-01
 0.64650002E+02  0.75438E-01
 0.64700005E+02  0.75267E-01
 0.64750000E+02  0.77600E-01
 0.64800003E+02  0.75055E-01
 0.64849998E+02  0.76314E-01
 0.64900002E+02  0.69289E-01
 0.64950005E+02  0.57154E-01
 0.65000000E+02  0.51681E-01
 0.65050003E+02  0.33906E-01
 0.65099998E+02  0.21050E-01
 0.65150002E+02 -0.19822E-03
 0.65200005E+02 -0.22902E-01
 0.65250000E+02 -0.39528E-01
 0.65300003E+02 -0.52082E-01
 0.65349998E+02 -0.61649E-01
 0.65400002E+02 -0.71717E-01
 0.65450005E+02 -0.81032E-01
 0.65500000E+02 -0.88998E-01
 0.65550003E+02 -0.85762E-01
 0.65599998E+02 -0.61580E-01
 0.65650002E+02 -0.32186E-01
 0.65700005E+02 -0.70744E-02
 0.65750000E+02  0.34443E-01
 0.65800003E+02  0.73584E-01
 0.65849998E+02  0.95117E-01
 0.65900002E+02  0.10407E+00
 0.65950005E+02  0.10083E+00
 0.66000000E+02  0.79323E-01
 0.66050003E+02  0.47960E-01
 0.66099998E+02  0.20767E-01
 0.66150002E+02  0.23766E-02
 0.66200005E+02 -0.71925E-02
 0.66250000E+02 -0.97680E-02
 0.66300003E+02  0.28734E-02
 0.66349998E+02  0.10598E-01
 0.66400002E+02  0.15473E-02
 0.66450005E+02 -0.93087E-02
 0.66500000E+02 -0.22476E-01
 0.66550003E+02 -0.39644E-01
 0.66599998E+02 -0.52832E-01
 0.66650002E+02 -0.59715E-01
 0.66700005E+02 -0.64422E-01
 0.66750000E+02 -0.55591E-01
 0.66800003E+02 -0.33615E-01
 0.66849998E+02 -0.74529E-02
 0.66900002E+02  0.85905E-02
 0.66950005E+02  0.11173E-01
 0.67000000E+02  0.60901E-02
 0.67050003E+02 -0.18463E-02
 0.67099998E+02 -0.10249E-01
 0.67150002E+02 -0.24894E-01
 0.67200005E+02 -0.25264E-01
 0.67250000E+02 -0.17567E-01
 0.67300003E+02 -0.55657E-02
 0.67349998E+02  0.45992E-02
 0.67400002E+02  0.12715E-01
 0.67450005E+02  0.25992E-01
 0.67500000E+02  0.26665E-01
 0.67550003E+02  0.22371E-01
 0.67599998E+02  0.18875E-01
 0.67650002E+02  0.20364E-01
 0.67700005E+02  0.24541E-01
 0.67750000E+02  0.21361E-01
 0.67800003E+02  0.20227E-01
 0.67849998E+02  0.28065E-01
 0.67900002E+02  0.37625E-01
 0.67950005E+02  0.43363E-01
 0.68000000E+02  0.46866E-01
 0.68050003E+02  0.44080E-01
 0.68099998E+02  0.40282E-01
 0.68150002E+02  0.38806E-01
 0.68200005E+02  0.41283E-01
 0.68250000E+02  0.51786E-01
 0.68300003E+02  0.54870E-01
 0.68349998E+02  0.53741E-01
 0.68400002E+02  0.50371E-01
 0.68450005E+02  0.33017E-01
 0.68500000E+02  0.70228E-02
 0.68550003E+02 -0.21929E-01
 0.68599998E+02 -0.51287E-01
 0.68650002E+02 -0.77504E-01
 0.68700005E+02 -0.10245E+00
 0.68750000E+02 -0.11200E+00
 0.68800003E+02 -0.12010E+00
 0.68849998E+02 -0.11792E+00
 0.68900002E+02 -0.99443E-01
 0.68950005E+02 -0.76230E-01
 0.69000000E+02 -0.58399E-01
 0.69050003E+02 -0.45524E-01
 0.69099998E+02 -0.24826E-01
 0.69150002E+02 -0.18519E-01
 0.69200005E+02 -0.14141E-01
 0.69250000E+02 -0.21095E-01
 0.69300003E+02 -0.29102E-01
 0.69349998E+02 -0.36933E-01
 0.69400002E+02 -0.39603E-01
 0.69450005E+02 -0.26486E-01
 0.69500000E+02 -0.13206E-01
 0.69550003E+02  0.18277E-01
 0.69599998E+02  0.58878E-01
 0.69650002E+02  0.94722E-01
 0.69700005E+02  0.11820E+00
 0.69750000E+02  0.12697E+00
 0.69800003E+02  0.12625E+00
 0.69849998E+02  0.11730E+00
 0.69900002E+02  0.10051E+00
 0.69950005E+02  0.82301E-01
 0.70000000E+02  0.65984E-01
 0.70050003E+02  0.44483E-01
 0.70099998E+02  0.23774E-01
 0.70150002E+02  0.39685E-02
 0.70200005E+02 -0.15474E-01
 0.70250000E+02 -0.27398E-01
 0.70300003E+02 -0.46686E-01
 0.70349998E+02 -0.65665E-01
 0.70400002E+02 -0.84614E-01
 0.70450005E+02 -0.97403E-01
 0.70500000E+02 -0.96553E-01
 0.70550003E+02 -0.89692E-01
 0.70599998E+02 -0.68112E-01
 0.70650002E+02 -0.42665E-01
 0.70700005E+02 -0.19653E-01
 0.70750000E+02 -0.14706E-03
 0.70800003E+02  0.19022E-01
 0.70849998E+02  0.32192E-01
 0.70900002E+02  0.29733E-01
 0.70950005E+02  0.87145E-02
 0.71000000E+02 -0.14234E-01
 0.71050003E+02 -0.26875E-01
 0.71099998E+02 -0.35420E-01
 0.71150002E+02 -0.32451E-01
 0.71200005E+02 -0.23410E-01
 0.71250000E+02 -0.56758E-02
 0.71300003E+02  0.16966E-01
 0.71349998E+02  0.30045E-01
 0.71400002E+02  0.42169E-01
 0.71450005E+02  0.52914E-01
 0.71500000E+02  0.52886E-01
 0.71550003E+02  0.48063E-01
 0.71599998E+02  0.43989E-01
 0.71650002E+02  0.34682E-01
 0.71700005E+02  0.25559E-01
 0.71750000E+02  0.97314E-02
 0.71800003E+02 -0.11560E-01
 0.71849998E+02 -0.33052E-01
 0.71900002E+02 -0.47940E-01
 0.71950005E+02 -0.55337E-01
 0.72000000E+02 -0.54336E-01
 0.72050003E+02 -0.39821E-01
 0.72099998E+02 -0.19423E-01
 0.72150002E+02  0.71095E-02
 0.72200005E+02  0.29484E-01
 0.72250000E+02  0.51359E-01
 0.72300003E+02  0.61604E-01
 0.72349998E+02  0.57849E-01
 0.72400002E+02  0.47910E-01
 0.72450005E+02  0.36337E-01
 0.72500000E+02  0.27260E-01
 0.72550003E+02  0.18679E-01
 0.72599998E+02  0.51541E-02
 0.72650002E+02 -0.11470E-01
 0.72700005E+02 -0.21580E-01
 0.72750000E+02 -0.28666E-01
 0.72800003E+02 -0.31717E-01
 0.72849998E+02 -0.34074E-01
 0.72900002E+02 -0.38647E-01
 0.72950005E+02 -0.44352E-01
 0.73000000E+02 -0.49442E-01
 0.73050003E+02 -0.47169E-01
 0.73099998E+02 -0.46730E-01
 0.73150002E+02 -0.52587E-01
 0.73200005E+02 -0.53531E-01
 0.73250000E+02 -0.48390E-01
 0.73300003E+02 -0.33025E-01
 0.73349998E+02 -0.19965E-01
 0.73400002E+02 -0.10750E-01
 0.73450005E+02  0.20423E-02
 0.73500000E+02  0.18294E-01
 0.73550003E+02  0.28247E-01
 0.73599998E+02  0.35771E-01
 0.73650002E+02  0.47294E-01
 0.73700005E+02  0.50087E-01
 0.73750000E+02  0.52374E-01
 0.73800003E+02  0.63320E-01
 0.73849998E+02  0.87894E-01
 0.73900002E+02  0.98780E-01
 0.73950005E+02  0.97080E-01
 0.74000000E+02  0.98893E-01
 0.74050003E+02  0.92180E-01
 0.74099998E+02  0.75705E-01
 0.74150002E+02  0.49205E-01
 0.74200005E+02  0.17345E-01
 0.74250000E+02 -0.20775E-01
 0.74300003E+02 -0.47233E-01
 0.74349998E+02 -0.60077E-01
 0.74400002E+02 -0.63329E-01
 0.74450005E+02 -0.52782E-01
 0.74500000E+02 -0.39683E-01
 0.74550003E+02 -0.30200E-01
 0.74599998E+02 -0.22893E-01
 0.74650002E+02 -0.28344E-01
 0.74700005E+02 -0.45839E-01
 0.74750000E+02 -0.56000E-01
 0.74800003E+02 -0.60654E-01
 0.74849998E+02 -0.69425E-01
 0.74900002E+02 -0.69316E-01
 0.74950005E+02 -0.58407E-01
 0.75000000E+02 -0.51567E-01
 0.75050003E+02 -0.47864E-01
 0.75099998E+02 -0.38071E-01
 0.75150002E+02 -0.21785E-01
 0.75200005E+02 -0.11090E-01
 0.75250000E+02  0.23754E-02
 0.75300003E+02  0.17665E-01
 0.75349998E+02  0.27693E-01
 0.75400002E+02  0.38676E-01
 0.75450005E+02  0.50902E-01
 0.75500000E+02  0.60001E-01
 0.75550003E+02  0.66299E-01
 0.75599998E+02  0.66227E-01
 0.75650002E+02  0.57579E-01
 0.75700005E+02  0.49382E-01
 0.75750000E+02  0.45897E-01
 0.75800003E+02  0.39467E-01
 0.75849998E+02  0.26215E-01
 0.75900002E+02  0.18289E-01
 0.75950005E+02  0.16778E-01
 0.76000000E+02  0.14815E-01
 0.76050003E+02  0.16871E-01
 0.76099998E+02  0.20777E-01
 0.76150002E+02  0.17595E-01
 0.76200005E+02  0.68380E-02
 0.76250000E+02 -0.56354E-02
 0.76300003E+02 -0.24528E-01
 0.76349998E+02 -0.46752E-01
 0.76400002E+02 -0.64257E-01
 0.76450005E+02 -0.71246E-01
 0.76500000E+02 -0.66376E-01
 0.76550003E+02 -0.53595E-01
 0.76599998E+02 -0.39438E-01
 0.76650002E+02 -0.26374E-01
 0.76700005E+02 -0.99661E-02
 0.76750000E+02  0.13938E-02
 0.76800003E+02  0.82612E-02
 0.76849998E+02  0.89331E-02
 0.76900002E+02  0.90702E-02
 0.76950005E+02  0.81695E-02
 0.77000000E+02  0.81182E-02
 0.77050003E+02  0.15549E-01
 0.77099998E+02  0.21110E-01
 0.77150002E+02  0.17812E-01
 0.77200005E+02  0.78225E-02
 0.77250000E+02 -0.83955E-02
 0.77300003E+02 -0.24943E-01
 0.77349998E+02 -0.36539E-01
 0.77400002E+02 -0.41346E-01
 0.77450005E+02 -0.36468E-01
 0.77500000E+02 -0.25736E-01
 0.77550003E+02 -0.83840E-02
 0.77599998E+02  0.59365E-02
 0.77650002E+02  0.24292E-01
 0.77700005E+02  0.42986E-01
 0.77750000E+02  0.52473E-01
 0.77800003E+02  0.49691E-01
 0.77849998E+02  0.37156E-01
 0.77900002E+02  0.27443E-01
 0.77950005E+02  0.21139E-01
 0.78000000E+02  0.18842E-01
 0.78050003E+02  0.10518E-01
 0.78099998E+02 -0.99039E-04
 0.78150002E+02  0.10612E-02
 0.78200005E+02  0.46075E-02
 0.78250000E+02  0.79578E-02
 0.78300003E+02  0.12366E-01
 0.78349998E+02  0.91346E-02
 0.78400002E+02  0.64428E-02
 0.78450005E+02  0.57376E-02
 0.78500000E+02 -0.18265E-02
 0.78550003E+02 -0.15275E-01
 0.78599998E+02 -0.24087E-01
 0.78650002E+02 -0.28071E-01
 0.78700005E+02 -0.34420E-01
 0.78750000E+02 -0.40450E-01
 0.78800003E+02 -0.42622E-01
 0.78849998E+02 -0.42545E-01
 0.78900002E+02 -0.43092E-01
 0.78950005E+02 -0.38322E-01
 0.79000000E+02 -0.31786E-01
 0.79050003E+02 -0.19366E-01
 0.79099998E+02  0.43731E-04
 0.79150002E+02  0.10676E-01
 0.79200005E+02  0.11264E-01
 0.79250000E+02  0.12880E-01
 0.79300003E+02  0.15947E-01
 0.79349998E+02  0.12123E-01
 0.79400002E+02  0.97812E-02
 0.79450005E+02  0.82346E-02
 0.79500000E+02  0.59487E-02
 0.79550003E+02  0.12058E-01
 0.79599998E+02  0.25659E-01
 0.79650002E+02  0.38119E-01
 0.79700005E+02  0.48274E-01
 0.79750000E+02  0.55169E-01
 0.79800003E+02  0.57347E-01
 0.79849998E+02  0.59863E-01
 0.79900002E+02  0.55756E-01
 0.79950005E+02  0.42695E-01
 0.80000000E+02  0.28332E-01
 0.80050003E+02  0.17654E-01
 0.80099998E+02  0.57183E-02
 0.80150002E+02 -0.10111E-01
 0.80200005E+02 -0.19582E-01
 0.80250000E+02 -0.28115E-01
 0.80300003E+02 -0.38301E-01
 0.80349998E+02 -0.44040E-01
 0.80400002E+02 -0.46221E-01
 0.80450005E+02 -0.40217E-01
 0.80500000E+02 -0.36227E-01
 0.80550003E+02 -0.36952E-01
 0.80599998E+02 -0.37161E-01
 0.80650002E+02 -0.34063E-01
 0.80700005E+02 -0.27149E-01
 0.80750000E+02 -0.26644E-01
 0.80800003E+02 -0.30117E-01
 0.80849998E+02 -0.37946E-01
 0.80900002E+02 -0.42289E-01
 0.80950005E+02 -0.36099E-01
 0.81000000E+02 -0.26041E-01
 0.81050003E+02 -0.49984E-02
 0.81099998E+02  0.17772E-01
 0.81150002E+02  0.38272E-01
 0.81200005E+02  0.53632E-01
 0.81250000E+02  0.57265E-01
 0.81300003E+02  0.61003E-01
 0.81349998E+02  0.60109E-01
 0.81400002E+02  0.54021E-01
 0.81450005E+02  0.45768E-01
 0.81500000E+02  0.34866E-01
 0.81550003E+02  0.18685E-01
 0.81599998E+02  0.47559E-02
 0.81650002E+02 -0.15105E-02
 0.81700005E+02 -0.96160E-02
 0.81750000E+02 -0.15603E-01
 0.81800003E+02 -0.16773E-01
 0.81849998E+02 -0.13610E-01
 0.81900002E+02 -0.63902E-02
 0.81950005E+02 -0.35652E-03
 0.82000000E+02  0.46160E-02
 0.82050003E+02  0.10385E-01
 0.82099998E+02  0.11096E-01
 0.82150002E+02  0.50283E-02
 0.82200005E+02 -0.12637E-03
 0.82250000E+02 -0.54175E-02
 0.82300003E+02 -0.12910E-01
 0.82349998E+02 -0.22467E-01
 0.82400002E+02 -0.27612E-01
 0.82450005E+02 -0.24987E-01
 0.82500000E+02 -0.17767E-01
 0.82550003E+02 -0.68774E-02
 0.82599998E+02  0.58150E-02
 0.82650002E+02  0.15495E-01
 0.82700005E+02  0.20942E-01
 0.82750000E+02  0.26736E-01
 0.82800003E+02  0.28783E-01
 0.82849998E+02  0.27987E-01
 0.82900002E+02  0.17881E-01
 0.82950005E+02  0.82065E-03
 0.83000000E+02 -0.17519E-01
 0.83050003E+02 -0.34353E-01
 0.83099998E+02 -0.47983E-01
 0.83150002E+02 -0.58400E-01
 0.83200005E+02 -0.64341E-01
 0.83250000E+02 -0.67923E-01
 0.83300003E+02 -0.58474E-01
 0.83349998E+02 -0.38081E-01
 0.83400002E+02 -0.12618E-01
 0.83450005E+02  0.17312E-01
 0.83500000E+02  0.40871E-01
 0.83550003E+02  0.56495E-01
 0.83599998E+02  0.62728E-01
 0.83650002E+02  0.55905E-01
 0.83700005E+02  0.39985E-01
 0.83750000E+02  0.21602E-01
 0.83800003E+02  0.29857E-02
 0.83849998E+02 -0.11502E-01
 0.83900002E+02 -0.18054E-01
 0.83950005E+02 -0.24117E-01
 0.84000000E+02 -0.24627E-01
 0.84050003E+02 -0.19476E-01
 0.84099998E+02 -0.10543E-01
 0.84150002E+02 -0.33766E-02
 0.84200005E+02 -0.23661E-02
 0.84250000E+02 -0.38729E-02
 0.84300003E+02 -0.63650E-02
 0.84349998E+02 -0.63996E-02
 0.84400002E+02 -0.13159E-03
 0.84450005E+02  0.13255E-01
 0.84500000E+02  0.24990E-01
 0.84550003E+02  0.29492E-01
 0.84599998E+02  0.27552E-01
 0.84650002E+02  0.22181E-01
 0.84700005E+02  0.15029E-01
 0.84750000E+02  0.11641E-01
 0.84800003E+02  0.10560E-01
 0.84849998E+02  0.78914E-02
 0.84900002E+02  0.50800E-02
 0.84950005E+02  0.24380E-02
 0.85000000E+02 -0.44268E-02
 0.85050003E+02 -0.12565E-01
 0.85099998E+02 -0.16549E-01
 0.85150002E+02 -0.17098E-01
 0.85200005E+02 -0.17752E-01
 0.85250000E+02 -0.18952E-01
 0.85300003E+02 -0.20684E-01
 0.85349998E+02 -0.22856E-01
 0.85400002E+02 -0.22941E-01
 0.85450005E+02 -0.24456E-01
 0.85500000E+02 -0.21711E-01
 0.85550003E+02 -0.16529E-01
 0.85599998E+02 -0.15657E-01
 0.85650002E+02 -0.16789E-01
 0.85700005E+02 -0.16214E-01
 0.85750000E+02 -0.11748E-01
 0.85800003E+02 -0.38658E-02
 0.85849998E+02  0.82298E-02
 0.85900002E+02  0.19079E-01
 0.85950005E+02  0.28856E-01
 0.86000000E+02  0.40439E-01
 0.86050003E+02  0.44177E-01
 0.86099998E+02  0.41586E-01
 0.86150002E+02  0.33287E-01
 0.86200005E+02  0.22170E-01
 0.86250000E+02  0.10006E-01
 0.86300003E+02 -0.15599E-02
 0.86349998E+02 -0.10108E-01
 0.86400002E+02 -0.16655E-01
 0.86450005E+02 -0.20547E-01
 0.86500000E+02 -0.17957E-01
 0.86550003E+02 -0.78238E-02
 0.86599998E+02  0.18252E-02
 0.86650002E+02  0.13153E-01
 0.86700005E+02  0.19636E-01
 0.86750000E+02  0.25209E-01
 0.86800003E+02  0.29075E-01
 0.86849998E+02  0.26916E-01
 0.86900002E+02  0.25360E-01
 0.86950005E+02  0.18754E-01
 0.87000000E+02  0.64252E-02
 0.87050003E+02 -0.11501E-01
 0.87099998E+02 -0.33067E-01
 0.87150002E+02 -0.49077E-01
 0.87200005E+02 -0.62580E-01
 0.87250000E+02 -0.67673E-01
 0.87300003E+02 -0.58740E-01
 0.87349998E+02 -0.43145E-01
 0.87400002E+02 -0.21618E-01
 0.87450005E+02  0.16572E-02
 0.87500000E+02  0.22319E-01
 0.87550003E+02  0.36343E-01
 0.87599998E+02  0.43214E-01
 0.87650002E+02  0.45527E-01
 0.87700005E+02  0.43431E-01
 0.87750000E+02  0.36787E-01
 0.87800003E+02  0.26613E-01
 0.87849998E+02  0.17916E-01
 0.87900002E+02  0.14361E-01
 0.87950005E+02  0.16589E-01
 0.88000000E+02  0.19941E-01
 0.88050003E+02  0.21478E-01
 0.88099998E+02  0.21775E-01
 0.88150002E+02  0.24854E-01
 0.88200005E+02  0.29381E-01
 0.88250000E+02  0.30455E-01
 0.88300003E+02  0.29342E-01
 0.88349998E+02  0.21959E-01
 0.88400002E+02  0.75370E-02
 0.88450005E+02 -0.99205E-02
 0.88500000E+02 -0.24232E-01
 0.88550003E+02 -0.36196E-01
 0.88599998E+02 -0.45687E-01
 0.88650002E+02 -0.49688E-01
 0.88700005E+02 -0.50359E-01
 0.88750000E+02 -0.49421E-01
 0.88800003E+02 -0.41168E-01
 0.88849998E+02 -0.27509E-01
 0.88900002E+02 -0.14662E-01
 0.88950005E+02 -0.28149E-02
 0.89000000E+02  0.48639E-02
 0.89050003E+02  0.70435E-02
 0.89099998E+02  0.26691E-02
 0.89150002E+02 -0.50066E-02
 0.89200005E+02 -0.13049E-01
 0.89250000E+02 -0.20646E-01
 0.89300003E+02 -0.26323E-01
 0.89349998E+02 -0.28073E-01
 0.89400002E+02 -0.25240E-01
 0.89450005E+02 -0.14651E-01
 0.89500000E+02 -0.18391E-02
 0.89550003E+02  0.10111E-01
 0.89599998E+02  0.21277E-01
 0.89650002E+02  0.26569E-01
 0.89700005E+02  0.29016E-01
 0.89750000E+02  0.30722E-01
 0.89800003E+02  0.29169E-01
 0.89849998E+02  0.26458E-01
 0.89900002E+02  0.26162E-01
 0.89950005E+02  0.24703E-01
 0.90000000E+02  0.25686E-01
 0.90050003E+02  0.24286E-01
 0.90099998E+02  0.19239E-01
 0.90150002E+02  0.15912E-01
 0.90200005E+02  0.10900E-01
 0.90250000E+02  0.65534E-02
 0.90300003E+02  0.56034E-02
 0.90349998E+02  0.30476E-02
 0.90400002E+02 -0.44490E-02
 0.90450005E+02 -0.84610E-02
 0.90500000E+02 -0.82550E-02
 0.90550003E+02 -0.80720E-02
 0.90599998E+02 -0.12165E-01
 0.90650002E+02 -0.15973E-01
 0.90700005E+02 -0.13237E-01
 0.90750000E+02 -0.10650E-01
 0.90800003E+02 -0.13057E-01
 0.90849998E+02 -0.18494E-01
 0.90900002E+02 -0.23637E-01
 0.90950005E+02 -0.23569E-01
 0.91000000E+02 -0.16400E-01
 0.91050003E+02 -0.87943E-02
 0.91099998E+02 -0.41982E-02
 0.91150002E+02 -0.55379E-03
 0.91200005E+02  0.57312E-02
 0.91250000E+02  0.10973E-01
 0.91300003E+02  0.14168E-01
 0.91349998E+02  0.12134E-01
 0.91400002E+02  0.62046E-02
 0.91450005E+02  0.10295E-02
 0.91500000E+02 -0.83042E-02
 0.91550003E+02 -0.17109E-01
 0.91599998E+02 -0.19259E-01
 0.91650002E+02 -0.16119E-01
 0.91700005E+02 -0.15004E-01
 0.91750000E+02 -0.14139E-01
 0.91800003E+02 -0.83866E-02
 0.91849998E+02  0.17914E-03
 0.91900002E+02  0.88699E-02
 0.91950005E+02  0.19537E-01
 0.92000000E+02  0.30781E-01
 0.92050003E+02  0.37160E-01
 0.92099998E+02  0.38641E-01
 0.92150002E+02  0.37474E-01
 0.92200005E+02  0.35729E-01
 0.92250000E+02  0.33724E-01
 0.92300003E+02  0.30389E-01
 0.92349998E+02  0.23297E-01
 0.92400002E+02  0.14138E-01
 0.92450005E+02  0.53418E-02
 0.92500000E+02 -0.43083E-02
 0.92550003E+02 -0.13426E-01
 0.92599998E+02 -0.15769E-01
 0.92650002E+02 -0.12880E-01
 0.92700005E+02 -0.98745E-02
 0.92750000E+02 -0.70902E-02
 0.92800003E+02 -0.33615E-02
 0.92849998E+02  0.22961E-02
 0.92900002E+02  0.94892E-02
 0.92950005E+02  0.13692E-01
 0.93000000E+02  0.13252E-01
 0.93050003E+02  0.58049E-02
 0.93099998E+02 -0.79355E-02
 0.93150002E+02 -0.20432E-01
 0.93200005E+02 -0.30589E-01
 0.93250000E+02 -0.39255E-01
 0.93300003E+02 -0.42643E-01
 0.93349998E+02 -0.40498E-01
 0.93400002E+02 -0.34867E-01
 0.93450005E+02 -0.24998E-01
 0.93500000E+02 -0.16414E-01
 0.93550003E+02 -0.78324E-02
 0.93599998E+02 -0.14444E-02
 0.93650002E+02  0.20788E-02
 0.93700005E+02  0.58555E-02
 0.93750000E+02  0.77080E-02
 0.93800003E+02  0.86304E-02
 0.93849998E+02  0.80677E-02
 0.93900002E+02  0.58461E-02
 0.93950005E+02  0.48164E-02
 0.94000000E+02  0.55615E-02
 0.94050003E+02  0.48567E-02
 0.94099998E+02  0.17001E-02
 0.94150002E+02 -0.35808E-02
 0.94200005E+02 -0.12222E-01
 0.94250000E+02 -0.20220E-01
 0.94300003E+02 -0.22258E-01
 0.94349998E+02 -0.22390E-01
 0.94400002E+02 -0.18079E-01
 0.94450005E+02 -0.13437E-01
 0.94500000E+02 -0.11047E-01
 0.94550003E+02 -0.66683E-02
 0.94599998E+02 -0.18117E-02
 0.94650002E+02  0.21921E-02
 0.94700005E+02  0.41431E-02
 0.94750000E+02  0.78074E-02
 0.94800003E+02  0.95301E-02
 0.94849998E+02  0.90031E-02
 0.94900002E+02  0.83562E-02
 0.94950005E+02  0.91751E-02
 0.95000000E+02  0.10813E-01
 0.95050003E+02  0.11823E-01
 0.95099998E+02  0.13720E-01
 0.95150002E+02  0.16503E-01
 0.95200005E+02  0.19080E-01
 0.95250000E+02  0.19419E-01
 0.95300003E+02  0.18760E-01
 0.95349998E+02  0.16230E-01
 0.95400002E+02  0.11439E-01
 0.95450005E+02  0.58476E-02
 0.95500000E+02  0.69804E-03
 0.95550003E+02 -0.76623E-02
 0.95599998E+02 -0.14574E-01
 0.95650002E+02 -0.14546E-01
 0.95700005E+02 -0.88896E-02
 0.95750000E+02 -0.46958E-03
 0.95800003E+02  0.50294E-02
 0.95849998E+02  0.59933E-02
 0.95900002E+02  0.29217E-02
 0.95950005E+02 -0.17500E-02
 0.96000000E+02 -0.94710E-02
 0.96050003E+02 -0.17133E-01
 0.96099998E+02 -0.19748E-01
 0.96150002E+02 -0.17966E-01
 0.96200005E+02 -0.15495E-01
 0.96250000E+02 -0.12461E-01
 0.96300003E+02 -0.89829E-02
 0.96349998E+02 -0.68727E-02
 0.96400002E+02 -0.48405E-02
 0.96450005E+02 -0.47465E-02
 0.96500000E+02 -0.51452E-02
 0.96550003E+02 -0.57304E-02
 0.96599998E+02 -0.69981E-02
 0.96650002E+02 -0.54107E-02
 0.96700005E+02 -0.18123E-02
 0.96750000E+02  0.15551E-02
 0.96800003E+02  0.81478E-02
 0.96849998E+02  0.13132E-01
 0.96900002E+02  0.15735E-01
 0.96950005E+02  0.18051E-01
 0.97000000E+02  0.18704E-01
 0.97050003E+02  0.19290E-01
 0.97099998E+02  0.19186E-01
 0.97150002E+02  0.20337E-01
 0.97200005E+02  0.22508E-01
 0.97250000E+02  0.24888E-01
 0.97300003E+02  0.25054E-01
 0.97349998E+02  0.19778E-01
 0.97400002E+02  0.10183E-01
 0.97450005E+02  0.12674E-02
 0.97500000E+02 -0.71929E-02
 0.97550003E+02 -0.12654E-01
 0.97599998E+02 -0.15575E-01
 0.97650002E+02 -0.18884E-01
 0.97700005E+02 -0.19195E-01
 0.97750000E+02 -0.19401E-01
 0.97800003E+02 -0.21824E-01
 0.97849998E+02 -0.26436E-01
 0.97900002E+02 -0.30922E-01
 0.97950005E+02 -0.36486E-01
 0.98000000E+02 -0.40921E-01
 0.98050003E+02 -0.42823E-01
 0.98099998E+02 -0.38536E-01
 0.98150002E+02 -0.25135E-01
 0.98200005E+02 -0.87506E-02
 0.98250000E+02  0.70490E-02
 0.98300003E+02  0.17296E-01
 0.98349998E+02  0.24819E-01
 0.98400002E+02  0.30185E-01
 0.98450005E+02  0.36660E-01
 0.98500000E+02  0.41872E-01
 0.98550003E+02  0.42060E-01
 0.98599998E+02  0.42274E-01
 0.98650002E+02  0.42559E-01
 0.98700005E+02  0.43742E-01
 0.98750000E+02  0.44869E-01
 0.98800003E+02  0.44130E-01
 0.98849998E+02  0.37759E-01
 0.98900002E+02  0.29503E-01
 0.98950005E+02  0.19914E-01
 0.99000000E+02  0.11229E-01
 0.99050003E+02  0.70152E-02
 0.99099998E+02  0.15640E-02
 0.99150002E+02 -0.51473E-02
 0.99200005E+02 -0.11461E-01
 0.99250000E+02 -0.11783E-01
 0.99300003E+02 -0.73911E-02
 0.99349998E+02 -0.31781E-02
 0.99400002E+02  0.53636E-03
 0.99450005E+02  0.80336E-03
 0.99500000E+02 -0.16254E-02
 0.99550003E+02 -0.53967E-02
 0.99599998E+02 -0.99957E-02
 0.99650002E+02 -0.16359E-01
 0.99700005E+02 -0.21640E-01
 0.99750000E+02 -0.24943E-01
 0.99800003E+02 -0.28812E-01
 0.99849998E+02 -0.31204E-01
 0.99900002E+02 -0.30561E-01
 0.99950005E+02 -0.29745E-01
 0.10000000E+03 -0.30590E-01
 0.10005000E+03 -0.32866E-01
 0.10010000E+03 -0.37072E-01
 0.10015000E+03 -0.39329E-01
 0.10020000E+03 -0.39115E-01
 0.10025000E+03 -0.39099E-01
 0.10030000E+03 -0.36079E-01
 0.10035000E+03 -0.27411E-01
 0.10040000E+03 -0.18561E-01
 0.10045000E+03 -0.86352E-02
 0.10050000E+03  0.48230E-02
 0.10055000E+03  0.18242E-01
 0.10060000E+03  0.29135E-01
 0.10065000E+03  0.37638E-01
 0.10070000E+03  0.44131E-01
 0.10075000E+03  0.47521E-01
 0.10080000E+03  0.49456E-01
 0.10085000E+03  0.48219E-01
 0.10090000E+03  0.43300E-01
 0.10095000E+03  0.37575E-01
 0.10100000E+03  0.31419E-01
 0.10105000E+03  0.24634E-01
 0.10110000E+03  0.19966E-01
 0.10115000E+03  0.15773E-01
 0.10120000E+03  0.12449E-01
 0.10125000E+03  0.10154E-01
 0.10130000E+03  0.48087E-02
 0.10135000E+03 -0.15044E-02
 0.10140000E+03 -0.87815E-02
 0.10145000E+03 -0.14089E-01
 0.10150000E+03 -0.16244E-01
 0.10155000E+03 -0.18925E-01
 0.10160000E+03 -0.20996E-01
 0.10165000E+03 -0.21463E-01
 0.10170000E+03 -0.21526E-01
 0.10175000E+03 -0.21716E-01
 0.10180000E+03 -0.21520E-01
 0.10185000E+03 -0.19574E-01
 0.10190000E+03 -0.15359E-01
 0.10195000E+03 -0.11720E-01
 0.10200000E+03 -0.95220E-02
 0.10205000E+03 -0.72198E-02
 0.10210000E+03 -0.37850E-02
 0.10215000E+03  0.17530E-02
 0.10220000E+03  0.71656E-02
 0.10225000E+03  0.11205E-01
 0.10230000E+03  0.15929E-01
 0.10235000E+03  0.19870E-01
 0.10240000E+03  0.23130E-01
 0.10245000E+03  0.26389E-01
 0.10250000E+03  0.28373E-01
 0.10255000E+03  0.29253E-01
 0.10260000E+03  0.27557E-01
 0.10265000E+03  0.24489E-01
 0.10270000E+03  0.19692E-01
 0.10275000E+03  0.14374E-01
 0.10280000E+03  0.93836E-02
 0.10285000E+03  0.14300E-02
 0.10290000E+03 -0.81996E-02
 0.10295000E+03 -0.18455E-01
 0.10300000E+03 -0.28484E-01
 0.10305000E+03 -0.36514E-01
 0.10310000E+03 -0.41762E-01
 0.10315000E+03 -0.43769E-01
 0.10320000E+03 -0.44239E-01
 0.10325000E+03 -0.40954E-01
 0.10330000E+03 -0.33382E-01
 0.10335000E+03 -0.24702E-01
 0.10340000E+03 -0.14785E-01
 0.10345000E+03 -0.46980E-02
 0.10350000E+03  0.25926E-02
 0.10355000E+03  0.46169E-02
 0.10360000E+03  0.49939E-02
 0.10365000E+03  0.57974E-02
 0.10370000E+03  0.54000E-02
 0.10375000E+03  0.53557E-02
 0.10380000E+03  0.46755E-02
 0.10385000E+03  0.37539E-02
 0.10390000E+03  0.65164E-02
 0.10395000E+03  0.13006E-01
 0.10400000E+03  0.18163E-01
 0.10405000E+03  0.19265E-01
 0.10410000E+03  0.19115E-01
 0.10415000E+03  0.17934E-01
 0.10420000E+03  0.15304E-01
 0.10425000E+03  0.12943E-01
 0.10430000E+03  0.11171E-01
 0.10435000E+03  0.10251E-01
 0.10440000E+03  0.98369E-02
 0.10445000E+03  0.96970E-02
 0.10450000E+03  0.97060E-02
 0.10455000E+03  0.88583E-02
 0.10460000E+03  0.67875E-02
 0.10465000E+03  0.49716E-02
 0.10470000E+03  0.40415E-02
 0.10475000E+03  0.56130E-02
 0.10480000E+03  0.10017E-01
 0.10485000E+03  0.14527E-01
 0.10490000E+03  0.16114E-01
 0.10495000E+03  0.14277E-01
 0.10500000E+03  0.11210E-01
 0.10505000E+03  0.60245E-02
 0.10510000E+03  0.24212E-03
 0.10515000E+03 -0.67176E-02
 0.10520000E+03 -0.15096E-01
 0.10525000E+03 -0.21404E-01
 0.10530000E+03 -0.23850E-01
 0.10535000E+03 -0.22537E-01
 0.10540000E+03 -0.17772E-01
 0.10545000E+03 -0.11105E-01
 0.10550000E+03 -0.51849E-02
 0.10555000E+03 -0.48950E-03
 0.10560000E+03  0.38256E-02
 0.10565000E+03  0.79658E-02
 0.10570000E+03  0.92060E-02
 0.10575000E+03  0.52648E-02
 0.10580000E+03 -0.16900E-02
 0.10585000E+03 -0.74810E-02
 0.10590000E+03 -0.96455E-02
 0.10595000E+03 -0.88969E-02
 0.10600000E+03 -0.51478E-02
 0.10605000E+03  0.36415E-03
 0.10610000E+03  0.39041E-02
 0.10615000E+03  0.55177E-02
 0.10620000E+03  0.70813E-02
 0.10625000E+03  0.87342E-02
 0.10630000E+03  0.69485E-02
 0.10635000E+03  0.11257E-02
 0.10640000E+03 -0.58641E-02
 0.10645000E+03 -0.12237E-01
 0.10650000E+03 -0.17856E-01
 0.10655000E+03 -0.22244E-01
 0.10660000E+03 -0.27350E-01
 0.10665000E+03 -0.32870E-01
 0.10670000E+03 -0.35784E-01
 0.10675000E+03 -0.34230E-01
 0.10680000E+03 -0.30908E-01
 0.10685000E+03 -0.27980E-01
 0.10690000E+03 -0.24350E-01
 0.10695000E+03 -0.20201E-01
 0.10700000E+03 -0.13275E-01
 0.10705000E+03 -0.51829E-02
 0.10710000E+03  0.21543E-02
 0.10715000E+03  0.77628E-02
 0.10720000E+03  0.11562E-01
 0.10725000E+03  0.14402E-01
 0.10730000E+03  0.17570E-01
 0.10735000E+03  0.21433E-01
 0.10740000E+03  0.23714E-01
 0.10745000E+03  0.23601E-01
 0.10750000E+03  0.22418E-01
 0.10755000E+03  0.21951E-01
 0.10760000E+03  0.23182E-01
 0.10765000E+03  0.25961E-01
 0.10770000E+03  0.27550E-01
 0.10775000E+03  0.26435E-01
 0.10780000E+03  0.24365E-01
 0.10785000E+03  0.22927E-01
 0.10790000E+03  0.21759E-01
 0.10795000E+03  0.20863E-01
 0.10800000E+03  0.19070E-01
 0.10805000E+03  0.15269E-01
 0.10810000E+03  0.10788E-01
 0.10815000E+03  0.60954E-02
 0.10820000E+03  0.13258E-02
 0.10825000E+03 -0.36252E-02
 0.10830000E+03 -0.79359E-02
 0.10835000E+03 -0.97974E-02
 0.10840000E+03 -0.10882E-01
 0.10845000E+03 -0.10467E-01
 0.10850000E+03 -0.80641E-02
 0.10855000E+03 -0.66468E-02
 0.10860000E+03 -0.57450E-02
 0.10865000E+03 -0.47635E-02
 0.10870000E+03 -0.36023E-02
 0.10875000E+03 -0.46530E-02
 0.10880000E+03 -0.80125E-02
 0.10885000E+03 -0.12987E-01
 0.10890000E+03 -0.18627E-01
 0.10895000E+03 -0.21551E-01
 0.10900000E+03 -0.22167E-01
 0.10905000E+03 -0.20236E-01
 0.10910000E+03 -0.16990E-01
 0.10915000E+03 -0.14645E-01
 0.10920000E+03 -0.11499E-01
 0.10925000E+03 -0.76849E-02
 0.10930000E+03 -0.35496E-02
 0.10935000E+03  0.51696E-03
 0.10940000E+03  0.54928E-02
 0.10945000E+03  0.94810E-02
 0.10950000E+03  0.10154E-01
 0.10955000E+03  0.95051E-02
 0.10960000E+03  0.66415E-02
 0.10965000E+03  0.27490E-02
 0.10970000E+03 -0.27158E-02
 0.10975000E+03 -0.97128E-02
 0.10980000E+03 -0.15532E-01
 0.10985000E+03 -0.16675E-01
 0.10990000E+03 -0.13157E-01
 0.10995000E+03 -0.79444E-02
 0.11000000E+03  0.85214E-03
 0.11005000E+03  0.12744E-01
 0.11010000E+03  0.24715E-01
 0.11015000E+03  0.33440E-01
 0.11020000E+03  0.37999E-01
 0.11025000E+03  0.38067E-01
 0.11030000E+03  0.34013E-01
 0.11035000E+03  0.26839E-01
 0.11040000E+03  0.14933E-01
 0.11045000E+03  0.16650E-02
 0.11050000E+03 -0.89902E-02
 0.11055000E+03 -0.17706E-01
 0.11060000E+03 -0.25747E-01
 0.11065000E+03 -0.31547E-01
 0.11070000E+03 -0.34909E-01
 0.11075000E+03 -0.36043E-01
 0.11080000E+03 -0.33566E-01
 0.11085000E+03 -0.28486E-01
 0.11090000E+03 -0.22746E-01
 0.11095000E+03 -0.16328E-01
 0.11100000E+03 -0.10361E-01
 0.11105000E+03 -0.66133E-02
 0.11110000E+03 -0.44799E-02
 0.11115000E+03 -0.34657E-02
 0.11120000E+03 -0.36835E-02
 0.11125000E+03 -0.73430E-02
 0.11130000E+03 -0.11465E-01
 0.11135000E+03 -0.13485E-01
 0.11140000E+03 -0.12886E-01
 0.11145000E+03 -0.88134E-02
 0.11150000E+03 -0.96314E-04
 0.11155000E+03  0.13604E-01
 0.11160000E+03  0.28489E-01
 0.11165000E+03  0.41034E-01
 0.11170000E+03  0.50345E-01
 0.11175000E+03  0.57100E-01
 0.11180000E+03  0.58223E-01
 0.11185000E+03  0.55168E-01
 0.11190000E+03  0.48925E-01
 0.11195000E+03  0.39847E-01
 0.11200000E+03  0.28553E-01
 0.11205000E+03  0.15707E-01
 0.11210000E+03  0.53701E-02
 0.11215000E+03 -0.21040E-02
 0.11220000E+03 -0.78677E-02
 0.11225000E+03 -0.11249E-01
 0.11230000E+03 -0.13477E-01
 0.11235000E+03 -0.14578E-01
 0.11240000E+03 -0.14209E-01
 0.11245000E+03 -0.13240E-01
 0.11250000E+03 -0.11001E-01
 0.11255000E+03 -0.97100E-02
 0.11260000E+03 -0.79079E-02
 0.11265000E+03 -0.61057E-02
 0.11270000E+03 -0.57607E-02
 0.11275000E+03 -0.62460E-02
 0.11280000E+03 -0.72909E-02
 0.11285000E+03 -0.68880E-02
 0.11290000E+03 -0.45822E-02
 0.11295000E+03 -0.18805E-02
 0.11300000E+03  0.71579E-03
 0.11305000E+03  0.21738E-02
 0.11310000E+03  0.14436E-03
 0.11315000E+03 -0.14100E-02
 0.11320000E+03 -0.14760E-02
 0.11325000E+03 -0.12753E-02
 0.11330000E+03 -0.45552E-03
 0.11335000E+03  0.22667E-02
 0.11340000E+03  0.56103E-02
 0.11345000E+03  0.64125E-02
 0.11350000E+03  0.65926E-02
 0.11355000E+03  0.57481E-02
 0.11360000E+03  0.31368E-02
 0.11365000E+03 -0.22377E-03
 0.11370000E+03 -0.52662E-02
 0.11375000E+03 -0.98523E-02
 0.11380000E+03 -0.12079E-01
 0.11385000E+03 -0.15285E-01
 0.11390000E+03 -0.19606E-01
 0.11395000E+03 -0.23602E-01
 0.11400000E+03 -0.27162E-01
 0.11405000E+03 -0.29937E-01
 0.11410000E+03 -0.31331E-01
 0.11415000E+03 -0.31280E-01
 0.11420000E+03 -0.28615E-01
 0.11425000E+03 -0.23862E-01
 0.11430000E+03 -0.17190E-01
 0.11435000E+03 -0.93687E-02
 0.11440000E+03 -0.73233E-03
 0.11445000E+03  0.68018E-02
 0.11450000E+03  0.10991E-01
 0.11455000E+03  0.14007E-01
 0.11460000E+03  0.16852E-01
 0.11465000E+03  0.20878E-01
 0.11470000E+03  0.25788E-01
 0.11475000E+03  0.30277E-01
 0.11480000E+03  0.33470E-01
 0.11485000E+03  0.36282E-01
 0.11490000E+03  0.37024E-01
 0.11495000E+03  0.35060E-01
 0.11500000E+03  0.31516E-01
 0.11505000E+03  0.25678E-01
 0.11510000E+03  0.18865E-01
 0.11515000E+03  0.10988E-01
 0.11520000E+03  0.29073E-02
 0.11525000E+03 -0.22407E-02
 0.11530000E+03 -0.63099E-02
 0.11535000E+03 -0.10297E-01
 0.11540000E+03 -0.13911E-01
 0.11545000E+03 -0.17357E-01
 0.11550000E+03 -0.20411E-01
 0.11555000E+03 -0.22031E-01
 0.11560000E+03 -0.21099E-01
 0.11565000E+03 -0.18008E-01
 0.11570000E+03 -0.14275E-01
 0.11575000E+03 -0.10978E-01
 0.11580000E+03 -0.79746E-02
 0.11585000E+03 -0.51305E-02
 0.11590000E+03 -0.74609E-03
 0.11595000E+03  0.32311E-02
 0.11600000E+03  0.69612E-02
 0.11605000E+03  0.10147E-01
 0.11610000E+03  0.11102E-01
 0.11615000E+03  0.12043E-01
 0.11620000E+03  0.13688E-01
 0.11625000E+03  0.15677E-01
 0.11630000E+03  0.17193E-01
 0.11635000E+03  0.17503E-01
 0.11640000E+03  0.16629E-01
 0.11645000E+03  0.14922E-01
 0.11650000E+03  0.13512E-01
 0.11655000E+03  0.13067E-01
 0.11660000E+03  0.12850E-01
 0.11665000E+03  0.12252E-01
 0.11670000E+03  0.11835E-01
 0.11675000E+03  0.11220E-01
 0.11680000E+03  0.92217E-02
 0.11685000E+03  0.41063E-02
 0.11690000E+03 -0.17128E-02
 0.11695000E+03 -0.56081E-02
 0.11700000E+03 -0.89224E-02
 0.11705000E+03 -0.11157E-01
 0.11710000E+03 -0.11502E-01
 0.11715000E+03 -0.10002E-01
 0.11720000E+03 -0.89686E-02
 0.11725000E+03 -0.83191E-02
 0.11730000E+03 -0.85944E-02
 0.11735000E+03 -0.10276E-01
 0.11740000E+03 -0.12695E-01
 0.11745000E+03 -0.16487E-01
 0.11750000E+03 -0.20164E-01
 0.11755000E+03 -0.22270E-01
 0.11760000E+03 -0.22253E-01
 0.11765000E+03 -0.20973E-01
 0.11770000E+03 -0.19911E-01
 0.11775000E+03 -0.18456E-01
 0.11780000E+03 -0.16057E-01
 0.11785000E+03 -0.13957E-01
 0.11790000E+03 -0.11671E-01
 0.11795000E+03 -0.94694E-02
 0.11800000E+03 -0.66444E-02
 0.11805000E+03 -0.42824E-02
 0.11810000E+03 -0.26204E-02
 0.11815000E+03 -0.27238E-03
 0.11820000E+03  0.17683E-02
 0.11825000E+03  0.32948E-02
 0.11830000E+03  0.47642E-02
 0.11835000E+03  0.69086E-02
 0.11840000E+03  0.94167E-02
 0.11845000E+03  0.11839E-01
 0.11850000E+03  0.13086E-01
 0.11855000E+03  0.13505E-01
 0.11860000E+03  0.13435E-01
 0.11865000E+03  0.13922E-01
 0.11870000E+03  0.15404E-01
 0.11875000E+03  0.14945E-01
 0.11880000E+03  0.13493E-01
 0.11885000E+03  0.12402E-01
 0.11890000E+03  0.10809E-01
 0.11895000E+03  0.86026E-02
 0.11900000E+03  0.74825E-02
 0.11905000E+03  0.78758E-02
 0.11910000E+03  0.81997E-02
 0.11915000E+03  0.93612E-02
 0.11920000E+03  0.10060E-01
 0.11925000E+03  0.10580E-01
 0.11930000E+03  0.99954E-02
 0.11935000E+03  0.78280E-02
 0.11940000E+03  0.43039E-02
 0.11945000E+03 -0.13234E-02
 0.11950000E+03 -0.92819E-02
 0.11955000E+03 -0.16552E-01
 0.11960000E+03 -0.21594E-01
 0.11965000E+03 -0.25281E-01
 0.11970000E+03 -0.27196E-01
 0.11975000E+03 -0.29093E-01
 0.11980000E+03 -0.29228E-01
 0.11985000E+03 -0.29473E-01
 0.11990000E+03 -0.26359E-01
 0.11995000E+03 -0.25043E-01
 0.12000000E+03 -0.11051E-01
