 0.00000000E+00 -0.13552E-04
 0.50000001E-01  0.93482E-04
 0.10000000E+00  0.47707E-04
 0.15000001E+00  0.45794E-04
 0.20000000E+00  0.24030E-04
 0.25000000E+00  0.40295E-04
 0.30000001E+00  0.23018E-04
 0.34999999E+00  0.12180E-04
 0.40000001E+00 -0.99788E-05
 0.45000002E+00 -0.23741E-04
 0.50000000E+00 -0.44862E-04
 0.55000001E+00 -0.79522E-04
 0.60000002E+00 -0.11706E-03
 0.65000004E+00 -0.16286E-03
 0.69999999E+00 -0.21535E-03
 0.75000000E+00 -0.25771E-03
 0.80000001E+00 -0.29161E-03
 0.85000002E+00 -0.33385E-03
 0.90000004E+00 -0.38466E-03
 0.94999999E+00 -0.43100E-03
 0.10000000E+01 -0.46323E-03
 0.10500001E+01 -0.49077E-03
 0.11000000E+01 -0.51560E-03
 0.11500000E+01 -0.53724E-03
 0.12000000E+01 -0.54406E-03
 0.12500000E+01 -0.55599E-03
 0.13000001E+01 -0.54960E-03
 0.13500000E+01 -0.52956E-03
 0.14000000E+01 -0.50273E-03
 0.14500000E+01 -0.48562E-03
 0.15000000E+01 -0.47252E-03
 0.15500001E+01 -0.44278E-03
 0.16000000E+01 -0.40306E-03
 0.16500000E+01 -0.36823E-03
 0.17000000E+01 -0.33506E-03
 0.17500000E+01 -0.28830E-03
 0.18000001E+01 -0.22868E-03
 0.18500000E+01 -0.17517E-03
 0.19000000E+01 -0.12145E-03
 0.19500000E+01 -0.62644E-04
 0.20000000E+01 -0.15999E-04
 0.20500000E+01  0.26487E-04
 0.21000001E+01  0.63959E-04
 0.21500001E+01  0.10652E-03
 0.22000000E+01  0.13221E-03
 0.22500000E+01  0.15729E-03
 0.23000000E+01  0.15878E-03
 0.23500001E+01  0.17912E-03
 0.24000001E+01  0.20105E-03
 0.24500000E+01  0.21725E-03
 0.25000000E+01  0.24608E-03
 0.25500000E+01  0.26497E-03
 0.26000001E+01  0.27400E-03
 0.26500001E+01  0.27365E-03
 0.27000000E+01  0.30232E-03
 0.27500000E+01  0.30795E-03
 0.28000000E+01  0.32212E-03
 0.28500001E+01  0.32564E-03
 0.29000001E+01  0.31765E-03
 0.29500000E+01  0.30472E-03
 0.30000000E+01  0.29520E-03
 0.30500000E+01  0.26718E-03
 0.31000001E+01  0.22901E-03
 0.31500001E+01  0.19773E-03
 0.32000000E+01  0.15647E-03
 0.32500000E+01  0.13274E-03
 0.33000000E+01  0.10774E-03
 0.33500001E+01  0.91528E-04
 0.34000001E+01  0.66946E-04
 0.34500000E+01  0.31598E-04
 0.35000000E+01  0.14411E-05
 0.35500000E+01 -0.17380E-04
 0.36000001E+01 -0.36861E-04
 0.36500001E+01 -0.61238E-04
 0.37000000E+01 -0.11365E-03
 0.37500000E+01 -0.16570E-03
 0.38000000E+01 -0.18212E-03
 0.38500001E+01 -0.18894E-03
 0.39000001E+01 -0.20184E-03
 0.39500000E+01 -0.22140E-03
 0.40000000E+01 -0.23204E-03
 0.40500002E+01 -0.24747E-03
 0.40999999E+01 -0.25119E-03
 0.41500001E+01 -0.24850E-03
 0.42000003E+01 -0.25212E-03
 0.42500000E+01 -0.23958E-03
 0.43000002E+01 -0.22781E-03
 0.43499999E+01 -0.21360E-03
 0.44000001E+01 -0.19561E-03
 0.44500003E+01 -0.18583E-03
 0.45000000E+01 -0.17294E-03
 0.45500002E+01 -0.16695E-03
 0.45999999E+01 -0.15503E-03
 0.46500001E+01 -0.12628E-03
 0.47000003E+01 -0.11353E-03
 0.47500000E+01 -0.11124E-03
 0.48000002E+01 -0.11219E-03
 0.48499999E+01 -0.10906E-03
 0.49000001E+01 -0.11484E-03
 0.49500003E+01 -0.13139E-03
 0.50000000E+01 -0.13929E-03
 0.50500002E+01 -0.15469E-03
 0.50999999E+01 -0.17452E-03
 0.51500001E+01 -0.17984E-03
 0.52000003E+01 -0.16900E-03
 0.52500000E+01 -0.15354E-03
 0.53000002E+01 -0.15201E-03
 0.53499999E+01 -0.15593E-03
 0.54000001E+01 -0.14113E-03
 0.54500003E+01 -0.12257E-03
 0.55000000E+01 -0.10909E-03
 0.55500002E+01 -0.96389E-04
 0.55999999E+01 -0.74667E-04
 0.56500001E+01 -0.43056E-04
 0.57000003E+01 -0.15074E-04
 0.57500000E+01  0.47943E-05
 0.58000002E+01  0.22278E-04
 0.58499999E+01  0.36213E-04
 0.59000001E+01  0.52394E-04
 0.59500003E+01  0.65242E-04
 0.60000000E+01  0.73926E-04
 0.60500002E+01  0.84998E-04
 0.60999999E+01  0.85334E-04
 0.61500001E+01  0.76048E-04
 0.62000003E+01  0.56374E-04
 0.62500000E+01  0.63252E-04
 0.63000002E+01  0.63925E-04
 0.63499999E+01  0.46064E-04
 0.64000001E+01  0.29553E-04
 0.64500003E+01  0.83456E-05
 0.65000000E+01 -0.10225E-04
 0.65500002E+01 -0.41055E-04
 0.65999999E+01 -0.59178E-04
 0.66500001E+01 -0.81766E-04
 0.67000003E+01 -0.10552E-03
 0.67500000E+01 -0.12794E-03
 0.68000002E+01 -0.16083E-03
 0.68499999E+01 -0.17393E-03
 0.69000001E+01 -0.18589E-03
 0.69500003E+01 -0.19666E-03
 0.70000000E+01 -0.19015E-03
 0.70500002E+01 -0.19703E-03
 0.70999999E+01 -0.18983E-03
 0.71500001E+01 -0.18110E-03
 0.72000003E+01 -0.18379E-03
 0.72500000E+01 -0.17578E-03
 0.73000002E+01 -0.16171E-03
 0.73499999E+01 -0.13883E-03
 0.74000001E+01 -0.10929E-03
 0.74500003E+01 -0.73507E-04
 0.75000000E+01 -0.30731E-04
 0.75500002E+01  0.21647E-04
 0.75999999E+01  0.58677E-04
 0.76500001E+01  0.93079E-04
 0.77000003E+01  0.12347E-03
 0.77500000E+01  0.15811E-03
 0.78000002E+01  0.17655E-03
 0.78499999E+01  0.19134E-03
 0.79000001E+01  0.22513E-03
 0.79500003E+01  0.24837E-03
 0.80000000E+01  0.26137E-03
 0.80500002E+01  0.25112E-03
 0.81000004E+01  0.24960E-03
 0.81500006E+01  0.24524E-03
 0.81999998E+01  0.24815E-03
 0.82500000E+01  0.27222E-03
 0.83000002E+01  0.26708E-03
 0.83500004E+01  0.26262E-03
 0.84000006E+01  0.25069E-03
 0.84499998E+01  0.23873E-03
 0.85000000E+01  0.24992E-03
 0.85500002E+01  0.25400E-03
 0.86000004E+01  0.26050E-03
 0.86500006E+01  0.25144E-03
 0.86999998E+01  0.24208E-03
 0.87500000E+01  0.23655E-03
 0.88000002E+01  0.20935E-03
 0.88500004E+01  0.17077E-03
 0.89000006E+01  0.11970E-03
 0.89499998E+01  0.62916E-04
 0.90000000E+01  0.76384E-05
 0.90500002E+01 -0.55241E-04
 0.91000004E+01 -0.11722E-03
 0.91500006E+01 -0.17346E-03
 0.91999998E+01 -0.22899E-03
 0.92500000E+01 -0.28224E-03
 0.93000002E+01 -0.31795E-03
 0.93500004E+01 -0.37876E-03
 0.94000006E+01 -0.42905E-03
 0.94499998E+01 -0.46555E-03
 0.95000000E+01 -0.51576E-03
 0.95500002E+01 -0.54606E-03
 0.96000004E+01 -0.56867E-03
 0.96500006E+01 -0.58659E-03
 0.96999998E+01 -0.59777E-03
 0.97500000E+01 -0.59460E-03
 0.98000002E+01 -0.58303E-03
 0.98500004E+01 -0.56431E-03
 0.99000006E+01 -0.54427E-03
 0.99499998E+01 -0.51062E-03
 0.10000000E+02 -0.49024E-03
 0.10050000E+02 -0.45306E-03
 0.10100000E+02 -0.39517E-03
 0.10150001E+02 -0.33687E-03
 0.10200000E+02 -0.27672E-03
 0.10250000E+02 -0.22770E-03
 0.10300000E+02 -0.16557E-03
 0.10350000E+02 -0.12069E-03
 0.10400001E+02 -0.10067E-03
 0.10450000E+02 -0.48536E-04
 0.10500000E+02 -0.75961E-05
 0.10550000E+02  0.30946E-04
 0.10600000E+02  0.87749E-04
 0.10650001E+02  0.11702E-03
 0.10700000E+02  0.16257E-03
 0.10750000E+02  0.19449E-03
 0.10800000E+02  0.22684E-03
 0.10850000E+02  0.26759E-03
 0.10900001E+02  0.28332E-03
 0.10950000E+02  0.32285E-03
 0.11000000E+02  0.33485E-03
 0.11050000E+02  0.33561E-03
 0.11100000E+02  0.33198E-03
 0.11150001E+02  0.31761E-03
 0.11200000E+02  0.30991E-03
 0.11250000E+02  0.27821E-03
 0.11300000E+02  0.26951E-03
 0.11350000E+02  0.25999E-03
 0.11400001E+02  0.24997E-03
 0.11450000E+02  0.24901E-03
 0.11500000E+02  0.24491E-03
 0.11550000E+02  0.24565E-03
 0.11600000E+02  0.25177E-03
 0.11650001E+02  0.24452E-03
 0.11700000E+02  0.23727E-03
 0.11750000E+02  0.21917E-03
 0.11800000E+02  0.18469E-03
 0.11850000E+02  0.16742E-03
 0.11900001E+02  0.14238E-03
 0.11950000E+02  0.10506E-03
 0.12000000E+02  0.79289E-04
 0.12050000E+02  0.62809E-04
 0.12100000E+02  0.31355E-04
 0.12150001E+02  0.16284E-04
 0.12200000E+02 -0.49124E-05
 0.12250000E+02 -0.35329E-04
 0.12300000E+02 -0.48008E-04
 0.12350000E+02 -0.80914E-04
 0.12400001E+02 -0.86092E-04
 0.12450000E+02 -0.71475E-04
 0.12500000E+02 -0.74519E-04
 0.12550000E+02 -0.75523E-04
 0.12600000E+02 -0.74491E-04
 0.12650001E+02 -0.87675E-04
 0.12700000E+02 -0.10534E-03
 0.12750000E+02 -0.11995E-03
 0.12800000E+02 -0.13141E-03
 0.12850000E+02 -0.13039E-03
 0.12900001E+02 -0.14327E-03
 0.12950000E+02 -0.16164E-03
 0.13000000E+02 -0.17263E-03
 0.13050000E+02 -0.19003E-03
 0.13100000E+02 -0.19836E-03
 0.13150001E+02 -0.19558E-03
 0.13200000E+02 -0.21022E-03
 0.13250000E+02 -0.23078E-03
 0.13300000E+02 -0.24160E-03
 0.13350000E+02 -0.25594E-03
 0.13400001E+02 -0.25028E-03
 0.13450000E+02 -0.26630E-03
 0.13500000E+02 -0.29716E-03
 0.13550000E+02 -0.30330E-03
 0.13600000E+02 -0.32432E-03
 0.13650001E+02 -0.33536E-03
 0.13700000E+02 -0.35337E-03
 0.13750000E+02 -0.33565E-03
 0.13800000E+02 -0.31546E-03
 0.13850000E+02 -0.28409E-03
 0.13900001E+02 -0.23746E-03
 0.13950000E+02 -0.21059E-03
 0.14000000E+02 -0.19458E-03
 0.14050000E+02 -0.17414E-03
 0.14100000E+02 -0.14482E-03
 0.14150001E+02 -0.13067E-03
 0.14200000E+02 -0.10775E-03
 0.14250000E+02 -0.84743E-04
 0.14300000E+02 -0.35789E-04
 0.14350000E+02 -0.85814E-06
 0.14400001E+02  0.31230E-04
 0.14450000E+02  0.70099E-04
 0.14500000E+02  0.10653E-03
 0.14550000E+02  0.14572E-03
 0.14600000E+02  0.18937E-03
 0.14650001E+02  0.23999E-03
 0.14700000E+02  0.27326E-03
 0.14750000E+02  0.29623E-03
 0.14800000E+02  0.30962E-03
 0.14850000E+02  0.32766E-03
 0.14900001E+02  0.34957E-03
 0.14950000E+02  0.35894E-03
 0.15000000E+02  0.35051E-03
 0.15050000E+02  0.33304E-03
 0.15100000E+02  0.30753E-03
 0.15150001E+02  0.29300E-03
 0.15200000E+02  0.28576E-03
 0.15250000E+02  0.26960E-03
 0.15300000E+02  0.26810E-03
 0.15350000E+02  0.24899E-03
 0.15400001E+02  0.22590E-03
 0.15450000E+02  0.21592E-03
 0.15500000E+02  0.20515E-03
 0.15550000E+02  0.18237E-03
 0.15600000E+02  0.17213E-03
 0.15650001E+02  0.16906E-03
 0.15700000E+02  0.11942E-03
 0.15750000E+02  0.48772E-04
 0.15800000E+02  0.69061E-04
 0.15850000E+02  0.52363E-04
 0.15900001E+02  0.12680E-04
 0.15950000E+02 -0.68492E-04
 0.16000000E+02 -0.89688E-04
 0.16050001E+02 -0.12270E-03
 0.16100000E+02  0.67728E-04
 0.16150000E+02  0.12697E-03
 0.16200001E+02 -0.91330E-04
 0.16250000E+02 -0.43515E-03
 0.16300001E+02 -0.46875E-03
 0.16350000E+02 -0.10226E-03
 0.16400000E+02  0.80259E-04
 0.16450001E+02  0.21214E-03
 0.16500000E+02 -0.90875E-04
 0.16550001E+02  0.19835E-03
 0.16600000E+02  0.33451E-04
 0.16650000E+02  0.18980E-02
 0.16700001E+02  0.71574E-02
 0.16750000E+02  0.16437E-01
 0.16800001E+02  0.17966E-01
 0.16850000E+02  0.15190E-01
 0.16900000E+02  0.23560E-01
 0.16950001E+02  0.27315E-01
 0.17000000E+02  0.20880E-01
 0.17050001E+02  0.12629E-01
 0.17100000E+02 -0.22921E-02
 0.17150000E+02 -0.10674E-01
 0.17200001E+02  0.24657E-01
 0.17250000E+02  0.55909E-01
 0.17300001E+02  0.39557E-01
 0.17350000E+02 -0.31371E-01
 0.17400000E+02 -0.70367E-01
 0.17450001E+02 -0.27623E-01
 0.17500000E+02  0.36276E-01
 0.17550001E+02  0.74733E-01
 0.17600000E+02  0.79329E-01
 0.17650000E+02  0.41192E-01
 0.17700001E+02 -0.34640E-01
 0.17750000E+02 -0.72387E-01
 0.17800001E+02 -0.65309E-01
 0.17850000E+02 -0.19406E-01
 0.17900000E+02  0.27043E-01
 0.17950001E+02  0.59029E-01
 0.18000000E+02  0.45553E-01
 0.18050001E+02  0.19920E-01
 0.18100000E+02 -0.94144E-02
 0.18150000E+02 -0.24092E-01
 0.18200001E+02  0.10162E-01
 0.18250000E+02  0.73670E-02
 0.18300001E+02  0.58850E-02
 0.18350000E+02  0.22935E-01
 0.18400000E+02  0.39054E-01
 0.18450001E+02  0.23524E-01
 0.18500000E+02 -0.11696E-01
 0.18550001E+02 -0.28583E-01
 0.18600000E+02 -0.45667E-01
 0.18650000E+02 -0.57097E-02
 0.18700001E+02  0.80069E-01
 0.18750000E+02  0.72457E-01
 0.18800001E+02 -0.25905E-01
 0.18850000E+02 -0.58065E-01
 0.18900000E+02 -0.20316E-01
 0.18950001E+02  0.14917E-01
 0.19000000E+02 -0.30552E-01
 0.19050001E+02 -0.52916E-01
 0.19100000E+02 -0.26037E-01
 0.19150000E+02 -0.20366E-01
 0.19200001E+02 -0.72653E-02
 0.19250000E+02  0.32093E-01
 0.19300001E+02  0.68600E-01
 0.19350000E+02  0.71444E-01
 0.19400000E+02  0.40064E-01
 0.19450001E+02  0.98006E-02
 0.19500000E+02 -0.33054E-01
 0.19550001E+02 -0.41892E-01
 0.19600000E+02  0.29044E-01
 0.19650000E+02  0.48157E-01
 0.19700001E+02  0.37648E-01
 0.19750000E+02 -0.14406E-01
 0.19800001E+02 -0.42780E-01
 0.19850000E+02 -0.21622E-01
 0.19900000E+02  0.17457E-01
 0.19950001E+02  0.24412E-01
 0.20000000E+02  0.43971E-01
 0.20050001E+02  0.50133E-01
 0.20100000E+02 -0.25553E-01
 0.20150000E+02 -0.59347E-01
 0.20200001E+02 -0.23026E-01
 0.20250000E+02 -0.11892E-01
 0.20300001E+02 -0.84924E-01
 0.20350000E+02 -0.42158E-01
 0.20400000E+02  0.56879E-01
 0.20450001E+02  0.10179E+00
 0.20500000E+02  0.47600E-01
 0.20550001E+02 -0.29788E-01
 0.20600000E+02  0.31385E-01
 0.20650000E+02  0.12928E-01
 0.20700001E+02 -0.29154E-01
 0.20750000E+02 -0.54420E-01
 0.20800001E+02 -0.38881E-01
 0.20850000E+02 -0.41310E-01
 0.20900000E+02 -0.56365E-01
 0.20950001E+02 -0.15302E-01
 0.21000000E+02  0.34929E-01
 0.21050001E+02  0.61594E-02
 0.21100000E+02 -0.44348E-01
 0.21150000E+02  0.32028E-01
 0.21200001E+02 -0.69387E-02
 0.21250000E+02 -0.95077E-01
 0.21300001E+02 -0.10539E+00
 0.21350000E+02 -0.28177E-01
 0.21400000E+02  0.62519E-01
 0.21450001E+02  0.90946E-01
 0.21500000E+02  0.96404E-01
 0.21550001E+02  0.59907E-01
 0.21600000E+02  0.18708E-01
 0.21650000E+02 -0.69853E-01
 0.21700001E+02 -0.10277E+00
 0.21750000E+02 -0.99428E-02
 0.21800001E+02  0.62877E-01
 0.21850000E+02  0.10887E+00
 0.21900000E+02  0.75063E-01
 0.21950001E+02  0.32265E-01
 0.22000000E+02  0.48789E-02
 0.22050001E+02 -0.38690E-01
 0.22100000E+02 -0.79735E-01
 0.22150000E+02 -0.39721E-01
 0.22200001E+02  0.24458E-01
 0.22250000E+02 -0.32494E-01
 0.22300001E+02 -0.17633E-01
 0.22350000E+02  0.53262E-01
 0.22400000E+02  0.26763E-01
 0.22450001E+02 -0.56424E-01
 0.22500000E+02 -0.49650E-01
 0.22550001E+02 -0.38046E-02
 0.22600000E+02  0.13925E-01
 0.22650000E+02  0.12132E-01
 0.22700001E+02  0.14468E-01
 0.22750000E+02  0.11765E-01
 0.22800001E+02  0.15272E-02
 0.22850000E+02  0.20260E-01
 0.22900000E+02  0.47798E-01
 0.22950001E+02  0.73421E-01
 0.23000000E+02  0.19706E-01
 0.23050001E+02  0.46554E-02
 0.23100000E+02 -0.42980E-01
 0.23150000E+02 -0.37254E-01
 0.23200001E+02  0.45014E-02
 0.23250000E+02 -0.16734E-01
 0.23300001E+02  0.28463E-02
 0.23350000E+02  0.24925E-01
 0.23400000E+02 -0.19905E-01
 0.23450001E+02 -0.58575E-01
 0.23500000E+02  0.17766E-01
 0.23550001E+02  0.63318E-01
 0.23600000E+02  0.24533E-01
 0.23650000E+02 -0.10261E-02
 0.23700001E+02  0.34661E-01
 0.23750000E+02  0.44816E-01
 0.23800001E+02  0.45074E-01
 0.23850000E+02  0.22068E-02
 0.23900000E+02 -0.64666E-01
 0.23950001E+02 -0.11258E+00
 0.24000000E+02 -0.11975E+00
 0.24050001E+02 -0.76134E-01
 0.24100000E+02 -0.15388E-02
 0.24150000E+02  0.23004E-01
 0.24200001E+02  0.12617E-01
 0.24250000E+02  0.42300E-01
 0.24300001E+02  0.11400E-01
 0.24350000E+02 -0.55589E-01
 0.24400000E+02 -0.87941E-01
 0.24450001E+02 -0.91121E-01
 0.24500000E+02 -0.21774E-01
 0.24550001E+02  0.34428E-01
 0.24600000E+02 -0.43047E-01
 0.24650000E+02 -0.58385E-01
 0.24700001E+02 -0.27064E-01
 0.24750000E+02  0.33330E-02
 0.24800001E+02  0.10654E-01
 0.24850000E+02  0.36651E-02
 0.24900000E+02  0.25261E-01
 0.24950001E+02 -0.19122E-01
 0.25000000E+02 -0.42283E-01
 0.25050001E+02  0.19915E-02
 0.25100000E+02  0.58299E-02
 0.25150000E+02 -0.33455E-01
 0.25200001E+02 -0.17780E-01
 0.25250000E+02  0.12100E-01
 0.25300001E+02  0.80357E-03
 0.25350000E+02 -0.42827E-01
 0.25400000E+02 -0.43745E-01
 0.25450001E+02 -0.16431E-01
 0.25500000E+02 -0.43205E-01
 0.25550001E+02 -0.50058E-01
 0.25600000E+02 -0.43793E-01
 0.25650000E+02 -0.75257E-01
 0.25700001E+02 -0.67910E-01
 0.25750000E+02 -0.23565E-01
 0.25800001E+02  0.51078E-01
 0.25850000E+02  0.77735E-01
 0.25900000E+02  0.65651E-01
 0.25950001E+02  0.37131E-01
 0.26000000E+02 -0.53843E-02
 0.26050001E+02 -0.29015E-01
 0.26100000E+02 -0.17799E-02
 0.26150000E+02  0.48915E-01
 0.26200001E+02  0.23957E-01
 0.26250000E+02 -0.15228E-01
 0.26300001E+02  0.24131E-02
 0.26350000E+02  0.80198E-02
 0.26400000E+02 -0.99216E-02
 0.26450001E+02 -0.63442E-02
 0.26500000E+02 -0.13783E-02
 0.26550001E+02  0.13754E-01
 0.26600000E+02 -0.28852E-01
 0.26650000E+02 -0.40327E-01
 0.26700001E+02  0.73308E-02
 0.26750000E+02  0.71128E-02
 0.26800001E+02 -0.82155E-02
 0.26850000E+02 -0.29996E-02
 0.26900000E+02  0.78528E-01
 0.26950001E+02  0.14419E+00
 0.27000000E+02  0.14165E+00
 0.27050001E+02  0.88988E-01
 0.27100000E+02  0.41920E-01
 0.27150000E+02  0.30061E-02
 0.27200001E+02 -0.58704E-01
 0.27250000E+02 -0.60391E-01
 0.27300001E+02  0.29599E-01
 0.27350000E+02  0.83775E-01
 0.27400000E+02  0.29101E-01
 0.27450001E+02  0.34691E-01
 0.27500000E+02  0.39096E-01
 0.27550001E+02 -0.19992E-01
 0.27600000E+02 -0.65746E-01
 0.27650000E+02 -0.21323E-01
 0.27700001E+02  0.41710E-01
 0.27750000E+02  0.27566E-01
 0.27800001E+02 -0.15176E-03
 0.27850000E+02 -0.26111E-02
 0.27900000E+02 -0.50007E-01
 0.27950001E+02 -0.90591E-01
 0.28000000E+02 -0.67799E-01
 0.28050001E+02  0.14302E-01
 0.28100000E+02  0.77624E-01
 0.28150000E+02  0.22715E-01
 0.28200001E+02 -0.56756E-03
 0.28250000E+02  0.70384E-01
 0.28300001E+02  0.11767E+00
 0.28350000E+02  0.18404E+00
 0.28400000E+02  0.23054E+00
 0.28450001E+02  0.16771E+00
 0.28500000E+02  0.13150E+00
 0.28550001E+02  0.14489E+00
 0.28600000E+02  0.20352E+00
 0.28650000E+02  0.10232E+00
 0.28700001E+02 -0.16009E+00
 0.28750000E+02 -0.37820E+00
 0.28800001E+02 -0.44398E+00
 0.28850000E+02 -0.36710E+00
 0.28900000E+02 -0.16679E+00
 0.28950001E+02  0.31015E+00
 0.29000000E+02  0.83141E+00
 0.29050001E+02  0.86874E+00
 0.29100000E+02  0.16775E+00
 0.29150000E+02 -0.71873E+00
 0.29200001E+02 -0.10000E+01
 0.29250000E+02 -0.60434E+00
 0.29300001E+02  0.16477E-01
 0.29350000E+02  0.39679E+00
 0.29400000E+02  0.36309E+00
 0.29450001E+02 -0.41511E-03
 0.29500000E+02 -0.29773E+00
 0.29550001E+02 -0.17967E-01
 0.29600000E+02  0.55278E+00
 0.29650000E+02  0.71201E+00
 0.29700001E+02  0.38442E+00
 0.29750000E+02 -0.54767E-01
 0.29800001E+02 -0.14735E+00
 0.29850000E+02 -0.52223E-02
 0.29900000E+02 -0.77449E-01
 0.29950001E+02 -0.26463E+00
 0.30000000E+02 -0.55911E+00
 0.30050001E+02 -0.95743E+00
 0.30100000E+02 -0.91052E+00
 0.30150000E+02 -0.37106E+00
 0.30200001E+02  0.27692E+00
 0.30250000E+02  0.73246E+00
 0.30300001E+02  0.65013E+00
 0.30350000E+02  0.24660E+00
 0.30400000E+02 -0.11351E+00
 0.30450001E+02 -0.23614E+00
 0.30500000E+02 -0.32038E-01
 0.30550001E+02  0.20152E+00
 0.30600000E+02  0.31950E+00
 0.30650000E+02  0.19932E+00
 0.30700001E+02 -0.24571E+00
 0.30750000E+02 -0.43595E+00
 0.30800001E+02 -0.78551E-01
 0.30850000E+02  0.25911E+00
 0.30900000E+02  0.36920E+00
 0.30950001E+02  0.33459E+00
 0.31000000E+02  0.11743E+00
 0.31050001E+02 -0.25456E+00
 0.31100000E+02 -0.66761E+00
 0.31150000E+02 -0.79423E+00
 0.31200001E+02 -0.52923E+00
 0.31250000E+02 -0.51847E-01
 0.31300001E+02  0.40337E+00
 0.31350000E+02  0.56052E+00
 0.31400000E+02  0.48104E+00
 0.31450001E+02  0.49295E+00
 0.31500000E+02  0.48509E+00
 0.31550001E+02  0.16980E+00
 0.31600000E+02 -0.23581E+00
 0.31650000E+02 -0.39778E+00
 0.31700001E+02 -0.48452E+00
 0.31750000E+02 -0.32339E+00
 0.31800001E+02 -0.23431E-01
 0.31850000E+02 -0.10739E+00
 0.31900000E+02  0.67053E-02
 0.31950001E+02  0.41822E+00
 0.32000000E+02  0.45082E+00
 0.32049999E+02  0.22366E+00
 0.32100002E+02  0.74045E-01
 0.32150002E+02 -0.41943E-01
 0.32200001E+02 -0.13285E+00
 0.32250000E+02 -0.23792E+00
 0.32299999E+02 -0.37007E+00
 0.32350002E+02 -0.40090E+00
 0.32400002E+02 -0.44944E+00
 0.32450001E+02 -0.32363E+00
 0.32500000E+02  0.11524E+00
 0.32549999E+02  0.60869E+00
 0.32600002E+02  0.84914E+00
 0.32650002E+02  0.55039E+00
 0.32700001E+02  0.13136E+00
 0.32750000E+02 -0.10725E+00
 0.32799999E+02 -0.38580E+00
 0.32850002E+02 -0.60925E+00
 0.32900002E+02 -0.62757E+00
 0.32950001E+02 -0.44832E+00
 0.33000000E+02 -0.20101E+00
 0.33049999E+02 -0.49955E-01
 0.33100002E+02 -0.38495E-01
 0.33150002E+02  0.11373E+00
 0.33200001E+02  0.53153E+00
 0.33250000E+02  0.62908E+00
 0.33299999E+02  0.81580E-01
 0.33350002E+02 -0.49228E+00
 0.33400002E+02 -0.56871E+00
 0.33450001E+02 -0.43567E+00
 0.33500000E+02 -0.31529E+00
 0.33549999E+02 -0.17398E+00
 0.33600002E+02  0.94201E-01
 0.33650002E+02  0.49861E+00
 0.33700001E+02  0.66559E+00
 0.33750000E+02  0.48956E+00
 0.33799999E+02  0.24066E+00
 0.33850002E+02  0.95787E-02
 0.33900002E+02 -0.18145E+00
 0.33950001E+02 -0.27316E+00
 0.34000000E+02 -0.35229E+00
 0.34049999E+02 -0.33560E+00
 0.34100002E+02 -0.19651E+00
 0.34150002E+02 -0.55768E-01
 0.34200001E+02  0.59745E-01
 0.34250000E+02  0.14915E+00
 0.34299999E+02  0.13883E+00
 0.34350002E+02  0.32472E-01
 0.34400002E+02  0.48203E-01
 0.34450001E+02  0.79499E-01
 0.34500000E+02 -0.11430E-01
 0.34549999E+02 -0.11747E+00
 0.34600002E+02 -0.13291E+00
 0.34650002E+02 -0.16975E+00
 0.34700001E+02 -0.24634E+00
 0.34750000E+02 -0.20428E+00
 0.34799999E+02 -0.99204E-01
 0.34850002E+02 -0.33029E-01
 0.34900002E+02 -0.31936E-01
 0.34950001E+02 -0.47742E-01
 0.35000000E+02  0.14770E+00
 0.35049999E+02  0.39045E+00
 0.35100002E+02  0.40393E+00
 0.35150002E+02  0.33055E+00
 0.35200001E+02  0.22401E+00
 0.35250000E+02  0.11243E+00
 0.35299999E+02  0.58173E-01
 0.35350002E+02  0.39264E-01
 0.35400002E+02 -0.13829E-01
 0.35450001E+02 -0.12740E+00
 0.35500000E+02 -0.21724E+00
 0.35549999E+02 -0.24173E+00
 0.35600002E+02 -0.18320E+00
 0.35650002E+02 -0.46057E-01
 0.35700001E+02 -0.95020E-01
 0.35750000E+02 -0.21406E+00
 0.35799999E+02 -0.11515E+00
 0.35850002E+02  0.37766E-01
 0.35900002E+02  0.16191E+00
 0.35950001E+02  0.24360E+00
 0.36000000E+02  0.26804E+00
 0.36049999E+02  0.18283E+00
 0.36100002E+02 -0.27910E-01
 0.36150002E+02 -0.13338E+00
 0.36200001E+02 -0.10408E+00
 0.36250000E+02 -0.12155E-01
 0.36299999E+02  0.67684E-01
 0.36350002E+02  0.64589E-01
 0.36400002E+02  0.65274E-01
 0.36450001E+02  0.75515E-01
 0.36500000E+02  0.11198E+00
 0.36549999E+02  0.18126E+00
 0.36600002E+02  0.18308E+00
 0.36650002E+02  0.15301E+00
 0.36700001E+02  0.86805E-01
 0.36750000E+02 -0.43004E-01
 0.36799999E+02 -0.15105E+00
 0.36850002E+02 -0.24012E+00
 0.36900002E+02 -0.20266E+00
 0.36950001E+02 -0.23032E-01
 0.37000000E+02  0.11027E+00
 0.37049999E+02  0.16109E+00
 0.37100002E+02  0.13725E+00
 0.37150002E+02  0.53885E-01
 0.37200001E+02  0.62596E-01
 0.37250000E+02  0.15322E+00
 0.37299999E+02  0.21405E+00
 0.37350002E+02  0.20981E+00
 0.37400002E+02  0.11509E+00
 0.37450001E+02 -0.54338E-01
 0.37500000E+02 -0.22908E+00
 0.37549999E+02 -0.29619E+00
 0.37600002E+02 -0.26994E+00
 0.37650002E+02 -0.22297E+00
 0.37700001E+02 -0.16852E+00
 0.37750000E+02 -0.85425E-01
 0.37799999E+02  0.69479E-01
 0.37850002E+02  0.15371E+00
 0.37900002E+02  0.99378E-01
 0.37950001E+02  0.50155E-01
 0.38000000E+02 -0.11790E-01
 0.38049999E+02 -0.75715E-01
 0.38100002E+02 -0.89793E-01
 0.38150002E+02 -0.44654E-01
 0.38200001E+02  0.41975E-01
 0.38250000E+02  0.11196E+00
 0.38299999E+02  0.11233E+00
 0.38350002E+02  0.52938E-01
 0.38400002E+02 -0.10775E-01
 0.38450001E+02 -0.56155E-01
 0.38500000E+02 -0.85040E-01
 0.38549999E+02 -0.75994E-01
 0.38600002E+02 -0.71775E-02
 0.38650002E+02  0.70424E-01
 0.38700001E+02  0.11405E+00
 0.38750000E+02  0.78950E-01
 0.38799999E+02  0.50002E-02
 0.38850002E+02 -0.92992E-01
 0.38900002E+02 -0.15681E+00
 0.38950001E+02 -0.78429E-01
 0.39000000E+02  0.28827E-01
 0.39049999E+02  0.90300E-01
 0.39100002E+02  0.60419E-01
 0.39150002E+02 -0.59591E-01
 0.39200001E+02 -0.17576E+00
 0.39250000E+02 -0.20892E+00
 0.39299999E+02 -0.10152E+00
 0.39350002E+02  0.41867E-01
 0.39400002E+02  0.14793E+00
 0.39450001E+02  0.22740E+00
 0.39500000E+02  0.26324E+00
 0.39549999E+02  0.23932E+00
 0.39600002E+02  0.19161E+00
 0.39650002E+02  0.14456E+00
 0.39700001E+02  0.68921E-01
 0.39750000E+02  0.13864E-02
 0.39799999E+02 -0.52317E-01
 0.39850002E+02 -0.85005E-01
 0.39900002E+02 -0.69973E-01
 0.39950001E+02 -0.80432E-01
 0.40000000E+02 -0.11086E+00
 0.40049999E+02 -0.10113E+00
 0.40100002E+02 -0.92970E-01
 0.40150002E+02 -0.13111E+00
 0.40200001E+02 -0.16018E+00
 0.40250000E+02 -0.10673E+00
 0.40299999E+02 -0.11224E-01
 0.40350002E+02  0.45131E-01
 0.40400002E+02  0.42526E-01
 0.40450001E+02  0.16127E-01
 0.40500000E+02  0.51270E-01
 0.40549999E+02  0.15779E+00
 0.40600002E+02  0.19626E+00
 0.40650002E+02  0.13552E+00
 0.40700001E+02  0.47623E-01
 0.40750000E+02 -0.68121E-01
 0.40799999E+02 -0.15294E+00
 0.40850002E+02 -0.14944E+00
 0.40900002E+02 -0.10901E+00
 0.40950001E+02 -0.70158E-01
 0.41000000E+02 -0.30489E-01
 0.41049999E+02  0.46220E-02
 0.41100002E+02 -0.15197E-02
 0.41150002E+02 -0.27897E-01
 0.41200001E+02 -0.52140E-01
 0.41250000E+02 -0.65261E-01
 0.41299999E+02 -0.48747E-01
 0.41350002E+02 -0.19115E-01
 0.41400002E+02  0.13327E-01
 0.41450001E+02  0.51993E-01
 0.41500000E+02  0.12067E+00
 0.41549999E+02  0.15909E+00
 0.41600002E+02  0.14195E+00
 0.41650002E+02  0.99448E-01
 0.41700001E+02  0.42231E-01
 0.41750000E+02 -0.27155E-01
 0.41799999E+02 -0.78195E-01
 0.41850002E+02 -0.72235E-01
 0.41900002E+02 -0.54185E-01
 0.41950001E+02 -0.55342E-01
 0.42000000E+02 -0.54625E-01
 0.42049999E+02 -0.77439E-01
 0.42100002E+02 -0.96772E-01
 0.42150002E+02 -0.85525E-01
 0.42200001E+02 -0.53836E-01
 0.42250000E+02  0.36563E-01
 0.42299999E+02  0.12627E+00
 0.42350002E+02  0.15355E+00
 0.42400002E+02  0.11892E+00
 0.42450001E+02  0.57521E-01
 0.42500000E+02  0.10499E-01
 0.42549999E+02  0.34028E-02
 0.42600002E+02  0.14764E-01
 0.42650002E+02  0.14445E-01
 0.42700001E+02 -0.66741E-02
 0.42750000E+02 -0.51322E-01
 0.42799999E+02 -0.93461E-01
 0.42850002E+02 -0.12469E+00
 0.42900002E+02 -0.12717E+00
 0.42950001E+02 -0.78275E-01
 0.43000000E+02 -0.15075E-02
 0.43049999E+02  0.83718E-01
 0.43100002E+02  0.15391E+00
 0.43150002E+02  0.17131E+00
 0.43200001E+02  0.15717E+00
 0.43250000E+02  0.11963E+00
 0.43299999E+02  0.55278E-01
 0.43350002E+02 -0.54805E-02
 0.43400002E+02 -0.55496E-01
 0.43450001E+02 -0.71744E-01
 0.43500000E+02 -0.60431E-01
 0.43549999E+02 -0.64882E-01
 0.43600002E+02 -0.38770E-01
 0.43650002E+02  0.13966E-01
 0.43700001E+02  0.33644E-01
 0.43750000E+02  0.48842E-01
 0.43799999E+02  0.54692E-01
 0.43850002E+02  0.12075E-01
 0.43900002E+02 -0.82118E-01
 0.43950001E+02 -0.15741E+00
 0.44000000E+02 -0.17273E+00
 0.44049999E+02 -0.12506E+00
 0.44100002E+02 -0.41979E-01
 0.44150002E+02  0.25698E-01
 0.44200001E+02  0.62531E-01
 0.44250000E+02  0.40554E-01
 0.44299999E+02 -0.25584E-01
 0.44350002E+02 -0.74890E-01
 0.44400002E+02 -0.63854E-01
 0.44450001E+02 -0.38029E-01
 0.44500000E+02  0.84579E-02
 0.44549999E+02  0.68195E-01
 0.44600002E+02  0.77722E-01
 0.44650002E+02  0.47618E-01
 0.44700001E+02  0.44961E-01
 0.44750000E+02  0.96440E-01
 0.44799999E+02  0.15237E+00
 0.44850002E+02  0.15713E+00
 0.44900002E+02  0.67338E-01
 0.44950001E+02 -0.49124E-01
 0.45000000E+02 -0.10344E+00
 0.45049999E+02 -0.96822E-01
 0.45100002E+02 -0.82594E-01
 0.45150002E+02 -0.94385E-01
 0.45200001E+02 -0.96632E-01
 0.45250000E+02 -0.62560E-01
 0.45299999E+02 -0.20540E-01
 0.45350002E+02  0.15967E-01
 0.45400002E+02  0.42084E-01
 0.45450001E+02  0.73944E-01
 0.45500000E+02  0.12399E+00
 0.45549999E+02  0.14185E+00
 0.45600002E+02  0.13188E+00
 0.45650002E+02  0.10303E+00
 0.45700001E+02  0.88530E-01
 0.45750000E+02  0.89771E-01
 0.45799999E+02  0.43966E-01
 0.45850002E+02 -0.88220E-02
 0.45900002E+02 -0.12174E-01
 0.45950001E+02  0.20342E-01
 0.46000000E+02  0.46280E-01
 0.46049999E+02  0.44846E-01
 0.46100002E+02  0.27451E-01
 0.46150002E+02 -0.47744E-02
 0.46200001E+02 -0.79794E-01
 0.46250000E+02 -0.16895E+00
 0.46299999E+02 -0.20260E+00
 0.46350002E+02 -0.19912E+00
 0.46400002E+02 -0.16863E+00
 0.46450001E+02 -0.10473E+00
 0.46500000E+02 -0.44844E-01
 0.46549999E+02 -0.22262E-03
 0.46600002E+02  0.40501E-01
 0.46650002E+02  0.75289E-01
 0.46700001E+02  0.78096E-01
 0.46750000E+02  0.64585E-01
 0.46799999E+02  0.46265E-01
 0.46850002E+02  0.28280E-01
 0.46900002E+02  0.30899E-01
 0.46950001E+02  0.38593E-01
 0.47000000E+02  0.45661E-01
 0.47049999E+02  0.54729E-01
 0.47100002E+02  0.21615E-01
 0.47150002E+02 -0.28327E-01
 0.47200001E+02 -0.38175E-01
 0.47250000E+02 -0.23477E-01
 0.47299999E+02 -0.97439E-03
 0.47350002E+02 -0.85210E-02
 0.47400002E+02 -0.63506E-01
 0.47450001E+02 -0.10193E+00
 0.47500000E+02 -0.10048E+00
 0.47549999E+02 -0.83273E-01
 0.47600002E+02 -0.49963E-01
 0.47650002E+02 -0.84905E-02
 0.47700001E+02  0.31571E-01
 0.47750000E+02  0.58286E-01
 0.47799999E+02  0.50701E-01
 0.47850002E+02 -0.37862E-02
 0.47900002E+02 -0.56741E-01
 0.47950001E+02 -0.49460E-01
 0.48000000E+02 -0.11691E-02
 0.48049999E+02  0.54046E-01
 0.48100002E+02  0.97573E-01
 0.48150002E+02  0.11754E+00
 0.48200001E+02  0.11969E+00
 0.48250000E+02  0.10848E+00
 0.48299999E+02  0.72619E-01
 0.48350002E+02  0.69229E-02
 0.48400002E+02 -0.55305E-01
 0.48450001E+02 -0.79782E-01
 0.48500000E+02 -0.61903E-01
 0.48549999E+02 -0.17010E-01
 0.48600002E+02  0.25579E-01
 0.48650002E+02  0.51712E-01
 0.48700001E+02  0.57754E-01
 0.48750000E+02  0.29100E-01
 0.48799999E+02 -0.32632E-01
 0.48850002E+02 -0.92656E-01
 0.48900002E+02 -0.11716E+00
 0.48950001E+02 -0.91250E-01
 0.49000000E+02 -0.39665E-01
 0.49049999E+02  0.67521E-02
 0.49100002E+02  0.45379E-01
 0.49150002E+02  0.45033E-01
 0.49200001E+02  0.31160E-01
 0.49250000E+02  0.10541E-01
 0.49299999E+02 -0.39861E-01
 0.49350002E+02 -0.67032E-01
 0.49400002E+02 -0.41433E-01
 0.49450001E+02 -0.56932E-03
 0.49500000E+02  0.35991E-01
 0.49549999E+02  0.62482E-01
 0.49600002E+02  0.59742E-01
 0.49650002E+02  0.44060E-01
 0.49700001E+02  0.17915E-01
 0.49750000E+02 -0.77019E-02
 0.49799999E+02 -0.23002E-01
 0.49850002E+02 -0.56785E-01
 0.49900002E+02 -0.10800E+00
 0.49950001E+02 -0.14097E+00
 0.50000000E+02 -0.12159E+00
 0.50049999E+02 -0.53744E-01
 0.50100002E+02  0.94958E-02
 0.50150002E+02  0.48815E-01
 0.50200001E+02  0.50829E-01
 0.50250000E+02  0.14051E-01
 0.50299999E+02 -0.19597E-01
 0.50350002E+02 -0.31445E-01
 0.50400002E+02 -0.18284E-01
 0.50450001E+02 -0.29337E-02
 0.50500000E+02 -0.86144E-02
 0.50549999E+02 -0.14996E-01
 0.50600002E+02 -0.13608E-01
 0.50650002E+02 -0.94776E-02
 0.50700001E+02  0.21536E-01
 0.50750000E+02  0.64467E-01
 0.50799999E+02  0.85200E-01
 0.50850002E+02  0.80022E-01
 0.50900002E+02  0.51674E-01
 0.50950001E+02  0.19303E-01
 0.51000000E+02 -0.19653E-02
 0.51049999E+02 -0.88518E-02
 0.51100002E+02 -0.27933E-02
 0.51150002E+02  0.84662E-02
 0.51200001E+02  0.20828E-01
 0.51250000E+02  0.44244E-01
 0.51299999E+02  0.65889E-01
 0.51350002E+02  0.66889E-01
 0.51400002E+02  0.50429E-01
 0.51450001E+02  0.15325E-01
 0.51500000E+02 -0.22505E-01
 0.51549999E+02 -0.40086E-01
 0.51600002E+02 -0.37180E-01
 0.51650002E+02 -0.28332E-01
 0.51700001E+02 -0.34536E-01
 0.51750000E+02 -0.56071E-01
 0.51799999E+02 -0.78652E-01
 0.51850002E+02 -0.87171E-01
 0.51900002E+02 -0.66814E-01
 0.51950001E+02 -0.18975E-01
 0.52000000E+02  0.44318E-01
 0.52049999E+02  0.10038E+00
 0.52100002E+02  0.11195E+00
 0.52150002E+02  0.80342E-01
 0.52200001E+02  0.39977E-01
 0.52250000E+02  0.64387E-02
 0.52299999E+02 -0.46989E-02
 0.52350002E+02 -0.38584E-02
 0.52400002E+02 -0.18665E-01
 0.52450001E+02 -0.40769E-01
 0.52500000E+02 -0.63384E-01
 0.52549999E+02 -0.68101E-01
 0.52600002E+02 -0.34733E-01
 0.52650002E+02  0.15748E-01
 0.52700001E+02  0.62058E-01
 0.52750000E+02  0.84899E-01
 0.52799999E+02  0.64857E-01
 0.52850002E+02  0.23998E-01
 0.52900002E+02 -0.54309E-03
 0.52950001E+02 -0.29233E-02
 0.53000000E+02  0.12898E-02
 0.53049999E+02 -0.14106E-01
 0.53100002E+02 -0.38657E-01
 0.53150002E+02 -0.60075E-01
 0.53200001E+02 -0.68982E-01
 0.53250000E+02 -0.55053E-01
 0.53299999E+02 -0.40450E-01
 0.53350002E+02 -0.27017E-01
 0.53400002E+02  0.26311E-02
 0.53450001E+02  0.41022E-01
 0.53500000E+02  0.77747E-01
 0.53549999E+02  0.95386E-01
 0.53600002E+02  0.81035E-01
 0.53650002E+02  0.55259E-01
 0.53700001E+02  0.30872E-01
 0.53750000E+02  0.16066E-01
 0.53799999E+02  0.98970E-02
 0.53850002E+02  0.79085E-02
 0.53900002E+02  0.79636E-02
 0.53950001E+02  0.12477E-01
 0.54000000E+02  0.20510E-01
 0.54049999E+02  0.21521E-01
 0.54100002E+02  0.77530E-02
 0.54150002E+02 -0.16829E-01
 0.54200001E+02 -0.34568E-01
 0.54250000E+02 -0.44820E-01
 0.54299999E+02 -0.43697E-01
 0.54350002E+02 -0.29110E-01
 0.54400002E+02 -0.72452E-02
 0.54450001E+02  0.63906E-02
 0.54500000E+02 -0.23242E-02
 0.54549999E+02 -0.23350E-01
 0.54600002E+02 -0.38746E-01
 0.54650002E+02 -0.42971E-01
 0.54700001E+02 -0.39868E-01
 0.54750000E+02 -0.26423E-01
 0.54799999E+02 -0.55228E-02
 0.54850002E+02  0.12630E-01
 0.54900002E+02  0.11455E-01
 0.54950001E+02 -0.15256E-01
 0.55000000E+02 -0.50436E-01
 0.55049999E+02 -0.74604E-01
 0.55100002E+02 -0.78194E-01
 0.55150002E+02 -0.65891E-01
 0.55200001E+02 -0.50798E-01
 0.55250000E+02 -0.31964E-01
 0.55299999E+02 -0.41478E-02
 0.55350002E+02  0.28540E-01
 0.55400002E+02  0.60055E-01
 0.55450001E+02  0.80912E-01
 0.55500000E+02  0.81577E-01
 0.55549999E+02  0.67023E-01
 0.55600002E+02  0.48724E-01
 0.55650002E+02  0.39601E-01
 0.55700001E+02  0.40542E-01
 0.55750000E+02  0.45670E-01
 0.55799999E+02  0.47904E-01
 0.55850002E+02  0.40594E-01
 0.55900002E+02  0.39579E-01
 0.55950001E+02  0.34242E-01
 0.56000000E+02  0.90239E-02
 0.56049999E+02 -0.20920E-01
 0.56100002E+02 -0.44850E-01
 0.56150002E+02 -0.60785E-01
 0.56200001E+02 -0.68656E-01
 0.56250000E+02 -0.74327E-01
 0.56299999E+02 -0.80968E-01
 0.56350002E+02 -0.82540E-01
 0.56400002E+02 -0.69060E-01
 0.56450001E+02 -0.46745E-01
 0.56500000E+02 -0.17038E-01
 0.56549999E+02  0.22911E-01
 0.56600002E+02  0.60453E-01
 0.56650002E+02  0.98953E-01
 0.56700001E+02  0.13154E+00
 0.56750000E+02  0.13341E+00
 0.56799999E+02  0.10350E+00
 0.56850002E+02  0.55348E-01
 0.56900002E+02  0.35753E-02
 0.56950001E+02 -0.28507E-01
 0.57000000E+02 -0.51574E-01
 0.57049999E+02 -0.69564E-01
 0.57100002E+02 -0.72743E-01
 0.57150002E+02 -0.63318E-01
 0.57200001E+02 -0.46248E-01
 0.57250000E+02 -0.27892E-01
 0.57299999E+02 -0.27212E-02
 0.57350002E+02  0.13940E-01
 0.57400002E+02  0.21722E-01
 0.57450001E+02  0.31351E-01
 0.57500000E+02  0.35355E-01
 0.57549999E+02  0.33132E-01
 0.57600002E+02  0.28701E-01
 0.57650002E+02  0.21366E-01
 0.57700001E+02  0.99025E-02
 0.57750000E+02 -0.14653E-02
 0.57799999E+02 -0.52458E-02
 0.57850002E+02 -0.59067E-02
 0.57900002E+02 -0.13151E-01
 0.57950001E+02 -0.19710E-01
 0.58000000E+02 -0.18288E-01
 0.58049999E+02 -0.80538E-02
 0.58100002E+02 -0.76868E-04
 0.58150002E+02 -0.16474E-02
 0.58200001E+02 -0.36059E-02
 0.58250000E+02  0.13608E-02
 0.58299999E+02  0.59303E-02
 0.58350002E+02  0.22082E-02
 0.58400002E+02 -0.36995E-02
 0.58450001E+02 -0.18919E-01
 0.58500000E+02 -0.40864E-01
 0.58549999E+02 -0.50455E-01
 0.58600002E+02 -0.48646E-01
 0.58650002E+02 -0.38776E-01
 0.58700001E+02 -0.24014E-01
 0.58750000E+02 -0.99330E-02
 0.58799999E+02  0.57726E-02
 0.58850002E+02  0.16928E-01
 0.58900002E+02  0.23899E-01
 0.58950001E+02  0.28510E-01
 0.59000000E+02  0.23402E-01
 0.59049999E+02  0.19397E-01
 0.59100002E+02  0.22122E-01
 0.59150002E+02  0.21076E-01
 0.59200001E+02  0.18389E-01
 0.59250000E+02  0.10112E-01
 0.59299999E+02 -0.75979E-02
 0.59350002E+02 -0.20485E-01
 0.59400002E+02 -0.28852E-01
 0.59450001E+02 -0.32954E-01
 0.59500000E+02 -0.36985E-01
 0.59549999E+02 -0.44831E-01
 0.59600002E+02 -0.46994E-01
 0.59650002E+02 -0.45742E-01
 0.59700001E+02 -0.34435E-01
 0.59750000E+02 -0.12409E-01
 0.59799999E+02  0.11168E-01
 0.59850002E+02  0.36199E-01
 0.59900002E+02  0.59662E-01
 0.59950001E+02  0.70229E-01
 0.60000000E+02  0.59399E-01
 0.60049999E+02  0.44834E-01
 0.60100002E+02  0.38230E-01
 0.60150002E+02  0.28581E-01
 0.60200001E+02  0.80400E-02
 0.60250000E+02 -0.12569E-01
 0.60299999E+02 -0.23119E-01
 0.60350002E+02 -0.25309E-01
 0.60400002E+02 -0.21385E-01
 0.60450001E+02 -0.17929E-01
 0.60500000E+02 -0.12076E-01
 0.60549999E+02 -0.21613E-02
 0.60600002E+02  0.48295E-02
 0.60650002E+02  0.12447E-01
 0.60700001E+02  0.19002E-01
 0.60750000E+02  0.27448E-01
 0.60799999E+02  0.38738E-01
 0.60850002E+02  0.36201E-01
 0.60900002E+02  0.27407E-01
 0.60950001E+02  0.11276E-01
 0.61000000E+02 -0.12294E-01
 0.61049999E+02 -0.21906E-01
 0.61100002E+02 -0.17864E-01
 0.61150002E+02 -0.12854E-01
 0.61200001E+02 -0.10595E-01
 0.61250000E+02 -0.91801E-02
 0.61299999E+02 -0.79498E-02
 0.61350002E+02 -0.61161E-02
 0.61400002E+02 -0.81060E-02
 0.61450001E+02 -0.13562E-01
 0.61500000E+02 -0.15964E-01
 0.61549999E+02 -0.21131E-01
 0.61600002E+02 -0.19994E-01
 0.61650002E+02 -0.76810E-02
 0.61700001E+02 -0.13775E-02
 0.61750000E+02 -0.73615E-02
 0.61799999E+02 -0.25232E-01
 0.61850002E+02 -0.39525E-01
 0.61900002E+02 -0.38097E-01
 0.61950001E+02 -0.27741E-01
 0.62000000E+02 -0.14343E-01
 0.62049999E+02 -0.64962E-02
 0.62100002E+02 -0.70474E-03
 0.62150002E+02  0.92584E-02
 0.62200001E+02  0.17676E-01
 0.62250000E+02  0.17584E-01
 0.62299999E+02  0.12194E-01
 0.62350002E+02  0.21805E-02
 0.62400002E+02 -0.18987E-01
 0.62450001E+02 -0.40974E-01
 0.62500000E+02 -0.56184E-01
 0.62549999E+02 -0.63024E-01
 0.62600002E+02 -0.55286E-01
 0.62650002E+02 -0.36207E-01
 0.62700001E+02 -0.14870E-01
 0.62750000E+02  0.18176E-02
 0.62799999E+02  0.13494E-01
 0.62850002E+02  0.27346E-01
 0.62900002E+02  0.36944E-01
 0.62950001E+02  0.34835E-01
 0.63000000E+02  0.28788E-01
 0.63049999E+02  0.21445E-01
 0.63100002E+02  0.12770E-01
 0.63150002E+02  0.12903E-01
 0.63200001E+02  0.21456E-01
 0.63250000E+02  0.34479E-01
 0.63299999E+02  0.41485E-01
 0.63350002E+02  0.38034E-01
 0.63400002E+02  0.32144E-01
 0.63450001E+02  0.27584E-01
 0.63500000E+02  0.25426E-01
 0.63549999E+02  0.24464E-01
 0.63600002E+02  0.18148E-01
 0.63650002E+02  0.53954E-02
 0.63700001E+02 -0.81154E-02
 0.63750000E+02 -0.20935E-01
 0.63799999E+02 -0.21164E-01
 0.63850002E+02 -0.14511E-01
 0.63900002E+02 -0.77684E-02
 0.63950001E+02 -0.20551E-02
 0.64000000E+02 -0.64357E-03
 0.64050003E+02 -0.85618E-03
 0.64099998E+02 -0.23634E-02
 0.64150002E+02 -0.77104E-02
 0.64200005E+02 -0.12023E-01
 0.64250000E+02 -0.83316E-02
 0.64300003E+02 -0.17425E-03
 0.64349998E+02  0.57484E-02
 0.64400002E+02  0.53858E-02
 0.64450005E+02  0.30881E-02
 0.64500000E+02 -0.21162E-02
 0.64550003E+02 -0.11269E-01
 0.64599998E+02 -0.17038E-01
 0.64650002E+02 -0.19193E-01
 0.64700005E+02 -0.21672E-01
 0.64750000E+02 -0.22418E-01
 0.64800003E+02 -0.17894E-01
 0.64849998E+02 -0.10670E-01
 0.64900002E+02  0.35938E-02
 0.64950005E+02  0.23994E-01
 0.65000000E+02  0.36232E-01
 0.65050003E+02  0.40303E-01
 0.65099998E+02  0.34431E-01
 0.65150002E+02  0.18611E-01
 0.65200005E+02  0.27600E-02
 0.65250000E+02 -0.26067E-02
 0.65300003E+02  0.77407E-03
 0.65349998E+02  0.40226E-02
 0.65400002E+02  0.77948E-02
 0.65450005E+02  0.12814E-01
 0.65500000E+02  0.14224E-01
 0.65550003E+02  0.87354E-02
 0.65599998E+02  0.25023E-02
 0.65650002E+02 -0.64599E-02
 0.65700005E+02 -0.16342E-01
 0.65750000E+02 -0.23048E-01
 0.65800003E+02 -0.24418E-01
 0.65849998E+02 -0.19075E-01
 0.65900002E+02 -0.15920E-01
 0.65950005E+02 -0.18200E-01
 0.66000000E+02 -0.25800E-01
 0.66050003E+02 -0.27492E-01
 0.66099998E+02 -0.17698E-01
 0.66150002E+02 -0.13867E-02
 0.66200005E+02  0.17802E-01
 0.66250000E+02  0.34265E-01
 0.66300003E+02  0.44302E-01
 0.66349998E+02  0.48504E-01
 0.66400002E+02  0.50943E-01
 0.66450005E+02  0.46837E-01
 0.66500000E+02  0.34006E-01
 0.66550003E+02  0.16639E-01
 0.66599998E+02 -0.35558E-02
 0.66650002E+02 -0.23018E-01
 0.66700005E+02 -0.34433E-01
 0.66750000E+02 -0.35808E-01
 0.66800003E+02 -0.28785E-01
 0.66849998E+02 -0.20395E-01
 0.66900002E+02 -0.18910E-01
 0.66950005E+02 -0.21675E-01
 0.67000000E+02 -0.28996E-01
 0.67050003E+02 -0.35977E-01
 0.67099998E+02 -0.36069E-01
 0.67150002E+02 -0.28611E-01
 0.67200005E+02 -0.11894E-01
 0.67250000E+02  0.39440E-02
 0.67300003E+02  0.10855E-01
 0.67349998E+02  0.11590E-01
 0.67400002E+02  0.12084E-01
 0.67450005E+02  0.23190E-01
 0.67500000E+02  0.37657E-01
 0.67550003E+02  0.48700E-01
 0.67599998E+02  0.54715E-01
 0.67650002E+02  0.47743E-01
 0.67700005E+02  0.31366E-01
 0.67750000E+02  0.13712E-01
 0.67800003E+02 -0.27541E-02
 0.67849998E+02 -0.18603E-01
 0.67900002E+02 -0.30571E-01
 0.67950005E+02 -0.34176E-01
 0.68000000E+02 -0.30946E-01
 0.68050003E+02 -0.24114E-01
 0.68099998E+02 -0.16362E-01
 0.68150002E+02 -0.58916E-02
 0.68200005E+02  0.47345E-02
 0.68250000E+02  0.90457E-02
 0.68300003E+02  0.12123E-01
 0.68349998E+02  0.13612E-01
 0.68400002E+02  0.14539E-01
 0.68450005E+02  0.16601E-01
 0.68500000E+02  0.17800E-01
 0.68550003E+02  0.18368E-01
 0.68599998E+02  0.24793E-01
 0.68650002E+02  0.35746E-01
 0.68700005E+02  0.44391E-01
 0.68750000E+02  0.47053E-01
 0.68800003E+02  0.38437E-01
 0.68849998E+02  0.22294E-01
 0.68900002E+02  0.34784E-02
 0.68950005E+02 -0.12940E-01
 0.69000000E+02 -0.20836E-01
 0.69050003E+02 -0.22001E-01
 0.69099998E+02 -0.18466E-01
 0.69150002E+02 -0.15627E-01
 0.69200005E+02 -0.15688E-01
 0.69250000E+02 -0.13324E-01
 0.69300003E+02 -0.12897E-01
 0.69349998E+02 -0.17915E-01
 0.69400002E+02 -0.28770E-01
 0.69450005E+02 -0.40651E-01
 0.69500000E+02 -0.43940E-01
 0.69550003E+02 -0.35553E-01
 0.69599998E+02 -0.23961E-01
 0.69650002E+02 -0.99124E-02
 0.69700005E+02  0.57737E-02
 0.69750000E+02  0.12132E-01
 0.69800003E+02  0.88396E-02
 0.69849998E+02  0.38954E-02
 0.69900002E+02  0.54607E-02
 0.69950005E+02  0.83105E-02
 0.70000000E+02  0.82874E-02
 0.70050003E+02  0.28844E-02
 0.70099998E+02 -0.59855E-02
 0.70150002E+02 -0.17636E-01
 0.70200005E+02 -0.31115E-01
 0.70250000E+02 -0.34338E-01
 0.70300003E+02 -0.28286E-01
 0.70349998E+02 -0.16753E-01
 0.70400002E+02 -0.32662E-02
 0.70450005E+02  0.84489E-02
 0.70500000E+02  0.15744E-01
 0.70550003E+02  0.19861E-01
 0.70599998E+02  0.23518E-01
 0.70650002E+02  0.28273E-01
 0.70700005E+02  0.32197E-01
 0.70750000E+02  0.34916E-01
 0.70800003E+02  0.38123E-01
 0.70849998E+02  0.41053E-01
 0.70900002E+02  0.43665E-01
 0.70950005E+02  0.41813E-01
 0.71000000E+02  0.34315E-01
 0.71050003E+02  0.20853E-01
 0.71099998E+02  0.69248E-02
 0.71150002E+02 -0.16635E-02
 0.71200005E+02 -0.88455E-02
 0.71250000E+02 -0.18442E-01
 0.71300003E+02 -0.29605E-01
 0.71349998E+02 -0.41945E-01
 0.71400002E+02 -0.50584E-01
 0.71450005E+02 -0.50539E-01
 0.71500000E+02 -0.43852E-01
 0.71550003E+02 -0.30689E-01
 0.71599998E+02 -0.14771E-01
 0.71650002E+02 -0.33043E-02
 0.71700005E+02  0.27713E-02
 0.71750000E+02  0.41180E-02
 0.71800003E+02 -0.22905E-03
 0.71849998E+02 -0.72543E-02
 0.71900002E+02 -0.10437E-01
 0.71950005E+02 -0.65336E-02
 0.72000000E+02 -0.14726E-02
 0.72050003E+02  0.35990E-02
 0.72099998E+02  0.13414E-01
 0.72150002E+02  0.24400E-01
 0.72200005E+02  0.29404E-01
 0.72250000E+02  0.23753E-01
 0.72300003E+02  0.50531E-02
 0.72349998E+02 -0.19564E-01
 0.72400002E+02 -0.41569E-01
 0.72450005E+02 -0.56549E-01
 0.72500000E+02 -0.60214E-01
 0.72550003E+02 -0.53277E-01
 0.72599998E+02 -0.35978E-01
 0.72650002E+02 -0.14228E-01
 0.72700005E+02  0.26720E-02
 0.72750000E+02  0.12916E-01
 0.72800003E+02  0.19318E-01
 0.72849998E+02  0.20455E-01
 0.72900002E+02  0.15666E-01
 0.72950005E+02  0.98496E-02
 0.73000000E+02  0.37325E-02
 0.73050003E+02  0.12046E-02
 0.73099998E+02  0.27728E-02
 0.73150002E+02  0.32301E-02
 0.73200005E+02  0.58570E-02
 0.73250000E+02  0.12741E-01
 0.73300003E+02  0.23821E-01
 0.73349998E+02  0.31172E-01
 0.73400002E+02  0.29347E-01
 0.73450005E+02  0.22990E-01
 0.73500000E+02  0.12982E-01
 0.73550003E+02  0.62917E-02
 0.73599998E+02  0.19444E-02
 0.73650002E+02 -0.57011E-02
 0.73700005E+02 -0.12284E-01
 0.73750000E+02 -0.16687E-01
 0.73800003E+02 -0.17511E-01
 0.73849998E+02 -0.16028E-01
 0.73900002E+02 -0.14902E-01
 0.73950005E+02 -0.11903E-01
 0.74000000E+02 -0.85798E-02
 0.74050003E+02 -0.80745E-02
 0.74099998E+02 -0.74812E-02
 0.74150002E+02 -0.38990E-02
 0.74200005E+02  0.31909E-02
 0.74250000E+02  0.13607E-01
 0.74300003E+02  0.25041E-01
 0.74349998E+02  0.28562E-01
 0.74400002E+02  0.22958E-01
 0.74450005E+02  0.13070E-01
 0.74500000E+02  0.11758E-03
 0.74550003E+02 -0.10316E-01
 0.74599998E+02 -0.16251E-01
 0.74650002E+02 -0.18117E-01
 0.74700005E+02 -0.14394E-01
 0.74750000E+02 -0.44072E-02
 0.74800003E+02  0.98215E-02
 0.74849998E+02  0.24427E-01
 0.74900002E+02  0.32121E-01
 0.74950005E+02  0.31360E-01
 0.75000000E+02  0.25192E-01
 0.75050003E+02  0.14850E-01
 0.75099998E+02  0.24138E-02
 0.75150002E+02 -0.10197E-01
 0.75200005E+02 -0.17685E-01
 0.75250000E+02 -0.17377E-01
 0.75300003E+02 -0.11996E-01
 0.75349998E+02 -0.41373E-02
 0.75400002E+02  0.13257E-02
 0.75450005E+02  0.23382E-02
 0.75500000E+02 -0.18103E-02
 0.75550003E+02 -0.10102E-01
 0.75599998E+02 -0.21527E-01
 0.75650002E+02 -0.32684E-01
 0.75700005E+02 -0.39187E-01
 0.75750000E+02 -0.40364E-01
 0.75800003E+02 -0.31558E-01
 0.75849998E+02 -0.16933E-01
 0.75900002E+02 -0.32324E-02
 0.75950005E+02  0.59059E-02
 0.76000000E+02  0.75224E-02
 0.76050003E+02  0.46846E-02
 0.76099998E+02 -0.83764E-03
 0.76150002E+02 -0.75509E-02
 0.76200005E+02 -0.91294E-02
 0.76250000E+02 -0.40745E-02
 0.76300003E+02  0.49315E-02
 0.76349998E+02  0.13543E-01
 0.76400002E+02  0.18571E-01
 0.76450005E+02  0.20652E-01
 0.76500000E+02  0.19531E-01
 0.76550003E+02  0.13469E-01
 0.76599998E+02  0.41363E-02
 0.76650002E+02 -0.16157E-02
 0.76700005E+02 -0.64977E-02
 0.76750000E+02 -0.14582E-01
 0.76800003E+02 -0.19781E-01
 0.76849998E+02 -0.18210E-01
 0.76900002E+02 -0.12784E-01
 0.76950005E+02 -0.45823E-02
 0.77000000E+02  0.58168E-02
 0.77050003E+02  0.13956E-01
 0.77099998E+02  0.19052E-01
 0.77150002E+02  0.23217E-01
 0.77200005E+02  0.26430E-01
 0.77250000E+02  0.28235E-01
 0.77300003E+02  0.30343E-01
 0.77349998E+02  0.36811E-01
 0.77400002E+02  0.47298E-01
 0.77450005E+02  0.54754E-01
 0.77500000E+02  0.52750E-01
 0.77550003E+02  0.39930E-01
 0.77599998E+02  0.19105E-01
 0.77650002E+02 -0.67961E-02
 0.77700005E+02 -0.29979E-01
 0.77750000E+02 -0.43048E-01
 0.77800003E+02 -0.45845E-01
 0.77849998E+02 -0.40039E-01
 0.77900002E+02 -0.28036E-01
 0.77950005E+02 -0.11892E-01
 0.78000000E+02  0.70560E-02
 0.78050003E+02  0.24513E-01
 0.78099998E+02  0.30606E-01
 0.78150002E+02  0.25670E-01
 0.78200005E+02  0.14341E-01
 0.78250000E+02 -0.33864E-02
 0.78300003E+02 -0.18375E-01
 0.78349998E+02 -0.25829E-01
 0.78400002E+02 -0.26071E-01
 0.78450005E+02 -0.17827E-01
 0.78500000E+02 -0.73068E-02
 0.78550003E+02  0.17695E-02
 0.78599998E+02  0.93925E-02
 0.78650002E+02  0.13440E-01
 0.78700005E+02  0.16179E-01
 0.78750000E+02  0.14359E-01
 0.78800003E+02  0.66423E-02
 0.78849998E+02 -0.88214E-03
 0.78900002E+02 -0.69545E-02
 0.78950005E+02 -0.10084E-01
 0.79000000E+02 -0.96063E-02
 0.79050003E+02 -0.48239E-02
 0.79099998E+02  0.27428E-02
 0.79150002E+02  0.66902E-02
 0.79200005E+02  0.45837E-02
 0.79250000E+02  0.14973E-03
 0.79300003E+02 -0.42722E-02
 0.79349998E+02 -0.83479E-02
 0.79400002E+02 -0.11397E-01
 0.79450005E+02 -0.10945E-01
 0.79500000E+02 -0.49218E-02
 0.79550003E+02  0.30216E-02
 0.79599998E+02  0.11438E-01
 0.79650002E+02  0.19901E-01
 0.79700005E+02  0.24839E-01
 0.79750000E+02  0.20723E-01
 0.79800003E+02  0.76227E-02
 0.79849998E+02 -0.67145E-02
 0.79900002E+02 -0.15961E-01
 0.79950005E+02 -0.21255E-01
 0.80000000E+02 -0.22405E-01
 0.80050003E+02 -0.19828E-01
 0.80099998E+02 -0.19440E-01
 0.80150002E+02 -0.19404E-01
 0.80200005E+02 -0.18076E-01
 0.80250000E+02 -0.15267E-01
 0.80300003E+02 -0.11568E-01
 0.80349998E+02 -0.95355E-02
 0.80400002E+02 -0.85113E-02
 0.80450005E+02 -0.50138E-02
 0.80500000E+02  0.70102E-03
 0.80550003E+02  0.77350E-02
 0.80599998E+02  0.14013E-01
 0.80650002E+02  0.17926E-01
 0.80700005E+02  0.18910E-01
 0.80750000E+02  0.16427E-01
 0.80800003E+02  0.14683E-01
 0.80849998E+02  0.11711E-01
 0.80900002E+02  0.70847E-02
 0.80950005E+02  0.29316E-02
 0.81000000E+02  0.81742E-03
 0.81050003E+02  0.16151E-02
 0.81099998E+02  0.21914E-02
 0.81150002E+02  0.67628E-03
 0.81200005E+02 -0.33399E-02
 0.81250000E+02 -0.69058E-02
 0.81300003E+02 -0.91176E-02
 0.81349998E+02 -0.10754E-01
 0.81400002E+02 -0.10112E-01
 0.81450005E+02 -0.86559E-02
 0.81500000E+02 -0.60411E-02
 0.81550003E+02 -0.14406E-02
 0.81599998E+02  0.62265E-02
 0.81650002E+02  0.14854E-01
 0.81700005E+02  0.17230E-01
 0.81750000E+02  0.13246E-01
 0.81800003E+02  0.77838E-02
 0.81849998E+02  0.30669E-02
 0.81900002E+02  0.18512E-02
 0.81950005E+02  0.64127E-02
 0.82000000E+02  0.13420E-01
 0.82050003E+02  0.18215E-01
 0.82099998E+02  0.16870E-01
 0.82150002E+02  0.92881E-02
 0.82200005E+02 -0.15055E-03
 0.82250000E+02 -0.10439E-01
 0.82300003E+02 -0.21633E-01
 0.82349998E+02 -0.32040E-01
 0.82400002E+02 -0.38700E-01
 0.82450005E+02 -0.39059E-01
 0.82500000E+02 -0.35872E-01
 0.82550003E+02 -0.26860E-01
 0.82599998E+02 -0.13525E-01
 0.82650002E+02 -0.11344E-02
 0.82700005E+02  0.10538E-01
 0.82750000E+02  0.20089E-01
 0.82800003E+02  0.26501E-01
 0.82849998E+02  0.30447E-01
 0.82900002E+02  0.31453E-01
 0.82950005E+02  0.29635E-01
 0.83000000E+02  0.26240E-01
 0.83050003E+02  0.21592E-01
 0.83099998E+02  0.16797E-01
 0.83150002E+02  0.11288E-01
 0.83200005E+02  0.19178E-02
 0.83250000E+02 -0.10913E-01
 0.83300003E+02 -0.21526E-01
 0.83349998E+02 -0.29009E-01
 0.83400002E+02 -0.33275E-01
 0.83450005E+02 -0.33792E-01
 0.83500000E+02 -0.35361E-01
 0.83550003E+02 -0.38510E-01
 0.83599998E+02 -0.40987E-01
 0.83650002E+02 -0.41576E-01
 0.83700005E+02 -0.37066E-01
 0.83750000E+02 -0.30189E-01
 0.83800003E+02 -0.23764E-01
 0.83849998E+02 -0.16404E-01
 0.83900002E+02 -0.11280E-01
 0.83950005E+02 -0.11600E-01
 0.84000000E+02 -0.14645E-01
 0.84050003E+02 -0.15945E-01
 0.84099998E+02 -0.11548E-01
 0.84150002E+02 -0.99550E-03
 0.84200005E+02  0.80872E-02
 0.84250000E+02  0.14529E-01
 0.84300003E+02  0.21183E-01
 0.84349998E+02  0.24514E-01
 0.84400002E+02  0.24243E-01
 0.84450005E+02  0.22699E-01
 0.84500000E+02  0.20357E-01
 0.84550003E+02  0.17975E-01
 0.84599998E+02  0.17728E-01
 0.84650002E+02  0.20648E-01
 0.84700005E+02  0.27662E-01
 0.84750000E+02  0.34926E-01
 0.84800003E+02  0.37580E-01
 0.84849998E+02  0.35254E-01
 0.84900002E+02  0.28386E-01
 0.84950005E+02  0.18964E-01
 0.85000000E+02  0.11165E-01
 0.85050003E+02  0.80733E-02
 0.85099998E+02  0.96005E-02
 0.85150002E+02  0.12758E-01
 0.85200005E+02  0.14661E-01
 0.85250000E+02  0.16097E-01
 0.85300003E+02  0.15565E-01
 0.85349998E+02  0.11851E-01
 0.85400002E+02  0.54834E-02
 0.85450005E+02 -0.16069E-02
 0.85500000E+02 -0.60917E-02
 0.85550003E+02 -0.60268E-02
 0.85599998E+02 -0.27454E-02
 0.85650002E+02  0.26705E-02
 0.85700005E+02  0.10660E-01
 0.85750000E+02  0.17016E-01
 0.85800003E+02  0.19846E-01
 0.85849998E+02  0.19780E-01
 0.85900002E+02  0.14646E-01
 0.85950005E+02  0.56285E-02
 0.86000000E+02 -0.31138E-02
 0.86050003E+02 -0.10585E-01
 0.86099998E+02 -0.14524E-01
 0.86150002E+02 -0.13840E-01
 0.86200005E+02 -0.12281E-01
 0.86250000E+02 -0.11320E-01
 0.86300003E+02 -0.97983E-02
 0.86349998E+02 -0.76094E-02
 0.86400002E+02 -0.39433E-02
 0.86450005E+02  0.26056E-03
 0.86500000E+02  0.22129E-02
 0.86550003E+02  0.14408E-02
 0.86599998E+02 -0.29833E-02
 0.86650002E+02 -0.95985E-02
 0.86700005E+02 -0.15390E-01
 0.86750000E+02 -0.19759E-01
 0.86800003E+02 -0.21727E-01
 0.86849998E+02 -0.20487E-01
 0.86900002E+02 -0.17975E-01
 0.86950005E+02 -0.13885E-01
 0.87000000E+02 -0.68540E-02
 0.87050003E+02  0.19436E-02
 0.87099998E+02  0.11038E-01
 0.87150002E+02  0.17134E-01
 0.87200005E+02  0.18311E-01
 0.87250000E+02  0.15613E-01
 0.87300003E+02  0.99885E-02
 0.87349998E+02  0.46415E-02
 0.87400002E+02  0.21627E-02
 0.87450005E+02  0.23513E-02
 0.87500000E+02  0.32224E-02
 0.87550003E+02  0.23957E-02
 0.87599998E+02  0.30509E-03
 0.87650002E+02 -0.23135E-02
 0.87700005E+02 -0.48602E-02
 0.87750000E+02 -0.80346E-02
 0.87800003E+02 -0.11775E-01
 0.87849998E+02 -0.14559E-01
 0.87900002E+02 -0.15625E-01
 0.87950005E+02 -0.14127E-01
 0.88000000E+02 -0.12016E-01
 0.88050003E+02 -0.89516E-02
 0.88099998E+02 -0.46955E-02
 0.88150002E+02 -0.14957E-02
 0.88200005E+02 -0.52280E-03
 0.88250000E+02 -0.34233E-02
 0.88300003E+02 -0.11076E-01
 0.88349998E+02 -0.20314E-01
 0.88400002E+02 -0.27123E-01
 0.88450005E+02 -0.28435E-01
 0.88500000E+02 -0.23544E-01
 0.88550003E+02 -0.15532E-01
 0.88599998E+02 -0.64191E-02
 0.88650002E+02  0.20561E-02
 0.88700005E+02  0.95595E-02
 0.88750000E+02  0.14937E-01
 0.88800003E+02  0.16043E-01
 0.88849998E+02  0.12990E-01
 0.88900002E+02  0.84793E-02
 0.88950005E+02  0.52044E-02
 0.89000000E+02  0.50515E-02
 0.89050003E+02  0.82229E-02
 0.89099998E+02  0.11803E-01
 0.89150002E+02  0.12835E-01
 0.89200005E+02  0.10973E-01
 0.89250000E+02  0.74038E-02
 0.89300003E+02  0.44768E-02
 0.89349998E+02  0.41972E-02
 0.89400002E+02  0.59468E-02
 0.89450005E+02  0.75862E-02
 0.89500000E+02  0.10213E-01
 0.89550003E+02  0.12855E-01
 0.89599998E+02  0.14589E-01
 0.89650002E+02  0.17466E-01
 0.89700005E+02  0.19861E-01
 0.89750000E+02  0.21113E-01
 0.89800003E+02  0.21125E-01
 0.89849998E+02  0.20437E-01
 0.89900002E+02  0.19145E-01
 0.89950005E+02  0.16356E-01
 0.90000000E+02  0.12880E-01
 0.90050003E+02  0.11298E-01
 0.90099998E+02  0.11645E-01
 0.90150002E+02  0.10017E-01
 0.90200005E+02  0.61368E-02
 0.90250000E+02  0.22396E-02
 0.90300003E+02 -0.15172E-02
 0.90349998E+02 -0.58120E-02
 0.90400002E+02 -0.10989E-01
 0.90450005E+02 -0.16972E-01
 0.90500000E+02 -0.21604E-01
 0.90550003E+02 -0.24095E-01
 0.90599998E+02 -0.24782E-01
 0.90650002E+02 -0.22485E-01
 0.90700005E+02 -0.19036E-01
 0.90750000E+02 -0.17322E-01
 0.90800003E+02 -0.17921E-01
 0.90849998E+02 -0.17745E-01
 0.90900002E+02 -0.14966E-01
 0.90950005E+02 -0.11162E-01
 0.91000000E+02 -0.76638E-02
 0.91050003E+02 -0.73149E-02
 0.91099998E+02 -0.11769E-01
 0.91150002E+02 -0.17738E-01
 0.91200005E+02 -0.22884E-01
 0.91250000E+02 -0.27012E-01
 0.91300003E+02 -0.29923E-01
 0.91349998E+02 -0.32768E-01
 0.91400002E+02 -0.34457E-01
 0.91450005E+02 -0.32522E-01
 0.91500000E+02 -0.25916E-01
 0.91550003E+02 -0.15974E-01
 0.91599998E+02 -0.55466E-02
 0.91650002E+02  0.40046E-02
 0.91700005E+02  0.94615E-02
 0.91750000E+02  0.10465E-01
 0.91800003E+02  0.97951E-02
 0.91849998E+02  0.76278E-02
 0.91900002E+02  0.45750E-02
 0.91950005E+02  0.16193E-02
 0.92000000E+02 -0.16455E-02
 0.92050003E+02 -0.52382E-02
 0.92099998E+02 -0.68491E-02
 0.92150002E+02 -0.49437E-02
 0.92200005E+02  0.11723E-02
 0.92250000E+02  0.89485E-02
 0.92300003E+02  0.16940E-01
 0.92349998E+02  0.24690E-01
 0.92400002E+02  0.30227E-01
 0.92450005E+02  0.34672E-01
 0.92500000E+02  0.38137E-01
 0.92550003E+02  0.38380E-01
 0.92599998E+02  0.32184E-01
 0.92650002E+02  0.21739E-01
 0.92700005E+02  0.12043E-01
 0.92750000E+02  0.39251E-02
 0.92800003E+02 -0.15040E-02
 0.92849998E+02 -0.43118E-02
 0.92900002E+02 -0.55555E-02
 0.92950005E+02 -0.47092E-02
 0.93000000E+02 -0.25510E-02
 0.93050003E+02  0.12795E-02
 0.93099998E+02  0.65530E-02
 0.93150002E+02  0.10549E-01
 0.93200005E+02  0.13044E-01
 0.93250000E+02  0.14079E-01
 0.93300003E+02  0.13452E-01
 0.93349998E+02  0.13366E-01
 0.93400002E+02  0.14438E-01
 0.93450005E+02  0.16700E-01
 0.93500000E+02  0.18981E-01
 0.93550003E+02  0.18927E-01
 0.93599998E+02  0.17234E-01
 0.93650002E+02  0.15560E-01
 0.93700005E+02  0.14210E-01
 0.93750000E+02  0.12435E-01
 0.93800003E+02  0.11457E-01
 0.93849998E+02  0.12151E-01
 0.93900002E+02  0.13520E-01
 0.93950005E+02  0.13534E-01
 0.94000000E+02  0.10600E-01
 0.94050003E+02  0.42776E-02
 0.94099998E+02 -0.59187E-02
 0.94150002E+02 -0.17181E-01
 0.94200005E+02 -0.26577E-01
 0.94250000E+02 -0.33877E-01
 0.94300003E+02 -0.37689E-01
 0.94349998E+02 -0.37634E-01
 0.94400002E+02 -0.35611E-01
 0.94450005E+02 -0.31651E-01
 0.94500000E+02 -0.26340E-01
 0.94550003E+02 -0.20457E-01
 0.94599998E+02 -0.14500E-01
 0.94650002E+02 -0.10060E-01
 0.94700005E+02 -0.58598E-02
 0.94750000E+02 -0.14441E-02
 0.94800003E+02  0.22521E-02
 0.94849998E+02  0.54016E-02
 0.94900002E+02  0.76006E-02
 0.94950005E+02  0.87538E-02
 0.95000000E+02  0.89084E-02
 0.95050003E+02  0.70521E-02
 0.95099998E+02  0.44524E-02
 0.95150002E+02  0.34891E-02
 0.95200005E+02  0.43646E-02
 0.95250000E+02  0.63643E-02
 0.95300003E+02  0.71667E-02
 0.95349998E+02  0.42100E-02
 0.95400002E+02 -0.24122E-02
 0.95450005E+02 -0.91648E-02
 0.95500000E+02 -0.13801E-01
 0.95550003E+02 -0.16517E-01
 0.95599998E+02 -0.18316E-01
 0.95650002E+02 -0.20001E-01
 0.95700005E+02 -0.20666E-01
 0.95750000E+02 -0.18635E-01
 0.95800003E+02 -0.14027E-01
 0.95849998E+02 -0.85809E-02
 0.95900002E+02 -0.47636E-02
 0.95950005E+02 -0.34505E-02
 0.96000000E+02 -0.37695E-02
 0.96050003E+02 -0.48477E-02
 0.96099998E+02 -0.42196E-02
 0.96150002E+02 -0.89910E-03
 0.96200005E+02  0.33956E-02
 0.96250000E+02  0.68664E-02
 0.96300003E+02  0.88039E-02
 0.96349998E+02  0.97363E-02
 0.96400002E+02  0.10136E-01
 0.96450005E+02  0.96825E-02
 0.96500000E+02  0.88065E-02
 0.96550003E+02  0.71011E-02
 0.96599998E+02  0.57750E-02
 0.96650002E+02  0.57052E-02
 0.96700005E+02  0.51204E-02
 0.96750000E+02  0.34339E-02
 0.96800003E+02  0.20345E-02
 0.96849998E+02  0.26378E-02
 0.96900002E+02  0.38105E-02
 0.96950005E+02  0.50223E-02
 0.97000000E+02  0.73675E-02
 0.97050003E+02  0.10380E-01
 0.97099998E+02  0.13740E-01
 0.97150002E+02  0.16454E-01
 0.97200005E+02  0.17236E-01
 0.97250000E+02  0.17806E-01
 0.97300003E+02  0.19809E-01
 0.97349998E+02  0.22245E-01
 0.97400002E+02  0.23361E-01
 0.97450005E+02  0.22377E-01
 0.97500000E+02  0.20049E-01
 0.97550003E+02  0.17150E-01
 0.97599998E+02  0.13832E-01
 0.97650002E+02  0.93610E-02
 0.97700005E+02  0.36360E-02
 0.97750000E+02 -0.22894E-02
 0.97800003E+02 -0.84096E-02
 0.97849998E+02 -0.13255E-01
 0.97900002E+02 -0.15368E-01
 0.97950005E+02 -0.14839E-01
 0.98000000E+02 -0.10397E-01
 0.98050003E+02 -0.34766E-02
 0.98099998E+02  0.27602E-02
 0.98150002E+02  0.66232E-02
 0.98200005E+02  0.72047E-02
 0.98250000E+02  0.50935E-02
 0.98300003E+02  0.22404E-02
 0.98349998E+02 -0.36587E-03
 0.98400002E+02 -0.16592E-02
 0.98450005E+02 -0.15381E-02
 0.98500000E+02 -0.11851E-02
 0.98550003E+02 -0.25960E-03
 0.98599998E+02  0.46832E-03
 0.98650002E+02  0.17412E-02
 0.98700005E+02  0.36364E-02
 0.98750000E+02  0.49339E-02
 0.98800003E+02  0.55456E-02
 0.98849998E+02  0.43986E-02
 0.98900002E+02  0.23278E-02
 0.98950005E+02 -0.48569E-03
 0.99000000E+02 -0.47753E-02
 0.99050003E+02 -0.10510E-01
 0.99099998E+02 -0.15942E-01
 0.99150002E+02 -0.18860E-01
 0.99200005E+02 -0.19509E-01
 0.99250000E+02 -0.19002E-01
 0.99300003E+02 -0.18002E-01
 0.99349998E+02 -0.16793E-01
 0.99400002E+02 -0.15666E-01
 0.99450005E+02 -0.14029E-01
 0.99500000E+02 -0.11343E-01
 0.99550003E+02 -0.77838E-02
 0.99599998E+02 -0.44958E-02
 0.99650002E+02 -0.27038E-02
 0.99700005E+02 -0.22215E-02
 0.99750000E+02 -0.17527E-02
 0.99800003E+02 -0.13650E-02
 0.99849998E+02 -0.19314E-02
 0.99900002E+02 -0.29596E-02
 0.99950005E+02 -0.38904E-02
 0.10000000E+03 -0.38706E-02
 0.10005000E+03 -0.16306E-02
 0.10010000E+03  0.25575E-02
 0.10015000E+03  0.67036E-02
 0.10020000E+03  0.10176E-01
 0.10025000E+03  0.11900E-01
 0.10030000E+03  0.10719E-01
 0.10035000E+03  0.77322E-02
 0.10040000E+03  0.39333E-02
 0.10045000E+03  0.11757E-02
 0.10050000E+03 -0.42536E-03
 0.10055000E+03 -0.23207E-02
 0.10060000E+03 -0.50282E-02
 0.10065000E+03 -0.78642E-02
 0.10070000E+03 -0.88886E-02
 0.10075000E+03 -0.81359E-02
 0.10080000E+03 -0.63836E-02
 0.10085000E+03 -0.52328E-02
 0.10090000E+03 -0.60450E-02
 0.10095000E+03 -0.74539E-02
 0.10100000E+03 -0.80557E-02
 0.10105000E+03 -0.79199E-02
 0.10110000E+03 -0.73623E-02
 0.10115000E+03 -0.68048E-02
 0.10120000E+03 -0.61467E-02
 0.10125000E+03 -0.46348E-02
 0.10130000E+03 -0.33559E-02
 0.10135000E+03 -0.36457E-02
 0.10140000E+03 -0.50147E-02
 0.10145000E+03 -0.80556E-02
 0.10150000E+03 -0.13389E-01
 0.10155000E+03 -0.19712E-01
 0.10160000E+03 -0.25368E-01
 0.10165000E+03 -0.28004E-01
 0.10170000E+03 -0.25957E-01
 0.10175000E+03 -0.19354E-01
 0.10180000E+03 -0.93048E-02
 0.10185000E+03  0.24294E-02
 0.10190000E+03  0.13445E-01
 0.10195000E+03  0.21945E-01
 0.10200000E+03  0.27054E-01
 0.10205000E+03  0.28587E-01
 0.10210000E+03  0.27361E-01
 0.10215000E+03  0.25319E-01
 0.10220000E+03  0.23357E-01
 0.10225000E+03  0.21174E-01
 0.10230000E+03  0.19101E-01
 0.10235000E+03  0.17862E-01
 0.10240000E+03  0.17898E-01
 0.10245000E+03  0.17548E-01
 0.10250000E+03  0.15552E-01
 0.10255000E+03  0.12086E-01
 0.10260000E+03  0.90070E-02
 0.10265000E+03  0.76908E-02
 0.10270000E+03  0.75002E-02
 0.10275000E+03  0.75792E-02
 0.10280000E+03  0.67780E-02
 0.10285000E+03  0.56215E-02
 0.10290000E+03  0.46507E-02
 0.10295000E+03  0.36061E-02
 0.10300000E+03  0.24029E-02
 0.10305000E+03  0.58928E-03
 0.10310000E+03 -0.99665E-03
 0.10315000E+03 -0.17251E-02
 0.10320000E+03 -0.16740E-02
 0.10325000E+03 -0.13083E-03
 0.10330000E+03  0.32041E-02
 0.10335000E+03  0.82194E-02
 0.10340000E+03  0.13439E-01
 0.10345000E+03  0.17300E-01
 0.10350000E+03  0.18087E-01
 0.10355000E+03  0.15024E-01
 0.10360000E+03  0.98042E-02
 0.10365000E+03  0.40871E-02
 0.10370000E+03 -0.12871E-02
 0.10375000E+03 -0.55855E-02
 0.10380000E+03 -0.91858E-02
 0.10385000E+03 -0.12680E-01
 0.10390000E+03 -0.14738E-01
 0.10395000E+03 -0.15888E-01
 0.10400000E+03 -0.16563E-01
 0.10405000E+03 -0.15200E-01
 0.10410000E+03 -0.12588E-01
 0.10415000E+03 -0.89298E-02
 0.10420000E+03 -0.40441E-02
 0.10425000E+03  0.10102E-02
 0.10430000E+03  0.53770E-02
 0.10435000E+03  0.80745E-02
 0.10440000E+03  0.86862E-02
 0.10445000E+03  0.76449E-02
 0.10450000E+03  0.56647E-02
 0.10455000E+03  0.19710E-02
 0.10460000E+03 -0.26536E-02
 0.10465000E+03 -0.58865E-02
 0.10470000E+03 -0.68883E-02
 0.10475000E+03 -0.68336E-02
 0.10480000E+03 -0.70231E-02
 0.10485000E+03 -0.74056E-02
 0.10490000E+03 -0.80859E-02
 0.10495000E+03 -0.91544E-02
 0.10500000E+03 -0.10894E-01
 0.10505000E+03 -0.13296E-01
 0.10510000E+03 -0.15266E-01
 0.10515000E+03 -0.16463E-01
 0.10520000E+03 -0.16187E-01
 0.10525000E+03 -0.14247E-01
 0.10530000E+03 -0.11786E-01
 0.10535000E+03 -0.97848E-02
 0.10540000E+03 -0.86496E-02
 0.10545000E+03 -0.81360E-02
 0.10550000E+03 -0.79124E-02
 0.10555000E+03 -0.75233E-02
 0.10560000E+03 -0.70835E-02
 0.10565000E+03 -0.63684E-02
 0.10570000E+03 -0.63764E-02
 0.10575000E+03 -0.78664E-02
 0.10580000E+03 -0.86714E-02
 0.10585000E+03 -0.76540E-02
 0.10590000E+03 -0.55051E-02
 0.10595000E+03 -0.34324E-02
 0.10600000E+03 -0.19086E-02
 0.10605000E+03  0.31033E-03
 0.10610000E+03  0.34446E-02
 0.10615000E+03  0.74227E-02
 0.10620000E+03  0.11769E-01
 0.10625000E+03  0.15966E-01
 0.10630000E+03  0.19940E-01
 0.10635000E+03  0.22866E-01
 0.10640000E+03  0.24248E-01
 0.10645000E+03  0.24297E-01
 0.10650000E+03  0.23553E-01
 0.10655000E+03  0.22276E-01
 0.10660000E+03  0.19334E-01
 0.10665000E+03  0.14949E-01
 0.10670000E+03  0.10846E-01
 0.10675000E+03  0.74197E-02
 0.10680000E+03  0.43633E-02
 0.10685000E+03  0.58402E-03
 0.10690000E+03 -0.33789E-02
 0.10695000E+03 -0.59410E-02
 0.10700000E+03 -0.71172E-02
 0.10705000E+03 -0.67995E-02
 0.10710000E+03 -0.48342E-02
 0.10715000E+03 -0.21073E-02
 0.10720000E+03  0.11224E-02
 0.10725000E+03  0.48155E-02
 0.10730000E+03  0.83055E-02
 0.10735000E+03  0.10461E-01
 0.10740000E+03  0.10942E-01
 0.10745000E+03  0.10476E-01
 0.10750000E+03  0.92728E-02
 0.10755000E+03  0.78147E-02
 0.10760000E+03  0.69100E-02
 0.10765000E+03  0.67906E-02
 0.10770000E+03  0.66647E-02
 0.10775000E+03  0.54336E-02
 0.10780000E+03  0.22478E-02
 0.10785000E+03 -0.26749E-02
 0.10790000E+03 -0.84181E-02
 0.10795000E+03 -0.13719E-01
 0.10800000E+03 -0.17368E-01
 0.10805000E+03 -0.18790E-01
 0.10810000E+03 -0.18378E-01
 0.10815000E+03 -0.16144E-01
 0.10820000E+03 -0.12919E-01
 0.10825000E+03 -0.97140E-02
 0.10830000E+03 -0.58742E-02
 0.10835000E+03 -0.13264E-02
 0.10840000E+03  0.30522E-02
 0.10845000E+03  0.48462E-02
 0.10850000E+03  0.32072E-02
 0.10855000E+03 -0.63326E-03
 0.10860000E+03 -0.36624E-02
 0.10865000E+03 -0.37645E-02
 0.10870000E+03 -0.20578E-02
 0.10875000E+03  0.51685E-03
 0.10880000E+03  0.27727E-02
 0.10885000E+03  0.36363E-02
 0.10890000E+03  0.31825E-02
 0.10895000E+03  0.13259E-02
 0.10900000E+03 -0.17167E-02
 0.10905000E+03 -0.57401E-02
 0.10910000E+03 -0.10517E-01
 0.10915000E+03 -0.14809E-01
 0.10920000E+03 -0.17587E-01
 0.10925000E+03 -0.18202E-01
 0.10930000E+03 -0.17568E-01
 0.10935000E+03 -0.15819E-01
 0.10940000E+03 -0.12519E-01
 0.10945000E+03 -0.86667E-02
 0.10950000E+03 -0.42189E-02
 0.10955000E+03  0.51066E-03
 0.10960000E+03  0.45930E-02
 0.10965000E+03  0.72857E-02
 0.10970000E+03  0.82757E-02
 0.10975000E+03  0.77366E-02
 0.10980000E+03  0.62727E-02
 0.10985000E+03  0.44672E-02
 0.10990000E+03  0.31699E-02
 0.10995000E+03  0.29773E-02
 0.11000000E+03  0.38533E-02
 0.11005000E+03  0.49259E-02
 0.11010000E+03  0.54549E-02
 0.11015000E+03  0.61576E-02
 0.11020000E+03  0.75818E-02
 0.11025000E+03  0.88858E-02
 0.11030000E+03  0.89236E-02
 0.11035000E+03  0.79859E-02
 0.11040000E+03  0.68228E-02
 0.11045000E+03  0.47397E-02
 0.11050000E+03  0.14192E-02
 0.11055000E+03 -0.13720E-02
 0.11060000E+03 -0.26677E-02
 0.11065000E+03 -0.28411E-02
 0.11070000E+03 -0.22224E-02
 0.11075000E+03 -0.19402E-03
 0.11080000E+03  0.30516E-02
 0.11085000E+03  0.69707E-02
 0.11090000E+03  0.11779E-01
 0.11095000E+03  0.16979E-01
 0.11100000E+03  0.21627E-01
 0.11105000E+03  0.24602E-01
 0.11110000E+03  0.25824E-01
 0.11115000E+03  0.25602E-01
 0.11120000E+03  0.23663E-01
 0.11125000E+03  0.20326E-01
 0.11130000E+03  0.16879E-01
 0.11135000E+03  0.13425E-01
 0.11140000E+03  0.93587E-02
 0.11145000E+03  0.42570E-02
 0.11150000E+03 -0.16230E-02
 0.11155000E+03 -0.73772E-02
 0.11160000E+03 -0.12432E-01
 0.11165000E+03 -0.15911E-01
 0.11170000E+03 -0.17340E-01
 0.11175000E+03 -0.17053E-01
 0.11180000E+03 -0.15597E-01
 0.11185000E+03 -0.12847E-01
 0.11190000E+03 -0.90209E-02
 0.11195000E+03 -0.48360E-02
 0.11200000E+03 -0.14469E-02
 0.11205000E+03  0.11644E-03
 0.11210000E+03  0.34287E-03
 0.11215000E+03  0.12765E-02
 0.11220000E+03  0.32802E-02
 0.11225000E+03  0.58209E-02
 0.11230000E+03  0.80459E-02
 0.11235000E+03  0.83816E-02
 0.11240000E+03  0.71294E-02
 0.11245000E+03  0.50863E-02
 0.11250000E+03  0.28509E-02
 0.11255000E+03  0.45915E-03
 0.11260000E+03 -0.20325E-02
 0.11265000E+03 -0.45449E-02
 0.11270000E+03 -0.75060E-02
 0.11275000E+03 -0.10450E-01
 0.11280000E+03 -0.12112E-01
 0.11285000E+03 -0.12454E-01
 0.11290000E+03 -0.12573E-01
 0.11295000E+03 -0.12988E-01
 0.11300000E+03 -0.12719E-01
 0.11305000E+03 -0.11459E-01
 0.11310000E+03 -0.92083E-02
 0.11315000E+03 -0.66291E-02
 0.11320000E+03 -0.50339E-02
 0.11325000E+03 -0.43331E-02
 0.11330000E+03 -0.33778E-02
 0.11335000E+03 -0.16607E-02
 0.11340000E+03 -0.98194E-04
 0.11345000E+03  0.92885E-03
 0.11350000E+03  0.14020E-02
 0.11355000E+03  0.17955E-02
 0.11360000E+03  0.23094E-02
 0.11365000E+03  0.23372E-02
 0.11370000E+03  0.17259E-02
 0.11375000E+03  0.68791E-03
 0.11380000E+03  0.36738E-03
 0.11385000E+03  0.11735E-02
 0.11390000E+03  0.22753E-02
 0.11395000E+03  0.32812E-02
 0.11400000E+03  0.39189E-02
 0.11405000E+03  0.49755E-02
 0.11410000E+03  0.66610E-02
 0.11415000E+03  0.80860E-02
 0.11420000E+03  0.90587E-02
 0.11425000E+03  0.94962E-02
 0.11430000E+03  0.91571E-02
 0.11435000E+03  0.85111E-02
 0.11440000E+03  0.74245E-02
 0.11445000E+03  0.58308E-02
 0.11450000E+03  0.37854E-02
 0.11455000E+03  0.96974E-03
 0.11460000E+03 -0.14811E-02
 0.11465000E+03 -0.35210E-02
 0.11470000E+03 -0.52887E-02
 0.11475000E+03 -0.55734E-02
 0.11480000E+03 -0.48714E-02
 0.11485000E+03 -0.43389E-02
 0.11490000E+03 -0.46634E-02
 0.11495000E+03 -0.63793E-02
 0.11500000E+03 -0.86438E-02
 0.11505000E+03 -0.10121E-01
 0.11510000E+03 -0.10840E-01
 0.11515000E+03 -0.10793E-01
 0.11520000E+03 -0.90154E-02
 0.11525000E+03 -0.58919E-02
 0.11530000E+03 -0.21123E-02
 0.11535000E+03  0.17030E-02
 0.11540000E+03  0.43254E-02
 0.11545000E+03  0.53767E-02
 0.11550000E+03  0.49425E-02
 0.11555000E+03  0.32445E-02
 0.11560000E+03  0.42830E-03
 0.11565000E+03 -0.22684E-02
 0.11570000E+03 -0.40138E-02
 0.11575000E+03 -0.51312E-02
 0.11580000E+03 -0.54298E-02
 0.11585000E+03 -0.54522E-02
 0.11590000E+03 -0.57832E-02
 0.11595000E+03 -0.61970E-02
 0.11600000E+03 -0.66916E-02
 0.11605000E+03 -0.71907E-02
 0.11610000E+03 -0.64930E-02
 0.11615000E+03 -0.40666E-02
 0.11620000E+03 -0.93555E-03
 0.11625000E+03  0.22329E-02
 0.11630000E+03  0.48147E-02
 0.11635000E+03  0.60114E-02
 0.11640000E+03  0.53066E-02
 0.11645000E+03  0.29607E-02
 0.11650000E+03  0.17329E-04
 0.11655000E+03 -0.19816E-02
 0.11660000E+03 -0.15845E-02
 0.11665000E+03  0.80277E-03
 0.11670000E+03  0.40495E-02
 0.11675000E+03  0.73214E-02
 0.11680000E+03  0.99604E-02
 0.11685000E+03  0.11809E-01
 0.11690000E+03  0.12505E-01
 0.11695000E+03  0.11882E-01
 0.11700000E+03  0.10464E-01
 0.11705000E+03  0.85021E-02
 0.11710000E+03  0.60448E-02
 0.11715000E+03  0.37851E-02
 0.11720000E+03  0.30725E-02
 0.11725000E+03  0.41134E-02
 0.11730000E+03  0.57778E-02
 0.11735000E+03  0.77467E-02
 0.11740000E+03  0.97854E-02
 0.11745000E+03  0.10969E-01
 0.11750000E+03  0.11266E-01
 0.11755000E+03  0.10800E-01
 0.11760000E+03  0.92984E-02
 0.11765000E+03  0.70570E-02
 0.11770000E+03  0.42009E-02
 0.11775000E+03  0.88691E-03
 0.11780000E+03 -0.21281E-02
 0.11785000E+03 -0.44157E-02
 0.11790000E+03 -0.57144E-02
 0.11795000E+03 -0.54605E-02
 0.11800000E+03 -0.41883E-02
 0.11805000E+03 -0.29961E-02
 0.11810000E+03 -0.21100E-02
 0.11815000E+03 -0.17175E-02
 0.11820000E+03 -0.21039E-02
 0.11825000E+03 -0.25351E-02
 0.11830000E+03 -0.28773E-02
 0.11835000E+03 -0.36357E-02
 0.11840000E+03 -0.40983E-02
 0.11845000E+03 -0.37951E-02
 0.11850000E+03 -0.30200E-02
 0.11855000E+03 -0.20188E-02
 0.11860000E+03 -0.10482E-02
 0.11865000E+03 -0.91691E-04
 0.11870000E+03  0.97459E-03
 0.11875000E+03  0.11827E-02
 0.11880000E+03  0.18970E-03
 0.11885000E+03 -0.12202E-02
 0.11890000E+03 -0.27116E-02
 0.11895000E+03 -0.39774E-02
 0.11900000E+03 -0.42304E-02
 0.11905000E+03 -0.30595E-02
 0.11910000E+03 -0.40725E-03
 0.11915000E+03  0.24947E-02
 0.11920000E+03  0.43943E-02
 0.11925000E+03  0.45622E-02
 0.11930000E+03  0.32254E-02
 0.11935000E+03  0.65331E-03
 0.11940000E+03 -0.33291E-02
 0.11945000E+03 -0.80849E-02
 0.11950000E+03 -0.12777E-01
 0.11955000E+03 -0.16804E-01
 0.11960000E+03 -0.19178E-01
 0.11965000E+03 -0.18736E-01
 0.11970000E+03 -0.15796E-01
 0.11975000E+03 -0.11102E-01
 0.11980000E+03 -0.67929E-02
 0.11985000E+03 -0.24708E-02
 0.11990000E+03  0.27999E-03
 0.11995000E+03  0.41804E-02
 0.12000000E+03  0.36396E-02
