 0.00000000E+00  0.45378E-03
 0.50000001E-01  0.96355E-03
 0.10000000E+00  0.78084E-03
 0.15000001E+00  0.86065E-03
 0.20000000E+00  0.76487E-03
 0.25000000E+00  0.70384E-03
 0.30000001E+00  0.67234E-03
 0.34999999E+00  0.60836E-03
 0.40000001E+00  0.54564E-03
 0.45000002E+00  0.50976E-03
 0.50000000E+00  0.49467E-03
 0.55000001E+00  0.43419E-03
 0.60000002E+00  0.39699E-03
 0.65000004E+00  0.38890E-03
 0.69999999E+00  0.36984E-03
 0.75000000E+00  0.37886E-03
 0.80000001E+00  0.35830E-03
 0.85000002E+00  0.32635E-03
 0.90000004E+00  0.26367E-03
 0.94999999E+00  0.22323E-03
 0.10000000E+01  0.15545E-03
 0.10500001E+01  0.12118E-03
 0.11000000E+01  0.64363E-04
 0.11500000E+01 -0.27508E-04
 0.12000000E+01 -0.86335E-04
 0.12500000E+01 -0.20905E-03
 0.13000001E+01 -0.31375E-03
 0.13500000E+01 -0.40537E-03
 0.14000000E+01 -0.51680E-03
 0.14500000E+01 -0.61624E-03
 0.15000000E+01 -0.69388E-03
 0.15500001E+01 -0.79732E-03
 0.16000000E+01 -0.85850E-03
 0.16500000E+01 -0.98810E-03
 0.17000000E+01 -0.10923E-02
 0.17500000E+01 -0.11865E-02
 0.18000001E+01 -0.13096E-02
 0.18500000E+01 -0.14121E-02
 0.19000000E+01 -0.15114E-02
 0.19500000E+01 -0.15769E-02
 0.20000000E+01 -0.16452E-02
 0.20500000E+01 -0.16906E-02
 0.21000001E+01 -0.17191E-02
 0.21500001E+01 -0.16777E-02
 0.22000000E+01 -0.15951E-02
 0.22500000E+01 -0.15290E-02
 0.23000000E+01 -0.14544E-02
 0.23500001E+01 -0.14264E-02
 0.24000001E+01 -0.12959E-02
 0.24500000E+01 -0.11671E-02
 0.25000000E+01 -0.10996E-02
 0.25500000E+01 -0.99287E-03
 0.26000001E+01 -0.91525E-03
 0.26500001E+01 -0.80328E-03
 0.27000000E+01 -0.73092E-03
 0.27500000E+01 -0.65218E-03
 0.28000000E+01 -0.49018E-03
 0.28500001E+01 -0.34988E-03
 0.29000001E+01 -0.19356E-03
 0.29500000E+01  0.13200E-05
 0.30000000E+01  0.17028E-03
 0.30500000E+01  0.30323E-03
 0.31000001E+01  0.35473E-03
 0.31500001E+01  0.40545E-03
 0.32000000E+01  0.43404E-03
 0.32500000E+01  0.47614E-03
 0.33000000E+01  0.48786E-03
 0.33500001E+01  0.46702E-03
 0.34000001E+01  0.46242E-03
 0.34500000E+01  0.42314E-03
 0.35000000E+01  0.42719E-03
 0.35500000E+01  0.43773E-03
 0.36000001E+01  0.43488E-03
 0.36500001E+01  0.45685E-03
 0.37000000E+01  0.43735E-03
 0.37500000E+01  0.42020E-03
 0.38000000E+01  0.43231E-03
 0.38500001E+01  0.42307E-03
 0.39000001E+01  0.40200E-03
 0.39500000E+01  0.38650E-03
 0.40000000E+01  0.39368E-03
 0.40500002E+01  0.44781E-03
 0.40999999E+01  0.51160E-03
 0.41500001E+01  0.58397E-03
 0.42000003E+01  0.67239E-03
 0.42500000E+01  0.72448E-03
 0.43000002E+01  0.75695E-03
 0.43499999E+01  0.75957E-03
 0.44000001E+01  0.74579E-03
 0.44500003E+01  0.69812E-03
 0.45000000E+01  0.64473E-03
 0.45500002E+01  0.60144E-03
 0.45999999E+01  0.53449E-03
 0.46500001E+01  0.44735E-03
 0.47000003E+01  0.35553E-03
 0.47500000E+01  0.25157E-03
 0.48000002E+01  0.20741E-03
 0.48499999E+01  0.13762E-03
 0.49000001E+01  0.63252E-04
 0.49500003E+01 -0.29253E-04
 0.50000000E+01 -0.14100E-03
 0.50500002E+01 -0.19375E-03
 0.50999999E+01 -0.27888E-03
 0.51500001E+01 -0.32988E-03
 0.52000003E+01 -0.41825E-03
 0.52500000E+01 -0.48975E-03
 0.53000002E+01 -0.54775E-03
 0.53499999E+01 -0.57994E-03
 0.54000001E+01 -0.59520E-03
 0.54500003E+01 -0.67074E-03
 0.55000000E+01 -0.73221E-03
 0.55500002E+01 -0.82529E-03
 0.55999999E+01 -0.88540E-03
 0.56500001E+01 -0.90060E-03
 0.57000003E+01 -0.91976E-03
 0.57500000E+01 -0.93840E-03
 0.58000002E+01 -0.94543E-03
 0.58499999E+01 -0.88628E-03
 0.59000001E+01 -0.81142E-03
 0.59500003E+01 -0.76349E-03
 0.60000000E+01 -0.72210E-03
 0.60500002E+01 -0.70579E-03
 0.60999999E+01 -0.70305E-03
 0.61500001E+01 -0.67514E-03
 0.62000003E+01 -0.67763E-03
 0.62500000E+01 -0.66133E-03
 0.63000002E+01 -0.68588E-03
 0.63499999E+01 -0.71611E-03
 0.64000001E+01 -0.69258E-03
 0.64500003E+01 -0.63995E-03
 0.65000000E+01 -0.55429E-03
 0.65500002E+01 -0.51320E-03
 0.65999999E+01 -0.46764E-03
 0.66500001E+01 -0.46235E-03
 0.67000003E+01 -0.42623E-03
 0.67500000E+01 -0.41783E-03
 0.68000002E+01 -0.40185E-03
 0.68499999E+01 -0.35198E-03
 0.69000001E+01 -0.35327E-03
 0.69500003E+01 -0.37303E-03
 0.70000000E+01 -0.42804E-03
 0.70500002E+01 -0.39590E-03
 0.70999999E+01 -0.39655E-03
 0.71500001E+01 -0.41948E-03
 0.72000003E+01 -0.37335E-03
 0.72500000E+01 -0.37655E-03
 0.73000002E+01 -0.35416E-03
 0.73499999E+01 -0.30468E-03
 0.74000001E+01 -0.24812E-03
 0.74500003E+01 -0.15998E-03
 0.75000000E+01 -0.93984E-04
 0.75500002E+01  0.39869E-05
 0.75999999E+01  0.83615E-04
 0.76500001E+01  0.15573E-03
 0.77000003E+01  0.24176E-03
 0.77500000E+01  0.30405E-03
 0.78000002E+01  0.41859E-03
 0.78499999E+01  0.48775E-03
 0.79000001E+01  0.58408E-03
 0.79500003E+01  0.63880E-03
 0.80000000E+01  0.68504E-03
 0.80500002E+01  0.69022E-03
 0.81000004E+01  0.68714E-03
 0.81500006E+01  0.71747E-03
 0.81999998E+01  0.64426E-03
 0.82500000E+01  0.63892E-03
 0.83000002E+01  0.59460E-03
 0.83500004E+01  0.58652E-03
 0.84000006E+01  0.56694E-03
 0.84499998E+01  0.51998E-03
 0.85000000E+01  0.54882E-03
 0.85500002E+01  0.55481E-03
 0.86000004E+01  0.56205E-03
 0.86500006E+01  0.56598E-03
 0.86999998E+01  0.54956E-03
 0.87500000E+01  0.52275E-03
 0.88000002E+01  0.45775E-03
 0.88500004E+01  0.43582E-03
 0.89000006E+01  0.38847E-03
 0.89499998E+01  0.34349E-03
 0.90000000E+01  0.27095E-03
 0.90500002E+01  0.17432E-03
 0.91000004E+01  0.15262E-03
 0.91500006E+01  0.89591E-04
 0.91999998E+01  0.44066E-04
 0.92500000E+01 -0.23104E-04
 0.93000002E+01 -0.10441E-03
 0.93500004E+01 -0.15561E-03
 0.94000006E+01 -0.19536E-03
 0.94499998E+01 -0.22347E-03
 0.95000000E+01 -0.31069E-03
 0.95500002E+01 -0.41642E-03
 0.96000004E+01 -0.51480E-03
 0.96500006E+01 -0.58493E-03
 0.96999998E+01 -0.65328E-03
 0.97500000E+01 -0.75223E-03
 0.98000002E+01 -0.84946E-03
 0.98500004E+01 -0.95002E-03
 0.99000006E+01 -0.97349E-03
 0.99499998E+01 -0.99707E-03
 0.10000000E+02 -0.99610E-03
 0.10050000E+02 -0.10048E-02
 0.10100000E+02 -0.10348E-02
 0.10150001E+02 -0.10464E-02
 0.10200000E+02 -0.10280E-02
 0.10250000E+02 -0.10336E-02
 0.10300000E+02 -0.10431E-02
 0.10350000E+02 -0.10131E-02
 0.10400001E+02 -0.10194E-02
 0.10450000E+02 -0.98852E-03
 0.10500000E+02 -0.97628E-03
 0.10550000E+02 -0.95767E-03
 0.10600000E+02 -0.89649E-03
 0.10650001E+02 -0.86542E-03
 0.10700000E+02 -0.80332E-03
 0.10750000E+02 -0.70414E-03
 0.10800000E+02 -0.60956E-03
 0.10850000E+02 -0.56989E-03
 0.10900001E+02 -0.49471E-03
 0.10950000E+02 -0.38912E-03
 0.11000000E+02 -0.31197E-03
 0.11050000E+02 -0.22253E-03
 0.11100000E+02 -0.16554E-03
 0.11150001E+02 -0.54620E-04
 0.11200000E+02  0.41568E-05
 0.11250000E+02  0.79727E-04
 0.11300000E+02  0.16654E-03
 0.11350000E+02  0.21190E-03
 0.11400001E+02  0.25479E-03
 0.11450000E+02  0.30121E-03
 0.11500000E+02  0.38737E-03
 0.11550000E+02  0.44161E-03
 0.11600000E+02  0.50577E-03
 0.11650001E+02  0.52648E-03
 0.11700000E+02  0.57988E-03
 0.11750000E+02  0.64744E-03
 0.11800000E+02  0.67894E-03
 0.11850000E+02  0.69644E-03
 0.11900001E+02  0.72628E-03
 0.11950000E+02  0.73758E-03
 0.12000000E+02  0.70149E-03
 0.12050000E+02  0.72279E-03
 0.12100000E+02  0.72221E-03
 0.12150001E+02  0.67599E-03
 0.12200000E+02  0.63126E-03
 0.12250000E+02  0.56938E-03
 0.12300000E+02  0.58295E-03
 0.12350000E+02  0.61882E-03
 0.12400001E+02  0.59140E-03
 0.12450000E+02  0.57278E-03
 0.12500000E+02  0.49487E-03
 0.12550000E+02  0.38523E-03
 0.12600000E+02  0.29894E-03
 0.12650001E+02  0.17634E-03
 0.12700000E+02  0.49614E-04
 0.12750000E+02 -0.10148E-03
 0.12800000E+02 -0.22548E-03
 0.12850000E+02 -0.34115E-03
 0.12900001E+02 -0.46761E-03
 0.12950000E+02 -0.57919E-03
 0.13000000E+02 -0.72531E-03
 0.13050000E+02 -0.83846E-03
 0.13100000E+02 -0.96131E-03
 0.13150001E+02 -0.99842E-03
 0.13200000E+02 -0.10192E-02
 0.13250000E+02 -0.11297E-02
 0.13300000E+02 -0.12156E-02
 0.13350000E+02 -0.12313E-02
 0.13400001E+02 -0.12496E-02
 0.13450000E+02 -0.12371E-02
 0.13500000E+02 -0.12163E-02
 0.13550000E+02 -0.12001E-02
 0.13600000E+02 -0.11419E-02
 0.13650001E+02 -0.11200E-02
 0.13700000E+02 -0.10436E-02
 0.13750000E+02 -0.93510E-03
 0.13800000E+02 -0.85146E-03
 0.13850000E+02 -0.77244E-03
 0.13900001E+02 -0.69342E-03
 0.13950000E+02 -0.54456E-03
 0.14000000E+02 -0.39264E-03
 0.14050000E+02 -0.29362E-03
 0.14100000E+02 -0.18578E-03
 0.14150001E+02 -0.72931E-04
 0.14200000E+02  0.49685E-04
 0.14250000E+02  0.11578E-03
 0.14300000E+02  0.22355E-03
 0.14350000E+02  0.29330E-03
 0.14400001E+02  0.37012E-03
 0.14450000E+02  0.44405E-03
 0.14500000E+02  0.46632E-03
 0.14550000E+02  0.50760E-03
 0.14600000E+02  0.48180E-03
 0.14650001E+02  0.46755E-03
 0.14700000E+02  0.45246E-03
 0.14750000E+02  0.45269E-03
 0.14800000E+02  0.44044E-03
 0.14850000E+02  0.41517E-03
 0.14900001E+02  0.39333E-03
 0.14950000E+02  0.39989E-03
 0.15000000E+02  0.44287E-03
 0.15050000E+02  0.48082E-03
 0.15100000E+02  0.48649E-03
 0.15150001E+02  0.48737E-03
 0.15200000E+02  0.42943E-03
 0.15250000E+02  0.43631E-03
 0.15300000E+02  0.45154E-03
 0.15350000E+02  0.37281E-03
 0.15400001E+02  0.33006E-03
 0.15450000E+02  0.23137E-03
 0.15500000E+02  0.15356E-03
 0.15550000E+02  0.10256E-03
 0.15600000E+02  0.67376E-04
 0.15650001E+02  0.21307E-04
 0.15700000E+02 -0.47143E-04
 0.15750000E+02 -0.89927E-04
 0.15800000E+02 -0.10707E-03
 0.15850000E+02 -0.10419E-03
 0.15900001E+02 -0.11224E-03
 0.15950000E+02 -0.11667E-03
 0.16000000E+02 -0.11543E-03
 0.16050001E+02 -0.11279E-03
 0.16100000E+02 -0.96800E-04
 0.16150000E+02 -0.91348E-04
 0.16200001E+02 -0.14975E-03
 0.16250000E+02 -0.21118E-03
 0.16300001E+02 -0.24888E-03
 0.16350000E+02 -0.28885E-03
 0.16400000E+02 -0.31259E-03
 0.16450001E+02 -0.36271E-03
 0.16500000E+02 -0.36078E-03
 0.16550001E+02 -0.39785E-03
 0.16600000E+02 -0.40596E-03
 0.16650000E+02 -0.38112E-03
 0.16700001E+02 -0.39713E-03
 0.16750000E+02 -0.35186E-03
 0.16800001E+02 -0.33232E-03
 0.16850000E+02 -0.30486E-03
 0.16900000E+02 -0.32194E-03
 0.16950001E+02 -0.37513E-03
 0.17000000E+02 -0.43951E-03
 0.17050001E+02 -0.52535E-03
 0.17100000E+02 -0.58063E-03
 0.17150000E+02 -0.61640E-03
 0.17200001E+02 -0.61950E-03
 0.17250000E+02 -0.59848E-03
 0.17300001E+02 -0.62826E-03
 0.17350000E+02 -0.58849E-03
 0.17400000E+02 -0.52474E-03
 0.17450001E+02 -0.49535E-03
 0.17500000E+02 -0.46617E-03
 0.17550001E+02 -0.44902E-03
 0.17600000E+02 -0.43039E-03
 0.17650000E+02 -0.41651E-03
 0.17700001E+02 -0.39304E-03
 0.17750000E+02 -0.39200E-03
 0.17800001E+02 -0.39017E-03
 0.17850000E+02 -0.43081E-03
 0.17900000E+02 -0.47906E-03
 0.17950001E+02 -0.50420E-03
 0.18000000E+02 -0.50951E-03
 0.18050001E+02 -0.52911E-03
 0.18100000E+02 -0.56062E-03
 0.18150000E+02 -0.62494E-03
 0.18200001E+02 -0.66974E-03
 0.18250000E+02 -0.70295E-03
 0.18300001E+02 -0.77183E-03
 0.18350000E+02 -0.76153E-03
 0.18400000E+02 -0.73115E-03
 0.18450001E+02 -0.47248E-03
 0.18500000E+02  0.84124E-04
 0.18550001E+02  0.42344E-03
 0.18600000E+02  0.23984E-03
 0.18650000E+02  0.28437E-04
 0.18700001E+02  0.37405E-03
 0.18750000E+02  0.17488E-02
 0.18800001E+02  0.38981E-02
 0.18850000E+02  0.65198E-02
 0.18900000E+02  0.99714E-02
 0.18950001E+02  0.15035E-01
 0.19000000E+02  0.22344E-01
 0.19050001E+02  0.31964E-01
 0.19100000E+02  0.42925E-01
 0.19150000E+02  0.55424E-01
 0.19200001E+02  0.67714E-01
 0.19250000E+02  0.72460E-01
 0.19300001E+02  0.66295E-01
 0.19350000E+02  0.48353E-01
 0.19400000E+02  0.22565E-01
 0.19450001E+02 -0.10911E-01
 0.19500000E+02 -0.52647E-01
 0.19550001E+02 -0.60120E-01
 0.19600000E+02  0.10904E-01
 0.19650000E+02  0.84258E-01
 0.19700001E+02  0.61211E-01
 0.19750000E+02 -0.21769E-01
 0.19800001E+02 -0.63935E-01
 0.19850000E+02 -0.80405E-02
 0.19900000E+02  0.97881E-01
 0.19950001E+02  0.15458E+00
 0.20000000E+02  0.13585E+00
 0.20050001E+02  0.97704E-01
 0.20100000E+02  0.95924E-01
 0.20150000E+02  0.96621E-01
 0.20200001E+02  0.56246E-01
 0.20250000E+02  0.15027E-01
 0.20300001E+02 -0.40766E-02
 0.20350000E+02 -0.30190E-01
 0.20400000E+02 -0.96080E-01
 0.20450001E+02 -0.88396E-01
 0.20500000E+02  0.40040E-01
 0.20550001E+02  0.86397E-01
 0.20600000E+02 -0.80148E-01
 0.20650000E+02 -0.24343E+00
 0.20700001E+02 -0.18798E+00
 0.20750000E+02 -0.23566E-01
 0.20800001E+02  0.10236E+00
 0.20850000E+02  0.86302E-01
 0.20900000E+02 -0.16360E-01
 0.20950001E+02 -0.48827E-01
 0.21000000E+02  0.38721E-01
 0.21050001E+02  0.68545E-01
 0.21100000E+02 -0.32509E-02
 0.21150000E+02 -0.70611E-02
 0.21200001E+02  0.59021E-01
 0.21250000E+02  0.61940E-01
 0.21300001E+02  0.16385E-01
 0.21350000E+02  0.26672E-02
 0.21400000E+02 -0.77297E-02
 0.21450001E+02 -0.18904E-03
 0.21500000E+02 -0.47210E-01
 0.21550001E+02 -0.83134E-01
 0.21600000E+02 -0.47451E-01
 0.21650000E+02  0.14175E-01
 0.21700001E+02  0.60264E-01
 0.21750000E+02  0.67057E-01
 0.21800001E+02  0.65192E-01
 0.21850000E+02  0.17720E-01
 0.21900000E+02 -0.38225E-01
 0.21950001E+02 -0.64028E-01
 0.22000000E+02 -0.15773E-01
 0.22050001E+02  0.60165E-01
 0.22100000E+02  0.71411E-01
 0.22150000E+02  0.93745E-02
 0.22200001E+02 -0.62103E-01
 0.22250000E+02 -0.61425E-01
 0.22300001E+02 -0.30488E-01
 0.22350000E+02  0.12443E-01
 0.22400000E+02  0.56352E-03
 0.22450001E+02  0.29263E-02
 0.22500000E+02  0.41018E-01
 0.22550001E+02  0.26693E-01
 0.22600000E+02  0.14235E-01
 0.22650000E+02 -0.43190E-01
 0.22700001E+02 -0.88781E-01
 0.22750000E+02 -0.99425E-01
 0.22800001E+02 -0.86652E-01
 0.22850000E+02 -0.74063E-01
 0.22900000E+02 -0.61737E-01
 0.22950001E+02  0.48389E-01
 0.23000000E+02  0.98828E-01
 0.23050001E+02  0.50095E-01
 0.23100000E+02  0.17662E-01
 0.23150000E+02 -0.88947E-02
 0.23200001E+02 -0.18379E-02
 0.23250000E+02  0.16680E-01
 0.23300001E+02  0.33276E-01
 0.23350000E+02  0.71112E-01
 0.23400000E+02  0.99433E-01
 0.23450001E+02  0.93340E-01
 0.23500000E+02  0.46234E-01
 0.23550001E+02 -0.15142E-02
 0.23600000E+02 -0.29941E-01
 0.23650000E+02 -0.53704E-01
 0.23700001E+02 -0.91141E-01
 0.23750000E+02 -0.10648E+00
 0.23800001E+02 -0.51314E-01
 0.23850000E+02 -0.29569E-01
 0.23900000E+02 -0.77768E-01
 0.23950001E+02 -0.93593E-01
 0.24000000E+02 -0.80943E-01
 0.24050001E+02 -0.35634E-01
 0.24100000E+02  0.57978E-01
 0.24150000E+02  0.11368E+00
 0.24200001E+02  0.11403E+00
 0.24250000E+02  0.12078E+00
 0.24300001E+02  0.11041E+00
 0.24350000E+02  0.89684E-01
 0.24400000E+02  0.34961E-01
 0.24450001E+02 -0.42217E-01
 0.24500000E+02 -0.57153E-01
 0.24550001E+02 -0.70738E-01
 0.24600000E+02 -0.70627E-01
 0.24650000E+02 -0.44514E-01
 0.24700001E+02 -0.86823E-02
 0.24750000E+02  0.22864E-01
 0.24800001E+02  0.80200E-02
 0.24850000E+02  0.13542E-01
 0.24900000E+02  0.45795E-01
 0.24950001E+02  0.43474E-01
 0.25000000E+02 -0.10348E-01
 0.25050001E+02 -0.41058E-01
 0.25100000E+02  0.36451E-01
 0.25150000E+02  0.89709E-01
 0.25200001E+02  0.56505E-01
 0.25250000E+02  0.55790E-03
 0.25300001E+02 -0.77939E-02
 0.25350000E+02  0.60529E-01
 0.25400000E+02  0.14676E+00
 0.25450001E+02  0.13700E+00
 0.25500000E+02  0.53529E-01
 0.25550001E+02  0.53871E-01
 0.25600000E+02  0.78030E-01
 0.25650000E+02  0.10516E+00
 0.25700001E+02  0.12567E+00
 0.25750000E+02  0.10833E+00
 0.25800001E+02  0.76195E-01
 0.25850000E+02  0.67042E-01
 0.25900000E+02  0.75795E-01
 0.25950001E+02  0.65144E-01
 0.26000000E+02  0.43590E-01
 0.26050001E+02  0.20943E-01
 0.26100000E+02  0.13372E-02
 0.26150000E+02 -0.50319E-01
 0.26200001E+02 -0.98421E-01
 0.26250000E+02 -0.74172E-01
 0.26300001E+02 -0.47922E-01
 0.26350000E+02 -0.51418E-01
 0.26400000E+02 -0.24464E-01
 0.26450001E+02 -0.32191E-01
 0.26500000E+02 -0.63191E-01
 0.26550001E+02 -0.52547E-01
 0.26600000E+02 -0.14144E-01
 0.26650000E+02  0.16228E-01
 0.26700001E+02  0.31795E-01
 0.26750000E+02  0.21130E-01
 0.26800001E+02  0.29952E-02
 0.26850000E+02  0.71482E-02
 0.26900000E+02  0.22562E-01
 0.26950001E+02  0.30311E-01
 0.27000000E+02 -0.34592E-01
 0.27050001E+02 -0.92594E-01
 0.27100000E+02 -0.10839E+00
 0.27150000E+02 -0.52848E-01
 0.27200001E+02  0.35205E-01
 0.27250000E+02  0.57456E-01
 0.27300001E+02  0.66493E-01
 0.27350000E+02  0.54067E-01
 0.27400000E+02  0.10164E-01
 0.27450001E+02 -0.73104E-01
 0.27500000E+02 -0.13249E+00
 0.27550001E+02 -0.13402E+00
 0.27600000E+02 -0.15502E+00
 0.27650000E+02 -0.19493E+00
 0.27700001E+02 -0.23267E+00
 0.27750000E+02 -0.25108E+00
 0.27800001E+02 -0.17892E+00
 0.27850000E+02 -0.12376E+00
 0.27900000E+02 -0.67655E-01
 0.27950001E+02  0.66760E-02
 0.28000000E+02  0.47535E-01
 0.28050001E+02  0.59767E-01
 0.28100000E+02  0.49943E-01
 0.28150000E+02  0.51370E-01
 0.28200001E+02  0.19028E-01
 0.28250000E+02 -0.51822E-01
 0.28300001E+02 -0.15082E+00
 0.28350000E+02 -0.15347E+00
 0.28400000E+02 -0.42200E-01
 0.28450001E+02  0.34483E-01
 0.28500000E+02  0.18124E-01
 0.28550001E+02 -0.47007E-01
 0.28600000E+02 -0.12202E+00
 0.28650000E+02 -0.11287E+00
 0.28700001E+02 -0.76691E-01
 0.28750000E+02 -0.74403E-01
 0.28800001E+02 -0.96294E-01
 0.28850000E+02 -0.94833E-01
 0.28900000E+02 -0.40601E-01
 0.28950001E+02  0.20295E-01
 0.29000000E+02  0.20738E-01
 0.29050001E+02 -0.38757E-01
 0.29100000E+02 -0.45347E-01
 0.29150000E+02 -0.20556E-01
 0.29200001E+02 -0.53574E-02
 0.29250000E+02  0.52103E-01
 0.29300001E+02  0.13285E+00
 0.29350000E+02  0.11323E+00
 0.29400000E+02  0.40998E-01
 0.29450001E+02 -0.78603E-02
 0.29500000E+02  0.14973E-01
 0.29550001E+02  0.40456E-01
 0.29600000E+02  0.49346E-01
 0.29650000E+02  0.63170E-01
 0.29700001E+02  0.12899E-01
 0.29750000E+02 -0.54127E-01
 0.29800001E+02 -0.88798E-01
 0.29850000E+02 -0.92538E-01
 0.29900000E+02 -0.55916E-01
 0.29950001E+02 -0.21023E-01
 0.30000000E+02  0.16970E-03
 0.30050001E+02  0.10822E-01
 0.30100000E+02  0.89611E-02
 0.30150000E+02  0.78258E-01
 0.30200001E+02  0.10919E+00
 0.30250000E+02  0.10669E+00
 0.30300001E+02  0.68119E-01
 0.30350000E+02 -0.42806E-02
 0.30400000E+02  0.13052E-01
 0.30450001E+02  0.82772E-01
 0.30500000E+02  0.10879E+00
 0.30550001E+02  0.58504E-01
 0.30600000E+02  0.36656E-01
 0.30650000E+02 -0.16199E-01
 0.30700001E+02 -0.39882E-01
 0.30750000E+02  0.41900E-01
 0.30800001E+02  0.11205E+00
 0.30850000E+02  0.15774E+00
 0.30900000E+02  0.11943E+00
 0.30950001E+02  0.80837E-01
 0.31000000E+02  0.73840E-01
 0.31050001E+02  0.29346E-01
 0.31100000E+02  0.93289E-02
 0.31150000E+02 -0.44323E-02
 0.31200001E+02 -0.17675E-01
 0.31250000E+02 -0.40417E-01
 0.31300001E+02 -0.37971E-01
 0.31350000E+02  0.84045E-02
 0.31400000E+02  0.46344E-01
 0.31450001E+02  0.80974E-01
 0.31500000E+02 -0.72204E-02
 0.31550001E+02 -0.60675E-01
 0.31600000E+02 -0.33208E-01
 0.31650000E+02 -0.38592E-01
 0.31700001E+02 -0.60206E-02
 0.31750000E+02  0.49427E-01
 0.31800001E+02  0.12133E+00
 0.31850000E+02  0.92127E-01
 0.31900000E+02  0.56592E-02
 0.31950001E+02 -0.69692E-01
 0.32000000E+02 -0.89433E-01
 0.32049999E+02 -0.96891E-01
 0.32100002E+02 -0.96682E-01
 0.32150002E+02 -0.65632E-01
 0.32200001E+02 -0.77232E-01
 0.32250000E+02 -0.50080E-01
 0.32299999E+02 -0.39374E-01
 0.32350002E+02 -0.66517E-01
 0.32400002E+02 -0.24336E-01
 0.32450001E+02  0.41484E-01
 0.32500000E+02  0.82394E-01
 0.32549999E+02  0.11588E+00
 0.32600002E+02  0.11993E+00
 0.32650002E+02  0.31206E-01
 0.32700001E+02 -0.63800E-01
 0.32750000E+02 -0.86132E-01
 0.32799999E+02 -0.11666E+00
 0.32850002E+02 -0.90305E-01
 0.32900002E+02  0.47292E-01
 0.32950001E+02  0.20434E+00
 0.33000000E+02  0.33788E+00
 0.33049999E+02  0.38329E+00
 0.33100002E+02  0.29721E+00
 0.33150002E+02  0.16034E+00
 0.33200001E+02  0.34028E-01
 0.33250000E+02 -0.46024E-01
 0.33299999E+02 -0.13119E+00
 0.33350002E+02 -0.22549E+00
 0.33400002E+02 -0.32976E+00
 0.33450001E+02 -0.41907E+00
 0.33500000E+02 -0.47922E+00
 0.33549999E+02 -0.49290E+00
 0.33600002E+02 -0.39838E+00
 0.33650002E+02 -0.30734E+00
 0.33700001E+02 -0.17717E+00
 0.33750000E+02 -0.10297E-01
 0.33799999E+02  0.12494E+00
 0.33850002E+02  0.19461E+00
 0.33900002E+02  0.19320E+00
 0.33950001E+02  0.10178E+00
 0.34000000E+02 -0.11387E+00
 0.34049999E+02 -0.38802E+00
 0.34100002E+02 -0.58667E+00
 0.34150002E+02 -0.57354E+00
 0.34200001E+02 -0.44574E+00
 0.34250000E+02 -0.16414E+00
 0.34299999E+02  0.16045E+00
 0.34350002E+02  0.42185E+00
 0.34400002E+02  0.51972E+00
 0.34450001E+02  0.49569E+00
 0.34500000E+02  0.50597E+00
 0.34549999E+02  0.36925E+00
 0.34600002E+02  0.14033E+00
 0.34650002E+02 -0.10422E+00
 0.34700001E+02 -0.27418E+00
 0.34750000E+02 -0.43659E+00
 0.34799999E+02 -0.61369E+00
 0.34850002E+02 -0.58504E+00
 0.34900002E+02 -0.42820E+00
 0.34950001E+02 -0.18026E+00
 0.35000000E+02  0.12577E+00
 0.35049999E+02  0.22113E+00
 0.35100002E+02  0.24026E+00
 0.35150002E+02  0.27715E+00
 0.35200001E+02  0.39554E+00
 0.35250000E+02  0.59798E+00
 0.35299999E+02  0.61315E+00
 0.35350002E+02  0.45850E+00
 0.35400002E+02  0.34905E+00
 0.35450001E+02  0.34717E+00
 0.35500000E+02  0.18482E+00
 0.35549999E+02  0.25239E-01
 0.35600002E+02 -0.98109E-01
 0.35650002E+02 -0.32557E+00
 0.35700001E+02 -0.58591E+00
 0.35750000E+02 -0.84522E+00
 0.35799999E+02 -0.83716E+00
 0.35850002E+02 -0.51653E+00
 0.35900002E+02 -0.11564E+00
 0.35950001E+02  0.19288E+00
 0.36000000E+02  0.37087E+00
 0.36049999E+02  0.36310E+00
 0.36100002E+02  0.25783E+00
 0.36150002E+02  0.17844E+00
 0.36200001E+02  0.46930E-02
 0.36250000E+02 -0.28076E+00
 0.36299999E+02 -0.67414E+00
 0.36350002E+02 -0.10000E+01
 0.36400002E+02 -0.95244E+00
 0.36450001E+02 -0.68646E+00
 0.36500000E+02 -0.42373E+00
 0.36549999E+02 -0.13461E+00
 0.36600002E+02  0.36455E-01
 0.36650002E+02  0.12689E+00
 0.36700001E+02  0.26586E+00
 0.36750000E+02  0.48286E+00
 0.36799999E+02  0.69512E+00
 0.36850002E+02  0.64143E+00
 0.36900002E+02  0.46782E+00
 0.36950001E+02  0.25290E+00
 0.37000000E+02  0.17661E+00
 0.37049999E+02  0.24685E+00
 0.37100002E+02  0.22567E+00
 0.37150002E+02  0.20413E+00
 0.37200001E+02  0.21538E+00
 0.37250000E+02  0.27661E+00
 0.37299999E+02  0.23067E+00
 0.37350002E+02  0.13472E+00
 0.37400002E+02  0.91362E-01
 0.37450001E+02  0.84008E-02
 0.37500000E+02 -0.32717E-01
 0.37549999E+02  0.41705E-01
 0.37600002E+02  0.15411E+00
 0.37650002E+02  0.14023E+00
 0.37700001E+02  0.17317E-01
 0.37750000E+02 -0.11122E+00
 0.37799999E+02 -0.12661E+00
 0.37850002E+02  0.64317E-02
 0.37900002E+02  0.15611E+00
 0.37950001E+02  0.25801E+00
 0.38000000E+02  0.30207E+00
 0.38049999E+02  0.21214E+00
 0.38100002E+02  0.14464E+00
 0.38150002E+02  0.13554E+00
 0.38200001E+02  0.31447E-01
 0.38250000E+02 -0.77651E-01
 0.38299999E+02 -0.21945E+00
 0.38350002E+02 -0.26221E+00
 0.38400002E+02 -0.24209E+00
 0.38450001E+02 -0.18022E+00
 0.38500000E+02 -0.96710E-01
 0.38549999E+02 -0.10120E+00
 0.38600002E+02 -0.12849E+00
 0.38650002E+02 -0.16337E+00
 0.38700001E+02 -0.18280E+00
 0.38750000E+02 -0.15384E+00
 0.38799999E+02 -0.11245E+00
 0.38850002E+02 -0.19665E+00
 0.38900002E+02 -0.28793E+00
 0.38950001E+02 -0.34832E+00
 0.39000000E+02 -0.32284E+00
 0.39049999E+02 -0.22375E+00
 0.39100002E+02 -0.15677E+00
 0.39150002E+02 -0.14514E+00
 0.39200001E+02 -0.81812E-01
 0.39250000E+02  0.49566E-01
 0.39299999E+02  0.18690E+00
 0.39350002E+02  0.26380E+00
 0.39400002E+02  0.22593E+00
 0.39450001E+02  0.91681E-01
 0.39500000E+02  0.17516E-01
 0.39549999E+02  0.15875E+00
 0.39600002E+02  0.29859E+00
 0.39650002E+02  0.34441E+00
 0.39700001E+02  0.25839E+00
 0.39750000E+02  0.64722E-01
 0.39799999E+02 -0.12314E+00
 0.39850002E+02 -0.17856E+00
 0.39900002E+02 -0.64436E-01
 0.39950001E+02  0.12696E-01
 0.40000000E+02 -0.29235E-01
 0.40049999E+02 -0.12793E+00
 0.40100002E+02 -0.30996E+00
 0.40150002E+02 -0.30732E+00
 0.40200001E+02 -0.27436E+00
 0.40250000E+02 -0.28169E+00
 0.40299999E+02 -0.17956E+00
 0.40350002E+02 -0.19773E+00
 0.40400002E+02 -0.14429E+00
 0.40450001E+02 -0.15380E+00
 0.40500000E+02 -0.12926E+00
 0.40549999E+02 -0.70986E-01
 0.40600002E+02 -0.15889E+00
 0.40650002E+02 -0.11066E+00
 0.40700001E+02 -0.30249E-01
 0.40750000E+02  0.76127E-01
 0.40799999E+02  0.17897E+00
 0.40850002E+02  0.24884E+00
 0.40900002E+02  0.38712E+00
 0.40950001E+02  0.51115E+00
 0.41000000E+02  0.57262E+00
 0.41049999E+02  0.51771E+00
 0.41100002E+02  0.42242E+00
 0.41150002E+02  0.32370E+00
 0.41200001E+02  0.15123E+00
 0.41250000E+02 -0.82197E-01
 0.41299999E+02 -0.27131E+00
 0.41350002E+02 -0.37608E+00
 0.41400002E+02 -0.41096E+00
 0.41450001E+02 -0.30918E+00
 0.41500000E+02 -0.21265E+00
 0.41549999E+02 -0.11017E+00
 0.41600002E+02  0.21736E-01
 0.41650002E+02  0.97170E-01
 0.41700001E+02  0.18972E+00
 0.41750000E+02  0.28122E+00
 0.41799999E+02  0.39849E+00
 0.41850002E+02  0.41028E+00
 0.41900002E+02  0.40975E+00
 0.41950001E+02  0.41685E+00
 0.42000000E+02  0.30988E+00
 0.42049999E+02  0.13962E+00
 0.42100002E+02  0.85677E-02
 0.42150002E+02  0.38182E-01
 0.42200001E+02  0.85653E-01
 0.42250000E+02  0.77635E-01
 0.42299999E+02  0.90887E-01
 0.42350002E+02  0.11263E+00
 0.42400002E+02  0.98843E-01
 0.42450001E+02  0.13639E+00
 0.42500000E+02  0.13949E+00
 0.42549999E+02  0.88665E-01
 0.42600002E+02 -0.60342E-02
 0.42650002E+02 -0.69881E-01
 0.42700001E+02 -0.13513E+00
 0.42750000E+02 -0.14926E+00
 0.42799999E+02 -0.12380E+00
 0.42850002E+02 -0.15288E+00
 0.42900002E+02 -0.22215E+00
 0.42950001E+02 -0.28761E+00
 0.43000000E+02 -0.12934E+00
 0.43049999E+02 -0.54953E-03
 0.43100002E+02  0.73355E-01
 0.43150002E+02  0.14142E+00
 0.43200001E+02  0.13017E+00
 0.43250000E+02  0.12295E+00
 0.43299999E+02  0.14186E+00
 0.43350002E+02  0.13943E+00
 0.43400002E+02  0.99054E-01
 0.43450001E+02 -0.10789E-01
 0.43500000E+02 -0.13737E+00
 0.43549999E+02 -0.15248E+00
 0.43600002E+02 -0.17414E+00
 0.43650002E+02 -0.16685E+00
 0.43700001E+02 -0.82942E-01
 0.43750000E+02  0.68742E-02
 0.43799999E+02  0.94221E-01
 0.43850002E+02  0.75503E-01
 0.43900002E+02 -0.79990E-02
 0.43950001E+02 -0.11027E+00
 0.44000000E+02 -0.21923E+00
 0.44049999E+02 -0.29591E+00
 0.44100002E+02 -0.37191E+00
 0.44150002E+02 -0.39816E+00
 0.44200001E+02 -0.35663E+00
 0.44250000E+02 -0.28010E+00
 0.44299999E+02 -0.22607E+00
 0.44350002E+02 -0.80765E-01
 0.44400002E+02  0.42125E-01
 0.44450001E+02  0.59615E-01
 0.44500000E+02  0.14764E+00
 0.44549999E+02  0.25680E+00
 0.44600002E+02  0.35528E+00
 0.44650002E+02  0.36617E+00
 0.44700001E+02  0.32219E+00
 0.44750000E+02  0.27863E+00
 0.44799999E+02  0.17701E+00
 0.44850002E+02  0.68685E-01
 0.44900002E+02 -0.21881E-01
 0.44950001E+02 -0.72632E-01
 0.45000000E+02 -0.86024E-01
 0.45049999E+02 -0.14719E+00
 0.45100002E+02 -0.22687E+00
 0.45150002E+02 -0.23114E+00
 0.45200001E+02 -0.23345E+00
 0.45250000E+02 -0.22759E+00
 0.45299999E+02 -0.13190E+00
 0.45350002E+02  0.25517E-01
 0.45400002E+02  0.16283E+00
 0.45450001E+02  0.24697E+00
 0.45500000E+02  0.30936E+00
 0.45549999E+02  0.29894E+00
 0.45600002E+02  0.26550E+00
 0.45650002E+02  0.23581E+00
 0.45700001E+02  0.17507E+00
 0.45750000E+02  0.84716E-01
 0.45799999E+02 -0.60416E-01
 0.45850002E+02 -0.20375E+00
 0.45900002E+02 -0.28208E+00
 0.45950001E+02 -0.27547E+00
 0.46000000E+02 -0.16688E+00
 0.46049999E+02 -0.58595E-03
 0.46100002E+02  0.15863E+00
 0.46150002E+02  0.26473E+00
 0.46200001E+02  0.34091E+00
 0.46250000E+02  0.41971E+00
 0.46299999E+02  0.35678E+00
 0.46350002E+02  0.23567E+00
 0.46400002E+02  0.13397E+00
 0.46450001E+02  0.62538E-01
 0.46500000E+02 -0.13038E-01
 0.46549999E+02 -0.69690E-01
 0.46600002E+02 -0.43482E-01
 0.46650002E+02 -0.42788E-01
 0.46700001E+02 -0.86401E-01
 0.46750000E+02 -0.14875E+00
 0.46799999E+02 -0.12081E+00
 0.46850002E+02 -0.18414E-01
 0.46900002E+02  0.91637E-01
 0.46950001E+02  0.12665E+00
 0.47000000E+02  0.60219E-01
 0.47049999E+02 -0.70804E-01
 0.47100002E+02 -0.14452E+00
 0.47150002E+02 -0.11845E+00
 0.47200001E+02 -0.71870E-01
 0.47250000E+02 -0.48324E-02
 0.47299999E+02  0.23551E-01
 0.47350002E+02 -0.40499E-02
 0.47400002E+02 -0.24830E-01
 0.47450001E+02  0.18242E-01
 0.47500000E+02  0.68991E-01
 0.47549999E+02  0.10296E+00
 0.47600002E+02  0.14653E+00
 0.47650002E+02  0.18991E+00
 0.47700001E+02  0.16877E+00
 0.47750000E+02  0.33454E-01
 0.47799999E+02 -0.73292E-01
 0.47850002E+02 -0.12853E+00
 0.47900002E+02 -0.15588E+00
 0.47950001E+02 -0.11732E+00
 0.48000000E+02 -0.99680E-01
 0.48049999E+02 -0.88638E-01
 0.48100002E+02 -0.63742E-01
 0.48150002E+02  0.59602E-02
 0.48200001E+02  0.93438E-01
 0.48250000E+02  0.14728E+00
 0.48299999E+02  0.12281E+00
 0.48350002E+02 -0.89629E-02
 0.48400002E+02 -0.18519E+00
 0.48450001E+02 -0.31598E+00
 0.48500000E+02 -0.31411E+00
 0.48549999E+02 -0.28342E+00
 0.48600002E+02 -0.20912E+00
 0.48650002E+02 -0.10866E+00
 0.48700001E+02 -0.72775E-01
 0.48750000E+02 -0.34806E-01
 0.48799999E+02 -0.24284E-01
 0.48850002E+02  0.33144E-02
 0.48900002E+02  0.51546E-01
 0.48950001E+02  0.48073E-01
 0.49000000E+02  0.36849E-01
 0.49049999E+02  0.24461E-01
 0.49100002E+02 -0.20607E-01
 0.49150002E+02 -0.53384E-01
 0.49200001E+02 -0.10387E-03
 0.49250000E+02  0.86009E-02
 0.49299999E+02 -0.17075E-01
 0.49350002E+02 -0.40860E-01
 0.49400002E+02 -0.63637E-01
 0.49450001E+02 -0.42680E-01
 0.49500000E+02 -0.99673E-01
 0.49549999E+02 -0.15404E+00
 0.49600002E+02 -0.15638E+00
 0.49650002E+02 -0.18746E+00
 0.49700001E+02 -0.20029E+00
 0.49750000E+02 -0.14937E+00
 0.49799999E+02  0.47708E-02
 0.49850002E+02  0.15411E+00
 0.49900002E+02  0.20879E+00
 0.49950001E+02  0.20251E+00
 0.50000000E+02  0.13222E+00
 0.50049999E+02  0.10582E+00
 0.50100002E+02  0.77760E-01
 0.50150002E+02  0.39125E-01
 0.50200001E+02  0.39750E-01
 0.50250000E+02  0.19208E-01
 0.50299999E+02  0.22048E-01
 0.50350002E+02  0.53879E-02
 0.50400002E+02  0.40999E-01
 0.50450001E+02  0.86414E-01
 0.50500000E+02  0.50726E-01
 0.50549999E+02  0.92431E-02
 0.50600002E+02 -0.51215E-01
 0.50650002E+02 -0.68310E-01
 0.50700001E+02 -0.72687E-01
 0.50750000E+02  0.76384E-02
 0.50799999E+02  0.10085E+00
 0.50850002E+02  0.13438E+00
 0.50900002E+02  0.20881E+00
 0.50950001E+02  0.26934E+00
 0.51000000E+02  0.29681E+00
 0.51049999E+02  0.22258E+00
 0.51100002E+02  0.15225E+00
 0.51150002E+02  0.11150E+00
 0.51200001E+02  0.22412E-01
 0.51250000E+02 -0.38467E-01
 0.51299999E+02 -0.52871E-01
 0.51350002E+02 -0.38901E-01
 0.51400002E+02 -0.14854E-01
 0.51450001E+02  0.49707E-01
 0.51500000E+02  0.98402E-01
 0.51549999E+02  0.76278E-01
 0.51600002E+02  0.29316E-01
 0.51650002E+02 -0.49136E-02
 0.51700001E+02 -0.16618E-01
 0.51750000E+02 -0.46345E-01
 0.51799999E+02 -0.73892E-01
 0.51850002E+02 -0.60643E-01
 0.51900002E+02 -0.63397E-01
 0.51950001E+02 -0.79965E-01
 0.52000000E+02 -0.77832E-01
 0.52049999E+02 -0.12249E+00
 0.52100002E+02 -0.20246E+00
 0.52150002E+02 -0.28247E+00
 0.52200001E+02 -0.31472E+00
 0.52250000E+02 -0.27598E+00
 0.52299999E+02 -0.20062E+00
 0.52350002E+02 -0.14359E+00
 0.52400002E+02 -0.78631E-01
 0.52450001E+02  0.64865E-02
 0.52500000E+02  0.80852E-01
 0.52549999E+02  0.15848E+00
 0.52600002E+02  0.19329E+00
 0.52650002E+02  0.15926E+00
 0.52700001E+02  0.76966E-01
 0.52750000E+02  0.32715E-02
 0.52799999E+02 -0.18766E-01
 0.52850002E+02 -0.50893E-01
 0.52900002E+02 -0.92492E-01
 0.52950001E+02 -0.92976E-01
 0.53000000E+02 -0.97686E-01
 0.53049999E+02 -0.76711E-01
 0.53100002E+02 -0.33566E-01
 0.53150002E+02  0.64189E-01
 0.53200001E+02  0.14423E+00
 0.53250000E+02  0.13451E+00
 0.53299999E+02  0.94401E-01
 0.53350002E+02  0.14747E-01
 0.53400002E+02 -0.58123E-01
 0.53450001E+02 -0.75390E-01
 0.53500000E+02 -0.29471E-01
 0.53549999E+02  0.16385E-01
 0.53600002E+02  0.35956E-01
 0.53650002E+02  0.30280E-01
 0.53700001E+02 -0.28175E-02
 0.53750000E+02 -0.16913E-01
 0.53799999E+02  0.71159E-02
 0.53850002E+02  0.57215E-01
 0.53900002E+02  0.12814E+00
 0.53950001E+02  0.16215E+00
 0.54000000E+02  0.13783E+00
 0.54049999E+02  0.81140E-01
 0.54100002E+02  0.74651E-02
 0.54150002E+02 -0.62676E-01
 0.54200001E+02 -0.13024E+00
 0.54250000E+02 -0.13138E+00
 0.54299999E+02 -0.57993E-01
 0.54350002E+02  0.29113E-01
 0.54400002E+02  0.67889E-01
 0.54450001E+02  0.67348E-01
 0.54500000E+02  0.70667E-01
 0.54549999E+02  0.55295E-01
 0.54600002E+02  0.51182E-01
 0.54650002E+02  0.66657E-01
 0.54700001E+02  0.74098E-01
 0.54750000E+02  0.48654E-01
 0.54799999E+02  0.15011E-01
 0.54850002E+02 -0.28526E-01
 0.54900002E+02 -0.10790E+00
 0.54950001E+02 -0.14567E+00
 0.55000000E+02 -0.13625E+00
 0.55049999E+02 -0.10510E+00
 0.55100002E+02 -0.83584E-01
 0.55150002E+02 -0.49373E-01
 0.55200001E+02 -0.15275E-02
 0.55250000E+02  0.50914E-01
 0.55299999E+02  0.12041E+00
 0.55350002E+02  0.11593E+00
 0.55400002E+02  0.74447E-01
 0.55450001E+02  0.15258E-01
 0.55500000E+02 -0.53899E-01
 0.55549999E+02 -0.89396E-01
 0.55600002E+02 -0.74011E-01
 0.55650002E+02 -0.36478E-01
 0.55700001E+02  0.22205E-01
 0.55750000E+02  0.89602E-01
 0.55799999E+02  0.71939E-01
 0.55850002E+02  0.93011E-02
 0.55900002E+02 -0.57891E-01
 0.55950001E+02 -0.94770E-01
 0.56000000E+02 -0.10049E+00
 0.56049999E+02 -0.83621E-01
 0.56100002E+02 -0.44775E-01
 0.56150002E+02 -0.24550E-01
 0.56200001E+02 -0.39554E-01
 0.56250000E+02 -0.58714E-01
 0.56299999E+02 -0.47135E-01
 0.56350002E+02 -0.52089E-01
 0.56400002E+02 -0.50155E-01
 0.56450001E+02 -0.88435E-03
 0.56500000E+02  0.65038E-01
 0.56549999E+02  0.11597E+00
 0.56600002E+02  0.14788E+00
 0.56650002E+02  0.13044E+00
 0.56700001E+02  0.54512E-01
 0.56750000E+02 -0.29657E-01
 0.56799999E+02 -0.81229E-01
 0.56850002E+02 -0.10607E+00
 0.56900002E+02 -0.11737E+00
 0.56950001E+02 -0.89857E-01
 0.57000000E+02 -0.75917E-01
 0.57049999E+02 -0.90331E-01
 0.57100002E+02 -0.88756E-01
 0.57150002E+02 -0.69319E-01
 0.57200001E+02 -0.50417E-01
 0.57250000E+02 -0.45908E-01
 0.57299999E+02 -0.67419E-01
 0.57350002E+02 -0.55303E-01
 0.57400002E+02  0.10986E-01
 0.57450001E+02  0.68354E-01
 0.57500000E+02  0.96643E-01
 0.57549999E+02  0.74986E-01
 0.57600002E+02  0.49936E-01
 0.57650002E+02  0.28124E-01
 0.57700001E+02  0.31871E-02
 0.57750000E+02 -0.23512E-02
 0.57799999E+02 -0.52377E-02
 0.57850002E+02  0.62411E-02
 0.57900002E+02  0.17844E-01
 0.57950001E+02  0.19747E-01
 0.58000000E+02 -0.19525E-01
 0.58049999E+02 -0.62132E-01
 0.58100002E+02 -0.78600E-01
 0.58150002E+02 -0.10611E+00
 0.58200001E+02 -0.10664E+00
 0.58250000E+02 -0.80623E-01
 0.58299999E+02 -0.34231E-01
 0.58350002E+02  0.21626E-01
 0.58400002E+02  0.63551E-01
 0.58450001E+02  0.72574E-01
 0.58500000E+02  0.86887E-01
 0.58549999E+02  0.92287E-01
 0.58600002E+02  0.57653E-01
 0.58650002E+02  0.33999E-01
 0.58700001E+02  0.36259E-01
 0.58750000E+02  0.51295E-01
 0.58799999E+02  0.35768E-01
 0.58850002E+02  0.19119E-01
 0.58900002E+02  0.26573E-02
 0.58950001E+02 -0.17921E-01
 0.59000000E+02 -0.32314E-01
 0.59049999E+02 -0.39740E-01
 0.59100002E+02 -0.19560E-02
 0.59150002E+02  0.35579E-01
 0.59200001E+02  0.80403E-01
 0.59250000E+02  0.15423E+00
 0.59299999E+02  0.24458E+00
 0.59350002E+02  0.29744E+00
 0.59400002E+02  0.26643E+00
 0.59450001E+02  0.21351E+00
 0.59500000E+02  0.14311E+00
 0.59549999E+02  0.62431E-01
 0.59600002E+02 -0.96499E-02
 0.59650002E+02 -0.61662E-01
 0.59700001E+02 -0.86859E-01
 0.59750000E+02 -0.11787E+00
 0.59799999E+02 -0.14478E+00
 0.59850002E+02 -0.15320E+00
 0.59900002E+02 -0.14894E+00
 0.59950001E+02 -0.14624E+00
 0.60000000E+02 -0.14598E+00
 0.60049999E+02 -0.14462E+00
 0.60100002E+02 -0.14105E+00
 0.60150002E+02 -0.13791E+00
 0.60200001E+02 -0.13862E+00
 0.60250000E+02 -0.12895E+00
 0.60299999E+02 -0.12189E+00
 0.60350002E+02 -0.10576E+00
 0.60400002E+02 -0.58940E-01
 0.60450001E+02 -0.15203E-01
 0.60500000E+02 -0.63794E-02
 0.60549999E+02 -0.47035E-03
 0.60600002E+02 -0.20912E-01
 0.60650002E+02 -0.56409E-01
 0.60700001E+02 -0.71273E-01
 0.60750000E+02 -0.84179E-01
 0.60799999E+02 -0.86825E-01
 0.60850002E+02 -0.92552E-01
 0.60900002E+02 -0.84872E-01
 0.60950001E+02 -0.82233E-01
 0.61000000E+02 -0.58075E-01
 0.61049999E+02  0.16525E-01
 0.61100002E+02  0.90231E-01
 0.61150002E+02  0.12250E+00
 0.61200001E+02  0.12364E+00
 0.61250000E+02  0.10623E+00
 0.61299999E+02  0.78721E-01
 0.61350002E+02  0.81379E-01
 0.61400002E+02  0.99942E-01
 0.61450001E+02  0.13764E+00
 0.61500000E+02  0.18637E+00
 0.61549999E+02  0.20459E+00
 0.61600002E+02  0.17992E+00
 0.61650002E+02  0.13968E+00
 0.61700001E+02  0.11312E+00
 0.61750000E+02  0.10466E+00
 0.61799999E+02  0.10381E+00
 0.61850002E+02  0.85624E-01
 0.61900002E+02  0.54485E-01
 0.61950001E+02  0.37522E-01
 0.62000000E+02  0.22889E-01
 0.62049999E+02  0.35031E-01
 0.62100002E+02  0.51488E-01
 0.62150002E+02  0.46890E-01
 0.62200001E+02  0.31482E-01
 0.62250000E+02 -0.15066E-01
 0.62299999E+02 -0.40082E-01
 0.62350002E+02 -0.54897E-01
 0.62400002E+02 -0.62604E-01
 0.62450001E+02 -0.60567E-01
 0.62500000E+02 -0.61179E-01
 0.62549999E+02 -0.47652E-01
 0.62600002E+02 -0.18995E-01
 0.62650002E+02  0.17019E-01
 0.62700001E+02  0.43955E-01
 0.62750000E+02  0.42196E-01
 0.62799999E+02  0.33366E-02
 0.62850002E+02 -0.49320E-01
 0.62900002E+02 -0.96673E-01
 0.62950001E+02 -0.13267E+00
 0.63000000E+02 -0.14390E+00
 0.63049999E+02 -0.12598E+00
 0.63100002E+02 -0.97967E-01
 0.63150002E+02 -0.55133E-01
 0.63200001E+02 -0.20096E-01
 0.63250000E+02 -0.41310E-02
 0.63299999E+02  0.81556E-02
 0.63350002E+02  0.12314E-01
 0.63400002E+02  0.53573E-02
 0.63450001E+02 -0.99878E-02
 0.63500000E+02 -0.21360E-01
 0.63549999E+02 -0.33631E-01
 0.63600002E+02 -0.36378E-01
 0.63650002E+02 -0.17993E-01
 0.63700001E+02  0.13403E-01
 0.63750000E+02  0.51144E-01
 0.63799999E+02  0.82146E-01
 0.63850002E+02  0.94058E-01
 0.63900002E+02  0.96378E-01
 0.63950001E+02  0.96986E-01
 0.64000000E+02  0.84843E-01
 0.64050003E+02  0.51598E-01
 0.64099998E+02  0.15495E-01
 0.64150002E+02  0.63343E-02
 0.64200005E+02  0.15867E-01
 0.64250000E+02  0.32990E-01
 0.64300003E+02  0.29476E-01
 0.64349998E+02  0.20696E-01
 0.64400002E+02  0.26499E-01
 0.64450005E+02  0.36335E-01
 0.64500000E+02  0.56253E-01
 0.64550003E+02  0.61792E-01
 0.64599998E+02  0.60273E-01
 0.64650002E+02  0.52030E-01
 0.64700005E+02  0.27538E-01
 0.64750000E+02 -0.88180E-02
 0.64800003E+02 -0.43272E-01
 0.64849998E+02 -0.60204E-01
 0.64900002E+02 -0.69695E-01
 0.64950005E+02 -0.68054E-01
 0.65000000E+02 -0.40109E-01
 0.65050003E+02 -0.11013E-01
 0.65099998E+02  0.11175E-01
 0.65150002E+02  0.19636E-01
 0.65200005E+02  0.64701E-02
 0.65250000E+02 -0.11460E-01
 0.65300003E+02 -0.32761E-01
 0.65349998E+02 -0.39550E-01
 0.65400002E+02 -0.43139E-01
 0.65450005E+02 -0.40794E-01
 0.65500000E+02 -0.26473E-01
 0.65550003E+02 -0.12822E-01
 0.65599998E+02  0.91348E-03
 0.65650002E+02  0.10930E-01
 0.65700005E+02  0.15545E-01
 0.65750000E+02  0.52183E-02
 0.65800003E+02 -0.59541E-02
 0.65849998E+02 -0.86382E-02
 0.65900002E+02 -0.15235E-01
 0.65950005E+02 -0.15823E-01
 0.66000000E+02 -0.30602E-02
 0.66050003E+02  0.10720E-01
 0.66099998E+02  0.24725E-01
 0.66150002E+02  0.38952E-01
 0.66200005E+02  0.40789E-01
 0.66250000E+02  0.22965E-01
 0.66300003E+02 -0.50257E-02
 0.66349998E+02 -0.37730E-01
 0.66400002E+02 -0.73454E-01
 0.66450005E+02 -0.98962E-01
 0.66500000E+02 -0.11429E+00
 0.66550003E+02 -0.11015E+00
 0.66599998E+02 -0.87958E-01
 0.66650002E+02 -0.52314E-01
 0.66700005E+02 -0.12081E-01
 0.66750000E+02  0.15085E-01
 0.66800003E+02  0.22541E-01
 0.66849998E+02  0.12970E-01
 0.66900002E+02 -0.18223E-02
 0.66950005E+02 -0.19811E-01
 0.67000000E+02 -0.34983E-01
 0.67050003E+02 -0.36460E-01
 0.67099998E+02 -0.19420E-01
 0.67150002E+02 -0.11954E-02
 0.67200005E+02  0.76503E-02
 0.67250000E+02 -0.17495E-04
 0.67300003E+02 -0.66640E-02
 0.67349998E+02  0.50954E-04
 0.67400002E+02  0.29061E-01
 0.67450005E+02  0.66223E-01
 0.67500000E+02  0.74102E-01
 0.67550003E+02  0.59678E-01
 0.67599998E+02  0.40657E-01
 0.67650002E+02  0.29591E-01
 0.67700005E+02  0.24758E-01
 0.67750000E+02  0.32294E-01
 0.67800003E+02  0.37806E-01
 0.67849998E+02  0.39313E-01
 0.67900002E+02  0.42653E-01
 0.67950005E+02  0.42370E-01
 0.68000000E+02  0.45499E-01
 0.68050003E+02  0.47450E-01
 0.68099998E+02  0.54892E-01
 0.68150002E+02  0.56340E-01
 0.68200005E+02  0.46629E-01
 0.68250000E+02  0.23838E-01
 0.68300003E+02 -0.14038E-02
 0.68349998E+02 -0.25747E-01
 0.68400002E+02 -0.50211E-01
 0.68450005E+02 -0.55665E-01
 0.68500000E+02 -0.62933E-01
 0.68550003E+02 -0.70272E-01
 0.68599998E+02 -0.73901E-01
 0.68650002E+02 -0.65855E-01
 0.68700005E+02 -0.63808E-01
 0.68750000E+02 -0.74925E-01
 0.68800003E+02 -0.88288E-01
 0.68849998E+02 -0.11813E+00
 0.68900002E+02 -0.13784E+00
 0.68950005E+02 -0.14355E+00
 0.69000000E+02 -0.12976E+00
 0.69050003E+02 -0.10003E+00
 0.69099998E+02 -0.68782E-01
 0.69150002E+02 -0.31283E-01
 0.69200005E+02  0.37983E-02
 0.69250000E+02  0.26779E-01
 0.69300003E+02  0.47156E-01
 0.69349998E+02  0.74730E-01
 0.69400002E+02  0.10906E+00
 0.69450005E+02  0.13895E+00
 0.69500000E+02  0.15315E+00
 0.69550003E+02  0.14336E+00
 0.69599998E+02  0.10982E+00
 0.69650002E+02  0.71548E-01
 0.69700005E+02  0.38055E-01
 0.69750000E+02  0.11000E-01
 0.69800003E+02 -0.14005E-01
 0.69849998E+02 -0.26879E-01
 0.69900002E+02 -0.18679E-01
 0.69950005E+02  0.70395E-02
 0.70000000E+02  0.45235E-01
 0.70050003E+02  0.80730E-01
 0.70099998E+02  0.89218E-01
 0.70150002E+02  0.70252E-01
 0.70200005E+02  0.36039E-01
 0.70250000E+02 -0.25069E-02
 0.70300003E+02 -0.25086E-01
 0.70349998E+02 -0.24519E-01
 0.70400002E+02 -0.14978E-01
 0.70450005E+02 -0.53708E-02
 0.70500000E+02  0.27741E-02
 0.70550003E+02  0.63774E-02
 0.70599998E+02  0.13573E-03
 0.70650002E+02 -0.28713E-01
 0.70700005E+02 -0.72953E-01
 0.70750000E+02 -0.10187E+00
 0.70800003E+02 -0.10609E+00
 0.70849998E+02 -0.94551E-01
 0.70900002E+02 -0.77196E-01
 0.70950005E+02 -0.62860E-01
 0.71000000E+02 -0.41022E-01
 0.71050003E+02 -0.18686E-01
 0.71099998E+02 -0.24101E-04
 0.71150002E+02  0.15685E-01
 0.71200005E+02  0.18299E-01
 0.71250000E+02  0.21754E-01
 0.71300003E+02  0.17390E-01
 0.71349998E+02 -0.99697E-02
 0.71400002E+02 -0.44277E-01
 0.71450005E+02 -0.68437E-01
 0.71500000E+02 -0.75568E-01
 0.71550003E+02 -0.65903E-01
 0.71599998E+02 -0.43227E-01
 0.71650002E+02 -0.20577E-01
 0.71700005E+02 -0.85473E-02
 0.71750000E+02 -0.10463E-01
 0.71800003E+02 -0.19213E-01
 0.71849998E+02 -0.23535E-01
 0.71900002E+02 -0.19153E-01
 0.71950005E+02 -0.10359E-01
 0.72000000E+02  0.78712E-02
 0.72050003E+02  0.31543E-01
 0.72099998E+02  0.50778E-01
 0.72150002E+02  0.60483E-01
 0.72200005E+02  0.60491E-01
 0.72250000E+02  0.66204E-01
 0.72300003E+02  0.68341E-01
 0.72349998E+02  0.62987E-01
 0.72400002E+02  0.51654E-01
 0.72450005E+02  0.28701E-01
 0.72500000E+02 -0.22778E-02
 0.72550003E+02 -0.23039E-01
 0.72599998E+02 -0.24509E-01
 0.72650002E+02 -0.23539E-01
 0.72700005E+02 -0.25524E-01
 0.72750000E+02 -0.20140E-01
 0.72800003E+02  0.16030E-03
 0.72849998E+02  0.18800E-01
 0.72900002E+02  0.26562E-01
 0.72950005E+02  0.33449E-01
 0.73000000E+02  0.39246E-01
 0.73050003E+02  0.31050E-01
 0.73099998E+02  0.25727E-01
 0.73150002E+02  0.31702E-01
 0.73200005E+02  0.24503E-01
 0.73250000E+02  0.45136E-02
 0.73300003E+02 -0.16744E-01
 0.73349998E+02 -0.28349E-01
 0.73400002E+02 -0.36912E-01
 0.73450005E+02 -0.35987E-01
 0.73500000E+02 -0.24888E-01
 0.73550003E+02 -0.27044E-02
 0.73599998E+02  0.27329E-01
 0.73650002E+02  0.47155E-01
 0.73700005E+02  0.61286E-01
 0.73750000E+02  0.67420E-01
 0.73800003E+02  0.68995E-01
 0.73849998E+02  0.71070E-01
 0.73900002E+02  0.76677E-01
 0.73950005E+02  0.82289E-01
 0.74000000E+02  0.75055E-01
 0.74050003E+02  0.55303E-01
 0.74099998E+02  0.33377E-01
 0.74150002E+02  0.15478E-01
 0.74200005E+02  0.31010E-02
 0.74250000E+02 -0.20658E-03
 0.74300003E+02  0.59686E-02
 0.74349998E+02  0.87242E-02
 0.74400002E+02  0.11017E-02
 0.74450005E+02 -0.16375E-01
 0.74500000E+02 -0.27284E-01
 0.74550003E+02 -0.21954E-01
 0.74599998E+02 -0.52778E-02
 0.74650002E+02  0.10282E-01
 0.74700005E+02  0.13558E-01
 0.74750000E+02  0.20712E-04
 0.74800003E+02 -0.19989E-01
 0.74849998E+02 -0.21402E-01
 0.74900002E+02 -0.16801E-01
 0.74950005E+02 -0.64277E-02
 0.75000000E+02  0.67176E-02
 0.75050003E+02  0.18288E-01
 0.75099998E+02  0.27317E-01
 0.75150002E+02  0.22101E-01
 0.75200005E+02  0.21644E-01
 0.75250000E+02  0.23416E-01
 0.75300003E+02  0.21715E-01
 0.75349998E+02  0.16707E-01
 0.75400002E+02  0.14811E-01
 0.75450005E+02  0.76551E-02
 0.75500000E+02 -0.11389E-01
 0.75550003E+02 -0.27571E-01
 0.75599998E+02 -0.42158E-01
 0.75650002E+02 -0.39361E-01
 0.75700005E+02 -0.33251E-01
 0.75750000E+02 -0.31017E-01
 0.75800003E+02 -0.30471E-01
 0.75849998E+02 -0.30897E-01
 0.75900002E+02 -0.23222E-01
 0.75950005E+02 -0.17171E-01
 0.76000000E+02 -0.79290E-02
 0.76050003E+02 -0.54728E-02
 0.76099998E+02 -0.10003E-01
 0.76150002E+02 -0.18697E-01
 0.76200005E+02 -0.30081E-01
 0.76250000E+02 -0.35939E-01
 0.76300003E+02 -0.42517E-01
 0.76349998E+02 -0.42920E-01
 0.76400002E+02 -0.41669E-01
 0.76450005E+02 -0.44670E-01
 0.76500000E+02 -0.48520E-01
 0.76550003E+02 -0.53479E-01
 0.76599998E+02 -0.53387E-01
 0.76650002E+02 -0.49931E-01
 0.76700005E+02 -0.35576E-01
 0.76750000E+02 -0.15940E-02
 0.76800003E+02  0.40305E-01
 0.76849998E+02  0.80451E-01
 0.76900002E+02  0.11209E+00
 0.76950005E+02  0.12523E+00
 0.77000000E+02  0.11964E+00
 0.77050003E+02  0.10233E+00
 0.77099998E+02  0.70777E-01
 0.77150002E+02  0.37611E-01
 0.77200005E+02  0.11611E-01
 0.77250000E+02 -0.71570E-02
 0.77300003E+02 -0.20577E-01
 0.77349998E+02 -0.32466E-01
 0.77400002E+02 -0.35015E-01
 0.77450005E+02 -0.36160E-01
 0.77500000E+02 -0.33091E-01
 0.77550003E+02 -0.23228E-01
 0.77599998E+02 -0.12175E-01
 0.77650002E+02  0.54655E-02
 0.77700005E+02  0.23404E-01
 0.77750000E+02  0.33551E-01
 0.77800003E+02  0.37970E-01
 0.77849998E+02  0.40910E-01
 0.77900002E+02  0.45096E-01
 0.77950005E+02  0.44648E-01
 0.78000000E+02  0.40628E-01
 0.78050003E+02  0.38847E-01
 0.78099998E+02  0.33395E-01
 0.78150002E+02  0.25644E-01
 0.78200005E+02  0.30116E-01
 0.78250000E+02  0.36100E-01
 0.78300003E+02  0.22858E-01
 0.78349998E+02 -0.29192E-03
 0.78400002E+02 -0.20425E-01
 0.78450005E+02 -0.24300E-01
 0.78500000E+02 -0.14548E-01
 0.78550003E+02 -0.62621E-02
 0.78599998E+02  0.27500E-02
 0.78650002E+02  0.13300E-01
 0.78700005E+02  0.22516E-01
 0.78750000E+02  0.27601E-01
 0.78800003E+02  0.25559E-01
 0.78849998E+02  0.16033E-01
 0.78900002E+02 -0.20114E-02
 0.78950005E+02 -0.24221E-01
 0.79000000E+02 -0.41287E-01
 0.79050003E+02 -0.47404E-01
 0.79099998E+02 -0.45451E-01
 0.79150002E+02 -0.42138E-01
 0.79200005E+02 -0.36638E-01
 0.79250000E+02 -0.31725E-01
 0.79300003E+02 -0.28241E-01
 0.79349998E+02 -0.23569E-01
 0.79400002E+02 -0.19227E-01
 0.79450005E+02 -0.19218E-01
 0.79500000E+02 -0.27248E-01
 0.79550003E+02 -0.44065E-01
 0.79599998E+02 -0.60226E-01
 0.79650002E+02 -0.61032E-01
 0.79700005E+02 -0.50869E-01
 0.79750000E+02 -0.38115E-01
 0.79800003E+02 -0.21408E-01
 0.79849998E+02 -0.17434E-02
 0.79900002E+02  0.12798E-01
 0.79950005E+02  0.18381E-01
 0.80000000E+02  0.20280E-01
 0.80050003E+02  0.24292E-01
 0.80099998E+02  0.30479E-01
 0.80150002E+02  0.40539E-01
 0.80200005E+02  0.44546E-01
 0.80250000E+02  0.35800E-01
 0.80300003E+02  0.27375E-01
 0.80349998E+02  0.23333E-01
 0.80400002E+02  0.14328E-01
 0.80450005E+02  0.49904E-02
 0.80500000E+02  0.10578E-01
 0.80550003E+02  0.24061E-01
 0.80599998E+02  0.38779E-01
 0.80650002E+02  0.49381E-01
 0.80700005E+02  0.50174E-01
 0.80750000E+02  0.42379E-01
 0.80800003E+02  0.23584E-01
 0.80849998E+02  0.31347E-02
 0.80900002E+02 -0.94540E-02
 0.80950005E+02 -0.12508E-01
 0.81000000E+02 -0.15396E-02
 0.81050003E+02  0.18186E-01
 0.81099998E+02  0.39976E-01
 0.81150002E+02  0.56273E-01
 0.81200005E+02  0.60631E-01
 0.81250000E+02  0.55349E-01
 0.81300003E+02  0.36732E-01
 0.81349998E+02  0.13645E-01
 0.81400002E+02 -0.41096E-02
 0.81450005E+02 -0.14143E-01
 0.81500000E+02 -0.19134E-01
 0.81550003E+02 -0.16078E-01
 0.81599998E+02 -0.10782E-01
 0.81650002E+02 -0.10491E-01
 0.81700005E+02 -0.13826E-01
 0.81750000E+02 -0.26671E-01
 0.81800003E+02 -0.44048E-01
 0.81849998E+02 -0.59422E-01
 0.81900002E+02 -0.68412E-01
 0.81950005E+02 -0.69557E-01
 0.82000000E+02 -0.63799E-01
 0.82050003E+02 -0.60655E-01
 0.82099998E+02 -0.63943E-01
 0.82150002E+02 -0.68665E-01
 0.82200005E+02 -0.66587E-01
 0.82250000E+02 -0.56842E-01
 0.82300003E+02 -0.45327E-01
 0.82349998E+02 -0.33323E-01
 0.82400002E+02 -0.24668E-01
 0.82450005E+02 -0.19747E-01
 0.82500000E+02 -0.12315E-01
 0.82550003E+02 -0.10750E-02
 0.82599998E+02  0.19976E-02
 0.82650002E+02 -0.19645E-02
 0.82700005E+02 -0.59121E-02
 0.82750000E+02 -0.79959E-02
 0.82800003E+02 -0.66558E-02
 0.82849998E+02 -0.85128E-02
 0.82900002E+02 -0.18838E-01
 0.82950005E+02 -0.32973E-01
 0.83000000E+02 -0.35302E-01
 0.83050003E+02 -0.24174E-01
 0.83099998E+02 -0.43604E-02
 0.83150002E+02  0.19974E-01
 0.83200005E+02  0.41870E-01
 0.83250000E+02  0.53126E-01
 0.83300003E+02  0.46282E-01
 0.83349998E+02  0.26634E-01
 0.83400002E+02  0.24900E-02
 0.83450005E+02 -0.16559E-01
 0.83500000E+02 -0.27261E-01
 0.83550003E+02 -0.29541E-01
 0.83599998E+02 -0.29977E-01
 0.83650002E+02 -0.34897E-01
 0.83700005E+02 -0.41561E-01
 0.83750000E+02 -0.44078E-01
 0.83800003E+02 -0.47024E-01
 0.83849998E+02 -0.58685E-01
 0.83900002E+02 -0.69954E-01
 0.83950005E+02 -0.70678E-01
 0.84000000E+02 -0.54096E-01
 0.84050003E+02 -0.24392E-01
 0.84099998E+02  0.79714E-02
 0.84150002E+02  0.26099E-01
 0.84200005E+02  0.30180E-01
 0.84250000E+02  0.31967E-01
 0.84300003E+02  0.29327E-01
 0.84349998E+02  0.20917E-01
 0.84400002E+02  0.11237E-01
 0.84450005E+02  0.11202E-01
 0.84500000E+02  0.22449E-01
 0.84550003E+02  0.39281E-01
 0.84599998E+02  0.56588E-01
 0.84650002E+02  0.68351E-01
 0.84700005E+02  0.69800E-01
 0.84750000E+02  0.68461E-01
 0.84800003E+02  0.62695E-01
 0.84849998E+02  0.49335E-01
 0.84900002E+02  0.35265E-01
 0.84950005E+02  0.19121E-01
 0.85000000E+02  0.81831E-02
 0.85050003E+02  0.49832E-02
 0.85099998E+02  0.63326E-02
 0.85150002E+02  0.73710E-02
 0.85200005E+02  0.49026E-02
 0.85250000E+02  0.15888E-02
 0.85300003E+02 -0.41921E-02
 0.85349998E+02 -0.76309E-02
 0.85400002E+02 -0.75636E-02
 0.85450005E+02 -0.39080E-02
 0.85500000E+02  0.21981E-02
 0.85550003E+02  0.10915E-01
 0.85599998E+02  0.18206E-01
 0.85650002E+02  0.13510E-01
 0.85700005E+02 -0.87456E-03
 0.85750000E+02 -0.19734E-01
 0.85800003E+02 -0.32724E-01
 0.85849998E+02 -0.35305E-01
 0.85900002E+02 -0.35667E-01
 0.85950005E+02 -0.33825E-01
 0.86000000E+02 -0.26943E-01
 0.86050003E+02 -0.17834E-01
 0.86099998E+02 -0.12026E-01
 0.86150002E+02 -0.64958E-02
 0.86200005E+02 -0.25024E-02
 0.86250000E+02 -0.57389E-02
 0.86300003E+02 -0.99363E-02
 0.86349998E+02 -0.12235E-01
 0.86400002E+02 -0.11356E-01
 0.86450005E+02 -0.97753E-02
 0.86500000E+02 -0.11428E-01
 0.86550003E+02 -0.16458E-01
 0.86599998E+02 -0.25913E-01
 0.86650002E+02 -0.37102E-01
 0.86700005E+02 -0.43215E-01
 0.86750000E+02 -0.42821E-01
 0.86800003E+02 -0.37733E-01
 0.86849998E+02 -0.30049E-01
 0.86900002E+02 -0.18811E-01
 0.86950005E+02 -0.43486E-02
 0.87000000E+02  0.40195E-02
 0.87050003E+02  0.10921E-01
 0.87099998E+02  0.22116E-01
 0.87150002E+02  0.34546E-01
 0.87200005E+02  0.40905E-01
 0.87250000E+02  0.38118E-01
 0.87300003E+02  0.34055E-01
 0.87349998E+02  0.34232E-01
 0.87400002E+02  0.34624E-01
 0.87450005E+02  0.33727E-01
 0.87500000E+02  0.37353E-01
 0.87550003E+02  0.41014E-01
 0.87599998E+02  0.39369E-01
 0.87650002E+02  0.33626E-01
 0.87700005E+02  0.25087E-01
 0.87750000E+02  0.14608E-01
 0.87800003E+02  0.17079E-02
 0.87849998E+02 -0.44234E-02
 0.87900002E+02  0.32011E-02
 0.87950005E+02  0.14189E-01
 0.88000000E+02  0.23808E-01
 0.88050003E+02  0.24779E-01
 0.88099998E+02  0.21620E-01
 0.88150002E+02  0.21766E-01
 0.88200005E+02  0.22835E-01
 0.88250000E+02  0.25673E-01
 0.88300003E+02  0.23943E-01
 0.88349998E+02  0.15929E-01
 0.88400002E+02  0.28700E-02
 0.88450005E+02 -0.10517E-01
 0.88500000E+02 -0.21301E-01
 0.88550003E+02 -0.28210E-01
 0.88599998E+02 -0.32388E-01
 0.88650002E+02 -0.32151E-01
 0.88700005E+02 -0.31602E-01
 0.88750000E+02 -0.36219E-01
 0.88800003E+02 -0.39142E-01
 0.88849998E+02 -0.39534E-01
 0.88900002E+02 -0.36822E-01
 0.88950005E+02 -0.27157E-01
 0.89000000E+02 -0.13788E-01
 0.89050003E+02 -0.80164E-02
 0.89099998E+02 -0.12344E-01
 0.89150002E+02 -0.20296E-01
 0.89200005E+02 -0.25581E-01
 0.89250000E+02 -0.27107E-01
 0.89300003E+02 -0.30910E-01
 0.89349998E+02 -0.32736E-01
 0.89400002E+02 -0.29075E-01
 0.89450005E+02 -0.23173E-01
 0.89500000E+02 -0.18342E-01
 0.89550003E+02 -0.16903E-01
 0.89599998E+02 -0.18570E-01
 0.89650002E+02 -0.22501E-01
 0.89700005E+02 -0.23888E-01
 0.89750000E+02 -0.20315E-01
 0.89800003E+02 -0.86750E-02
 0.89849998E+02  0.88931E-02
 0.89900002E+02  0.25236E-01
 0.89950005E+02  0.33359E-01
 0.90000000E+02  0.32675E-01
 0.90050003E+02  0.33145E-01
 0.90099998E+02  0.40972E-01
 0.90150002E+02  0.51796E-01
 0.90200005E+02  0.59068E-01
 0.90250000E+02  0.63242E-01
 0.90300003E+02  0.64565E-01
 0.90349998E+02  0.62329E-01
 0.90400002E+02  0.59781E-01
 0.90450005E+02  0.58973E-01
 0.90500000E+02  0.61418E-01
 0.90550003E+02  0.61641E-01
 0.90599998E+02  0.60815E-01
 0.90650002E+02  0.63227E-01
 0.90700005E+02  0.64869E-01
 0.90750000E+02  0.64945E-01
 0.90800003E+02  0.62200E-01
 0.90849998E+02  0.57071E-01
 0.90900002E+02  0.48273E-01
 0.90950005E+02  0.35504E-01
 0.91000000E+02  0.19990E-01
 0.91050003E+02  0.59119E-02
 0.91099998E+02 -0.63052E-02
 0.91150002E+02 -0.17600E-01
 0.91200005E+02 -0.23720E-01
 0.91250000E+02 -0.22725E-01
 0.91300003E+02 -0.18691E-01
 0.91349998E+02 -0.16698E-01
 0.91400002E+02 -0.19287E-01
 0.91450005E+02 -0.25525E-01
 0.91500000E+02 -0.31562E-01
 0.91550003E+02 -0.38357E-01
 0.91599998E+02 -0.47537E-01
 0.91650002E+02 -0.58452E-01
 0.91700005E+02 -0.71392E-01
 0.91750000E+02 -0.83922E-01
 0.91800003E+02 -0.88150E-01
 0.91849998E+02 -0.79272E-01
 0.91900002E+02 -0.60243E-01
 0.91950005E+02 -0.38756E-01
 0.92000000E+02 -0.19902E-01
 0.92050003E+02 -0.89323E-02
 0.92099998E+02 -0.53858E-02
 0.92150002E+02 -0.42532E-02
 0.92200005E+02 -0.50423E-02
 0.92250000E+02 -0.27292E-02
 0.92300003E+02  0.56935E-02
 0.92349998E+02  0.14203E-01
 0.92400002E+02  0.13645E-01
 0.92450005E+02  0.39117E-02
 0.92500000E+02 -0.76032E-02
 0.92550003E+02 -0.19107E-01
 0.92599998E+02 -0.24735E-01
 0.92650002E+02 -0.21414E-01
 0.92700005E+02 -0.13001E-01
 0.92750000E+02 -0.55451E-02
 0.92800003E+02  0.32873E-02
 0.92849998E+02  0.14166E-01
 0.92900002E+02  0.25665E-01
 0.92950005E+02  0.39506E-01
 0.93000000E+02  0.49822E-01
 0.93050003E+02  0.54562E-01
 0.93099998E+02  0.53227E-01
 0.93150002E+02  0.51025E-01
 0.93200005E+02  0.49789E-01
 0.93250000E+02  0.48541E-01
 0.93300003E+02  0.45061E-01
 0.93349998E+02  0.37334E-01
 0.93400002E+02  0.29172E-01
 0.93450005E+02  0.20170E-01
 0.93500000E+02  0.10801E-01
 0.93550003E+02  0.25383E-02
 0.93599998E+02 -0.76687E-02
 0.93650002E+02 -0.17003E-01
 0.93700005E+02 -0.21761E-01
 0.93750000E+02 -0.25581E-01
 0.93800003E+02 -0.31427E-01
 0.93849998E+02 -0.40863E-01
 0.93900002E+02 -0.52687E-01
 0.93950005E+02 -0.64165E-01
 0.94000000E+02 -0.73664E-01
 0.94050003E+02 -0.81807E-01
 0.94099998E+02 -0.84917E-01
 0.94150002E+02 -0.79676E-01
 0.94200005E+02 -0.66840E-01
 0.94250000E+02 -0.48711E-01
 0.94300003E+02 -0.26639E-01
 0.94349998E+02 -0.33553E-02
 0.94400002E+02  0.14189E-01
 0.94450005E+02  0.25862E-01
 0.94500000E+02  0.31210E-01
 0.94550003E+02  0.31439E-01
 0.94599998E+02  0.30858E-01
 0.94650002E+02  0.31242E-01
 0.94700005E+02  0.32512E-01
 0.94750000E+02  0.34474E-01
 0.94800003E+02  0.40230E-01
 0.94849998E+02  0.46798E-01
 0.94900002E+02  0.49972E-01
 0.94950005E+02  0.48511E-01
 0.95000000E+02  0.42930E-01
 0.95050003E+02  0.37069E-01
 0.95099998E+02  0.32817E-01
 0.95150002E+02  0.30984E-01
 0.95200005E+02  0.31883E-01
 0.95250000E+02  0.32854E-01
 0.95300003E+02  0.29496E-01
 0.95349998E+02  0.19303E-01
 0.95400002E+02  0.60133E-02
 0.95450005E+02 -0.72504E-02
 0.95500000E+02 -0.19039E-01
 0.95550003E+02 -0.26635E-01
 0.95599998E+02 -0.33839E-01
 0.95650002E+02 -0.40283E-01
 0.95700005E+02 -0.40914E-01
 0.95750000E+02 -0.34266E-01
 0.95800003E+02 -0.27242E-01
 0.95849998E+02 -0.24090E-01
 0.95900002E+02 -0.21386E-01
 0.95950005E+02 -0.18043E-01
 0.96000000E+02 -0.13803E-01
 0.96050003E+02 -0.10890E-01
 0.96099998E+02 -0.11273E-01
 0.96150002E+02 -0.13052E-01
 0.96200005E+02 -0.11961E-01
 0.96250000E+02 -0.11397E-01
 0.96300003E+02 -0.76879E-02
 0.96349998E+02  0.77888E-03
 0.96400002E+02  0.83574E-02
 0.96450005E+02  0.16096E-01
 0.96500000E+02  0.21987E-01
 0.96550003E+02  0.26265E-01
 0.96599998E+02  0.28759E-01
 0.96650002E+02  0.30964E-01
 0.96700005E+02  0.29520E-01
 0.96750000E+02  0.24813E-01
 0.96800003E+02  0.23080E-01
 0.96849998E+02  0.23664E-01
 0.96900002E+02  0.23406E-01
 0.96950005E+02  0.22605E-01
 0.97000000E+02  0.24663E-01
 0.97050003E+02  0.26063E-01
 0.97099998E+02  0.26408E-01
 0.97150002E+02  0.25440E-01
 0.97200005E+02  0.21670E-01
 0.97250000E+02  0.18477E-01
 0.97300003E+02  0.13443E-01
 0.97349998E+02  0.37232E-02
 0.97400002E+02 -0.74117E-02
 0.97450005E+02 -0.17756E-01
 0.97500000E+02 -0.26007E-01
 0.97550003E+02 -0.29171E-01
 0.97599998E+02 -0.24461E-01
 0.97650002E+02 -0.12953E-01
 0.97700005E+02  0.65265E-03
 0.97750000E+02  0.10653E-01
 0.97800003E+02  0.13045E-01
 0.97849998E+02  0.10721E-01
 0.97900002E+02  0.71953E-02
 0.97950005E+02  0.36265E-02
 0.98000000E+02  0.14854E-02
 0.98050003E+02  0.18391E-02
 0.98099998E+02  0.37354E-02
 0.98150002E+02  0.66662E-02
 0.98200005E+02  0.11955E-01
 0.98250000E+02  0.15951E-01
 0.98300003E+02  0.17594E-01
 0.98349998E+02  0.18038E-01
 0.98400002E+02  0.17465E-01
 0.98450005E+02  0.14054E-01
 0.98500000E+02  0.94780E-02
 0.98550003E+02  0.55127E-02
 0.98599998E+02 -0.25402E-02
 0.98650002E+02 -0.94423E-02
 0.98700005E+02 -0.11542E-01
 0.98750000E+02 -0.11261E-01
 0.98800003E+02 -0.98329E-02
 0.98849998E+02 -0.10188E-01
 0.98900002E+02 -0.11152E-01
 0.98950005E+02 -0.10494E-01
 0.99000000E+02 -0.95509E-02
 0.99050003E+02 -0.12083E-01
 0.99099998E+02 -0.16464E-01
 0.99150002E+02 -0.18546E-01
 0.99200005E+02 -0.19034E-01
 0.99250000E+02 -0.15658E-01
 0.99300003E+02 -0.81606E-02
 0.99349998E+02 -0.20120E-02
 0.99400002E+02 -0.10295E-02
 0.99450005E+02 -0.47959E-02
 0.99500000E+02 -0.11956E-01
 0.99550003E+02 -0.20744E-01
 0.99599998E+02 -0.28234E-01
 0.99650002E+02 -0.31570E-01
 0.99700005E+02 -0.30450E-01
 0.99750000E+02 -0.27708E-01
 0.99800003E+02 -0.23900E-01
 0.99849998E+02 -0.21776E-01
 0.99900002E+02 -0.23532E-01
 0.99950005E+02 -0.28273E-01
 0.10000000E+03 -0.34147E-01
 0.10005000E+03 -0.40067E-01
 0.10010000E+03 -0.45149E-01
 0.10015000E+03 -0.46909E-01
 0.10020000E+03 -0.46766E-01
 0.10025000E+03 -0.46211E-01
 0.10030000E+03 -0.43914E-01
 0.10035000E+03 -0.39386E-01
 0.10040000E+03 -0.34981E-01
 0.10045000E+03 -0.30371E-01
 0.10050000E+03 -0.23811E-01
 0.10055000E+03 -0.17185E-01
 0.10060000E+03 -0.11234E-01
 0.10065000E+03 -0.80636E-02
 0.10070000E+03 -0.73972E-02
 0.10075000E+03 -0.48517E-02
 0.10080000E+03  0.14012E-03
 0.10085000E+03  0.64090E-02
 0.10090000E+03  0.96928E-02
 0.10095000E+03  0.74721E-02
 0.10100000E+03  0.13611E-02
 0.10105000E+03 -0.83894E-02
 0.10110000E+03 -0.19554E-01
 0.10115000E+03 -0.28409E-01
 0.10120000E+03 -0.33683E-01
 0.10125000E+03 -0.34093E-01
 0.10130000E+03 -0.28258E-01
 0.10135000E+03 -0.17524E-01
 0.10140000E+03 -0.40234E-02
 0.10145000E+03  0.79074E-02
 0.10150000E+03  0.17494E-01
 0.10155000E+03  0.29377E-01
 0.10160000E+03  0.39708E-01
 0.10165000E+03  0.42972E-01
 0.10170000E+03  0.40842E-01
 0.10175000E+03  0.36921E-01
 0.10180000E+03  0.34109E-01
 0.10185000E+03  0.31701E-01
 0.10190000E+03  0.27211E-01
 0.10195000E+03  0.20191E-01
 0.10200000E+03  0.12273E-01
 0.10205000E+03  0.72628E-02
 0.10210000E+03  0.97311E-02
 0.10215000E+03  0.18080E-01
 0.10220000E+03  0.28783E-01
 0.10225000E+03  0.37828E-01
 0.10230000E+03  0.41817E-01
 0.10235000E+03  0.40119E-01
 0.10240000E+03  0.33750E-01
 0.10245000E+03  0.25370E-01
 0.10250000E+03  0.15822E-01
 0.10255000E+03  0.81788E-02
 0.10260000E+03  0.68909E-02
 0.10265000E+03  0.11924E-01
 0.10270000E+03  0.18248E-01
 0.10275000E+03  0.22135E-01
 0.10280000E+03  0.21388E-01
 0.10285000E+03  0.14609E-01
 0.10290000E+03  0.62780E-02
 0.10295000E+03  0.10434E-02
 0.10300000E+03 -0.20486E-02
 0.10305000E+03 -0.22905E-02
 0.10310000E+03  0.17939E-02
 0.10315000E+03  0.70363E-02
 0.10320000E+03  0.12854E-01
 0.10325000E+03  0.19722E-01
 0.10330000E+03  0.22141E-01
 0.10335000E+03  0.16168E-01
 0.10340000E+03  0.66041E-02
 0.10345000E+03 -0.21531E-02
 0.10350000E+03 -0.93879E-02
 0.10355000E+03 -0.15472E-01
 0.10360000E+03 -0.18020E-01
 0.10365000E+03 -0.16435E-01
 0.10370000E+03 -0.13614E-01
 0.10375000E+03 -0.81042E-02
 0.10380000E+03 -0.14695E-03
 0.10385000E+03  0.86688E-02
 0.10390000E+03  0.15187E-01
 0.10395000E+03  0.17019E-01
 0.10400000E+03  0.14716E-01
 0.10405000E+03  0.10670E-01
 0.10410000E+03  0.58892E-02
 0.10415000E+03  0.20064E-02
 0.10420000E+03  0.89522E-03
 0.10425000E+03  0.12984E-02
 0.10430000E+03  0.15091E-02
 0.10435000E+03 -0.43511E-03
 0.10440000E+03 -0.20965E-02
 0.10445000E+03 -0.22703E-02
 0.10450000E+03 -0.13263E-02
 0.10455000E+03 -0.12258E-02
 0.10460000E+03 -0.54268E-02
 0.10465000E+03 -0.12551E-01
 0.10470000E+03 -0.15824E-01
 0.10475000E+03 -0.11161E-01
 0.10480000E+03 -0.89866E-04
 0.10485000E+03  0.12339E-01
 0.10490000E+03  0.19602E-01
 0.10495000E+03  0.21980E-01
 0.10500000E+03  0.19660E-01
 0.10505000E+03  0.13586E-01
 0.10510000E+03  0.55814E-02
 0.10515000E+03 -0.56717E-02
 0.10520000E+03 -0.20361E-01
 0.10525000E+03 -0.34960E-01
 0.10530000E+03 -0.44707E-01
 0.10535000E+03 -0.49511E-01
 0.10540000E+03 -0.49330E-01
 0.10545000E+03 -0.44713E-01
 0.10550000E+03 -0.38137E-01
 0.10555000E+03 -0.30696E-01
 0.10560000E+03 -0.23512E-01
 0.10565000E+03 -0.18058E-01
 0.10570000E+03 -0.13151E-01
 0.10575000E+03 -0.88194E-02
 0.10580000E+03 -0.37453E-02
 0.10585000E+03  0.68311E-03
 0.10590000E+03  0.20807E-02
 0.10595000E+03 -0.24464E-04
 0.10600000E+03 -0.68821E-02
 0.10605000E+03 -0.15255E-01
 0.10610000E+03 -0.23763E-01
 0.10615000E+03 -0.29858E-01
 0.10620000E+03 -0.30217E-01
 0.10625000E+03 -0.23221E-01
 0.10630000E+03 -0.12950E-01
 0.10635000E+03 -0.48696E-02
 0.10640000E+03  0.89115E-03
 0.10645000E+03  0.47428E-02
 0.10650000E+03  0.59603E-02
 0.10655000E+03  0.35621E-02
 0.10660000E+03  0.48948E-03
 0.10665000E+03 -0.11594E-02
 0.10670000E+03 -0.15534E-02
 0.10675000E+03 -0.16433E-02
 0.10680000E+03 -0.35795E-02
 0.10685000E+03 -0.65839E-02
 0.10690000E+03 -0.85369E-02
 0.10695000E+03 -0.44283E-02
 0.10700000E+03  0.62861E-02
 0.10705000E+03  0.17275E-01
 0.10710000E+03  0.26901E-01
 0.10715000E+03  0.33877E-01
 0.10720000E+03  0.38009E-01
 0.10725000E+03  0.39126E-01
 0.10730000E+03  0.37731E-01
 0.10735000E+03  0.33580E-01
 0.10740000E+03  0.26856E-01
 0.10745000E+03  0.23175E-01
 0.10750000E+03  0.23152E-01
 0.10755000E+03  0.23993E-01
 0.10760000E+03  0.23029E-01
 0.10765000E+03  0.21708E-01
 0.10770000E+03  0.23184E-01
 0.10775000E+03  0.28166E-01
 0.10780000E+03  0.34638E-01
 0.10785000E+03  0.38173E-01
 0.10790000E+03  0.38163E-01
 0.10795000E+03  0.34660E-01
 0.10800000E+03  0.27453E-01
 0.10805000E+03  0.18330E-01
 0.10810000E+03  0.82636E-02
 0.10815000E+03 -0.57438E-03
 0.10820000E+03 -0.46409E-02
 0.10825000E+03 -0.17156E-02
 0.10830000E+03  0.65142E-02
 0.10835000E+03  0.14747E-01
 0.10840000E+03  0.21823E-01
 0.10845000E+03  0.28425E-01
 0.10850000E+03  0.33397E-01
 0.10855000E+03  0.33572E-01
 0.10860000E+03  0.29624E-01
 0.10865000E+03  0.23843E-01
 0.10870000E+03  0.15935E-01
 0.10875000E+03  0.77232E-02
 0.10880000E+03  0.10818E-04
 0.10885000E+03 -0.80626E-02
 0.10890000E+03 -0.16837E-01
 0.10895000E+03 -0.25274E-01
 0.10900000E+03 -0.31903E-01
 0.10905000E+03 -0.35907E-01
 0.10910000E+03 -0.36946E-01
 0.10915000E+03 -0.34593E-01
 0.10920000E+03 -0.29690E-01
 0.10925000E+03 -0.23064E-01
 0.10930000E+03 -0.16439E-01
 0.10935000E+03 -0.12317E-01
 0.10940000E+03 -0.98984E-02
 0.10945000E+03 -0.51778E-02
 0.10950000E+03  0.22320E-02
 0.10955000E+03  0.89827E-02
 0.10960000E+03  0.11910E-01
 0.10965000E+03  0.10777E-01
 0.10970000E+03  0.83384E-02
 0.10975000E+03  0.39832E-02
 0.10980000E+03 -0.23183E-02
 0.10985000E+03 -0.10423E-01
 0.10990000E+03 -0.19323E-01
 0.10995000E+03 -0.24725E-01
 0.11000000E+03 -0.26924E-01
 0.11005000E+03 -0.29140E-01
 0.11010000E+03 -0.32723E-01
 0.11015000E+03 -0.36591E-01
 0.11020000E+03 -0.39662E-01
 0.11025000E+03 -0.42767E-01
 0.11030000E+03 -0.45188E-01
 0.11035000E+03 -0.45460E-01
 0.11040000E+03 -0.42936E-01
 0.11045000E+03 -0.37924E-01
 0.11050000E+03 -0.30648E-01
 0.11055000E+03 -0.22374E-01
 0.11060000E+03 -0.13224E-01
 0.11065000E+03 -0.17087E-02
 0.11070000E+03  0.12063E-01
 0.11075000E+03  0.26029E-01
 0.11080000E+03  0.37314E-01
 0.11085000E+03  0.43325E-01
 0.11090000E+03  0.44592E-01
 0.11095000E+03  0.42849E-01
 0.11100000E+03  0.38354E-01
 0.11105000E+03  0.34403E-01
 0.11110000E+03  0.29671E-01
 0.11115000E+03  0.20990E-01
 0.11120000E+03  0.97708E-02
 0.11125000E+03 -0.96155E-03
 0.11130000E+03 -0.87600E-02
 0.11135000E+03 -0.12687E-01
 0.11140000E+03 -0.12704E-01
 0.11145000E+03 -0.88576E-02
 0.11150000E+03 -0.25382E-02
 0.11155000E+03  0.38120E-02
 0.11160000E+03  0.99063E-02
 0.11165000E+03  0.15832E-01
 0.11170000E+03  0.20686E-01
 0.11175000E+03  0.23320E-01
 0.11180000E+03  0.24351E-01
 0.11185000E+03  0.25947E-01
 0.11190000E+03  0.28320E-01
 0.11195000E+03  0.29414E-01
 0.11200000E+03  0.29590E-01
 0.11205000E+03  0.27739E-01
 0.11210000E+03  0.23265E-01
 0.11215000E+03  0.18727E-01
 0.11220000E+03  0.14251E-01
 0.11225000E+03  0.92994E-02
 0.11230000E+03  0.54427E-02
 0.11235000E+03  0.36828E-02
 0.11240000E+03  0.45456E-02
 0.11245000E+03  0.66281E-02
 0.11250000E+03  0.83686E-02
 0.11255000E+03  0.88903E-02
 0.11260000E+03  0.61423E-02
 0.11265000E+03  0.96213E-03
 0.11270000E+03 -0.69647E-02
 0.11275000E+03 -0.15880E-01
 0.11280000E+03 -0.22736E-01
 0.11285000E+03 -0.26017E-01
 0.11290000E+03 -0.26927E-01
 0.11295000E+03 -0.27453E-01
 0.11300000E+03 -0.27861E-01
 0.11305000E+03 -0.28893E-01
 0.11310000E+03 -0.29189E-01
 0.11315000E+03 -0.29227E-01
 0.11320000E+03 -0.28862E-01
 0.11325000E+03 -0.25937E-01
 0.11330000E+03 -0.19847E-01
 0.11335000E+03 -0.12377E-01
 0.11340000E+03 -0.79834E-02
 0.11345000E+03 -0.65434E-02
 0.11350000E+03 -0.51282E-02
 0.11355000E+03 -0.40776E-02
 0.11360000E+03 -0.26409E-02
 0.11365000E+03  0.57720E-04
 0.11370000E+03  0.23025E-02
 0.11375000E+03  0.21248E-02
 0.11380000E+03  0.10532E-02
 0.11385000E+03  0.61678E-03
 0.11390000E+03 -0.17338E-03
 0.11395000E+03 -0.19735E-02
 0.11400000E+03 -0.28210E-02
 0.11405000E+03 -0.47742E-03
 0.11410000E+03  0.28985E-02
 0.11415000E+03  0.64318E-02
 0.11420000E+03  0.97430E-02
 0.11425000E+03  0.11723E-01
 0.11430000E+03  0.12475E-01
 0.11435000E+03  0.13019E-01
 0.11440000E+03  0.14454E-01
 0.11445000E+03  0.15486E-01
 0.11450000E+03  0.15784E-01
 0.11455000E+03  0.13116E-01
 0.11460000E+03  0.71433E-02
 0.11465000E+03  0.57854E-03
 0.11470000E+03 -0.63176E-02
 0.11475000E+03 -0.13844E-01
 0.11480000E+03 -0.21088E-01
 0.11485000E+03 -0.26243E-01
 0.11490000E+03 -0.30345E-01
 0.11495000E+03 -0.31817E-01
 0.11500000E+03 -0.29223E-01
 0.11505000E+03 -0.24023E-01
 0.11510000E+03 -0.17982E-01
 0.11515000E+03 -0.13875E-01
 0.11520000E+03 -0.12847E-01
 0.11525000E+03 -0.14570E-01
 0.11530000E+03 -0.16382E-01
 0.11535000E+03 -0.17197E-01
 0.11540000E+03 -0.16505E-01
 0.11545000E+03 -0.14799E-01
 0.11550000E+03 -0.13914E-01
 0.11555000E+03 -0.13106E-01
 0.11560000E+03 -0.11651E-01
 0.11565000E+03 -0.85766E-02
 0.11570000E+03 -0.37363E-02
 0.11575000E+03  0.25366E-02
 0.11580000E+03  0.92414E-02
 0.11585000E+03  0.13695E-01
 0.11590000E+03  0.14982E-01
 0.11595000E+03  0.13396E-01
 0.11600000E+03  0.95900E-02
 0.11605000E+03  0.45724E-02
 0.11610000E+03 -0.20506E-02
 0.11615000E+03 -0.10913E-01
 0.11620000E+03 -0.20047E-01
 0.11625000E+03 -0.25829E-01
 0.11630000E+03 -0.26199E-01
 0.11635000E+03 -0.19767E-01
 0.11640000E+03 -0.76731E-02
 0.11645000E+03  0.46500E-02
 0.11650000E+03  0.14568E-01
 0.11655000E+03  0.24223E-01
 0.11660000E+03  0.33535E-01
 0.11665000E+03  0.40714E-01
 0.11670000E+03  0.44441E-01
 0.11675000E+03  0.43157E-01
 0.11680000E+03  0.38496E-01
 0.11685000E+03  0.34174E-01
 0.11690000E+03  0.32680E-01
 0.11695000E+03  0.31616E-01
 0.11700000E+03  0.27035E-01
 0.11705000E+03  0.19304E-01
 0.11710000E+03  0.96459E-02
 0.11715000E+03  0.72908E-03
 0.11720000E+03 -0.44698E-02
 0.11725000E+03 -0.71080E-02
 0.11730000E+03 -0.93923E-02
 0.11735000E+03 -0.13338E-01
 0.11740000E+03 -0.18298E-01
 0.11745000E+03 -0.23751E-01
 0.11750000E+03 -0.30380E-01
 0.11755000E+03 -0.36797E-01
 0.11760000E+03 -0.40297E-01
 0.11765000E+03 -0.40079E-01
 0.11770000E+03 -0.38260E-01
 0.11775000E+03 -0.35462E-01
 0.11780000E+03 -0.31953E-01
 0.11785000E+03 -0.28365E-01
 0.11790000E+03 -0.24658E-01
 0.11795000E+03 -0.19123E-01
 0.11800000E+03 -0.11508E-01
 0.11805000E+03 -0.29816E-02
 0.11810000E+03  0.44991E-02
 0.11815000E+03  0.90706E-02
 0.11820000E+03  0.10584E-01
 0.11825000E+03  0.97725E-02
 0.11830000E+03  0.79618E-02
 0.11835000E+03  0.44748E-02
 0.11840000E+03 -0.17961E-03
 0.11845000E+03 -0.37737E-02
 0.11850000E+03 -0.55608E-02
 0.11855000E+03 -0.60656E-02
 0.11860000E+03 -0.65931E-02
 0.11865000E+03 -0.80214E-02
 0.11870000E+03 -0.10843E-01
 0.11875000E+03 -0.15660E-01
 0.11880000E+03 -0.22363E-01
 0.11885000E+03 -0.28982E-01
 0.11890000E+03 -0.33189E-01
 0.11895000E+03 -0.33900E-01
 0.11900000E+03 -0.29868E-01
 0.11905000E+03 -0.23023E-01
 0.11910000E+03 -0.15731E-01
 0.11915000E+03 -0.84676E-02
 0.11920000E+03  0.36838E-03
 0.11925000E+03  0.96592E-02
 0.11930000E+03  0.19953E-01
 0.11935000E+03  0.29044E-01
 0.11940000E+03  0.35366E-01
 0.11945000E+03  0.37016E-01
 0.11950000E+03  0.34592E-01
 0.11955000E+03  0.30205E-01
 0.11960000E+03  0.25077E-01
 0.11965000E+03  0.21915E-01
 0.11970000E+03  0.19224E-01
 0.11975000E+03  0.19454E-01
 0.11980000E+03  0.19507E-01
 0.11985000E+03  0.24455E-01
 0.11990000E+03  0.25145E-01
 0.11995000E+03  0.32440E-01
 0.12000000E+03  0.18751E-01
