 0.00000000E+00  0.35352E-03
 0.50000001E-01  0.64749E-03
 0.10000000E+00  0.56438E-03
 0.15000001E+00  0.64792E-03
 0.20000000E+00  0.62138E-03
 0.25000000E+00  0.67188E-03
 0.30000001E+00  0.67967E-03
 0.34999999E+00  0.69342E-03
 0.40000001E+00  0.71217E-03
 0.45000002E+00  0.68828E-03
 0.50000000E+00  0.69701E-03
 0.55000001E+00  0.64494E-03
 0.60000002E+00  0.67865E-03
 0.65000004E+00  0.65289E-03
 0.69999999E+00  0.63470E-03
 0.75000000E+00  0.60237E-03
 0.80000001E+00  0.51726E-03
 0.85000002E+00  0.48757E-03
 0.90000004E+00  0.40282E-03
 0.94999999E+00  0.32033E-03
 0.10000000E+01  0.24782E-03
 0.10500001E+01  0.15371E-03
 0.11000000E+01  0.63993E-04
 0.11500000E+01 -0.34503E-04
 0.12000000E+01 -0.14253E-03
 0.12500000E+01 -0.22126E-03
 0.13000001E+01 -0.32000E-03
 0.13500000E+01 -0.39061E-03
 0.14000000E+01 -0.49929E-03
 0.14500000E+01 -0.56207E-03
 0.15000000E+01 -0.61333E-03
 0.15500001E+01 -0.67576E-03
 0.16000000E+01 -0.69778E-03
 0.16500000E+01 -0.71747E-03
 0.17000000E+01 -0.71735E-03
 0.17500000E+01 -0.75517E-03
 0.18000001E+01 -0.71950E-03
 0.18500000E+01 -0.69512E-03
 0.19000000E+01 -0.68547E-03
 0.19500000E+01 -0.62246E-03
 0.20000000E+01 -0.58150E-03
 0.20500000E+01 -0.50684E-03
 0.21000001E+01 -0.43951E-03
 0.21500001E+01 -0.37035E-03
 0.22000000E+01 -0.28312E-03
 0.22500000E+01 -0.24381E-03
 0.23000000E+01 -0.15774E-03
 0.23500001E+01 -0.75429E-04
 0.24000001E+01 -0.38103E-04
 0.24500000E+01  0.20482E-04
 0.25000000E+01  0.69541E-04
 0.25500000E+01  0.13741E-03
 0.26000001E+01  0.15008E-03
 0.26500001E+01  0.19836E-03
 0.27000000E+01  0.23880E-03
 0.27500000E+01  0.23738E-03
 0.28000000E+01  0.28753E-03
 0.28500001E+01  0.28572E-03
 0.29000001E+01  0.31834E-03
 0.29500000E+01  0.31479E-03
 0.30000000E+01  0.31595E-03
 0.30500000E+01  0.32204E-03
 0.31000001E+01  0.32673E-03
 0.31500001E+01  0.31277E-03
 0.32000000E+01  0.29477E-03
 0.32500000E+01  0.29438E-03
 0.33000000E+01  0.27290E-03
 0.33500001E+01  0.29881E-03
 0.34000001E+01  0.28795E-03
 0.34500000E+01  0.28097E-03
 0.35000000E+01  0.27742E-03
 0.35500000E+01  0.24341E-03
 0.36000001E+01  0.23238E-03
 0.36500001E+01  0.21578E-03
 0.37000000E+01  0.18265E-03
 0.37500000E+01  0.17880E-03
 0.38000000E+01  0.16553E-03
 0.38500001E+01  0.14188E-03
 0.39000001E+01  0.13581E-03
 0.39500000E+01  0.11436E-03
 0.40000000E+01  0.12105E-03
 0.40500002E+01  0.12608E-03
 0.40999999E+01  0.10468E-03
 0.41500001E+01  0.86250E-04
 0.42000003E+01  0.83346E-04
 0.42500000E+01  0.39317E-04
 0.43000002E+01  0.15314E-04
 0.43499999E+01 -0.43942E-04
 0.44000001E+01 -0.95042E-04
 0.44500003E+01 -0.14003E-03
 0.45000000E+01 -0.19801E-03
 0.45500002E+01 -0.24164E-03
 0.45999999E+01 -0.30843E-03
 0.46500001E+01 -0.35911E-03
 0.47000003E+01 -0.44088E-03
 0.47500000E+01 -0.48588E-03
 0.48000002E+01 -0.51565E-03
 0.48499999E+01 -0.49250E-03
 0.49000001E+01 -0.53102E-03
 0.49500003E+01 -0.54342E-03
 0.50000000E+01 -0.57416E-03
 0.50500002E+01 -0.63304E-03
 0.50999999E+01 -0.59706E-03
 0.51500001E+01 -0.63386E-03
 0.52000003E+01 -0.63498E-03
 0.52500000E+01 -0.63374E-03
 0.53000002E+01 -0.63501E-03
 0.53499999E+01 -0.58640E-03
 0.54000001E+01 -0.61025E-03
 0.54500003E+01 -0.58463E-03
 0.55000000E+01 -0.53572E-03
 0.55500002E+01 -0.53939E-03
 0.55999999E+01 -0.47982E-03
 0.56500001E+01 -0.43292E-03
 0.57000003E+01 -0.40936E-03
 0.57500000E+01 -0.38260E-03
 0.58000002E+01 -0.29990E-03
 0.58499999E+01 -0.25032E-03
 0.59000001E+01 -0.19172E-03
 0.59500003E+01 -0.11009E-03
 0.60000000E+01 -0.76146E-04
 0.60500002E+01  0.91988E-05
 0.60999999E+01  0.83360E-04
 0.61500001E+01  0.14873E-03
 0.62000003E+01  0.20027E-03
 0.62500000E+01  0.26471E-03
 0.63000002E+01  0.33604E-03
 0.63499999E+01  0.36782E-03
 0.64000001E+01  0.44150E-03
 0.64500003E+01  0.52398E-03
 0.65000000E+01  0.56356E-03
 0.65500002E+01  0.60535E-03
 0.65999999E+01  0.64291E-03
 0.66500001E+01  0.68912E-03
 0.67000003E+01  0.70077E-03
 0.67500000E+01  0.72224E-03
 0.68000002E+01  0.74256E-03
 0.68499999E+01  0.73406E-03
 0.69000001E+01  0.74119E-03
 0.69500003E+01  0.72678E-03
 0.70000000E+01  0.69627E-03
 0.70500002E+01  0.68676E-03
 0.70999999E+01  0.64653E-03
 0.71500001E+01  0.59150E-03
 0.72000003E+01  0.53021E-03
 0.72500000E+01  0.48270E-03
 0.73000002E+01  0.40719E-03
 0.73499999E+01  0.30622E-03
 0.74000001E+01  0.19641E-03
 0.74500003E+01  0.10673E-03
 0.75000000E+01  0.23577E-04
 0.75500002E+01 -0.56671E-04
 0.75999999E+01 -0.12259E-03
 0.76500001E+01 -0.23011E-03
 0.77000003E+01 -0.31355E-03
 0.77500000E+01 -0.41934E-03
 0.78000002E+01 -0.51118E-03
 0.78499999E+01 -0.58619E-03
 0.79000001E+01 -0.62784E-03
 0.79500003E+01 -0.68240E-03
 0.80000000E+01 -0.71826E-03
 0.80500002E+01 -0.71611E-03
 0.81000004E+01 -0.70588E-03
 0.81500006E+01 -0.70004E-03
 0.81999998E+01 -0.65544E-03
 0.82500000E+01 -0.62410E-03
 0.83000002E+01 -0.55871E-03
 0.83500004E+01 -0.46260E-03
 0.84000006E+01 -0.37113E-03
 0.84499998E+01 -0.25121E-03
 0.85000000E+01 -0.15224E-03
 0.85500002E+01 -0.65612E-04
 0.86000004E+01  0.37286E-04
 0.86500006E+01  0.12953E-03
 0.86999998E+01  0.20192E-03
 0.87500000E+01  0.30346E-03
 0.88000002E+01  0.36990E-03
 0.88500004E+01  0.45897E-03
 0.89000006E+01  0.51574E-03
 0.89499998E+01  0.55035E-03
 0.90000000E+01  0.59278E-03
 0.90500002E+01  0.58110E-03
 0.91000004E+01  0.60511E-03
 0.91500006E+01  0.59854E-03
 0.91999998E+01  0.55944E-03
 0.92500000E+01  0.51802E-03
 0.93000002E+01  0.43238E-03
 0.93500004E+01  0.35797E-03
 0.94000006E+01  0.24652E-03
 0.94499998E+01  0.14288E-03
 0.95000000E+01  0.95773E-05
 0.95500002E+01 -0.95920E-04
 0.96000004E+01 -0.21899E-03
 0.96500006E+01 -0.31770E-03
 0.96999998E+01 -0.40743E-03
 0.97500000E+01 -0.51724E-03
 0.98000002E+01 -0.60543E-03
 0.98500004E+01 -0.67284E-03
 0.99000006E+01 -0.71863E-03
 0.99499998E+01 -0.80149E-03
 0.10000000E+02 -0.79562E-03
 0.10050000E+02 -0.82329E-03
 0.10100000E+02 -0.83034E-03
 0.10150001E+02 -0.80333E-03
 0.10200000E+02 -0.80247E-03
 0.10250000E+02 -0.77520E-03
 0.10300000E+02 -0.77010E-03
 0.10350000E+02 -0.70971E-03
 0.10400001E+02 -0.66700E-03
 0.10450000E+02 -0.62569E-03
 0.10500000E+02 -0.53860E-03
 0.10550000E+02 -0.49421E-03
 0.10600000E+02 -0.40625E-03
 0.10650001E+02 -0.34894E-03
 0.10700000E+02 -0.28614E-03
 0.10750000E+02 -0.22423E-03
 0.10800000E+02 -0.18578E-03
 0.10850000E+02 -0.13208E-03
 0.10900001E+02 -0.95115E-04
 0.10950000E+02 -0.72467E-04
 0.11000000E+02 -0.70539E-04
 0.11050000E+02 -0.26741E-04
 0.11100000E+02 -0.21856E-04
 0.11150001E+02 -0.57138E-06
 0.11200000E+02  0.14460E-04
 0.11250000E+02  0.23868E-04
 0.11300000E+02  0.53162E-04
 0.11350000E+02  0.63744E-04
 0.11400001E+02  0.80853E-04
 0.11450000E+02  0.10837E-03
 0.11500000E+02  0.14123E-03
 0.11550000E+02  0.17445E-03
 0.11600000E+02  0.23275E-03
 0.11650001E+02  0.29220E-03
 0.11700000E+02  0.34389E-03
 0.11750000E+02  0.41750E-03
 0.11800000E+02  0.46710E-03
 0.11850000E+02  0.53496E-03
 0.11900001E+02  0.59884E-03
 0.11950000E+02  0.63684E-03
 0.12000000E+02  0.69248E-03
 0.12050000E+02  0.71700E-03
 0.12100000E+02  0.74958E-03
 0.12150001E+02  0.76724E-03
 0.12200000E+02  0.79653E-03
 0.12250000E+02  0.81028E-03
 0.12300000E+02  0.82325E-03
 0.12350000E+02  0.81875E-03
 0.12400001E+02  0.80009E-03
 0.12450000E+02  0.77616E-03
 0.12500000E+02  0.71986E-03
 0.12550000E+02  0.66864E-03
 0.12600000E+02  0.59246E-03
 0.12650001E+02  0.51373E-03
 0.12700000E+02  0.42741E-03
 0.12750000E+02  0.33703E-03
 0.12800000E+02  0.22101E-03
 0.12850000E+02  0.10128E-03
 0.12900001E+02  0.53987E-05
 0.12950000E+02 -0.12249E-03
 0.13000000E+02 -0.21742E-03
 0.13050000E+02 -0.31281E-03
 0.13100000E+02 -0.39071E-03
 0.13150001E+02 -0.47139E-03
 0.13200000E+02 -0.53316E-03
 0.13250000E+02 -0.54599E-03
 0.13300000E+02 -0.58824E-03
 0.13350000E+02 -0.61631E-03
 0.13400001E+02 -0.63693E-03
 0.13450000E+02 -0.64583E-03
 0.13500000E+02 -0.66587E-03
 0.13550000E+02 -0.66199E-03
 0.13600000E+02 -0.67149E-03
 0.13650001E+02 -0.66947E-03
 0.13700000E+02 -0.66176E-03
 0.13750000E+02 -0.66742E-03
 0.13800000E+02 -0.66536E-03
 0.13850000E+02 -0.68306E-03
 0.13900001E+02 -0.67519E-03
 0.13950000E+02 -0.66536E-03
 0.14000000E+02 -0.63284E-03
 0.14050000E+02 -0.63559E-03
 0.14100000E+02 -0.61682E-03
 0.14150001E+02 -0.60031E-03
 0.14200000E+02 -0.58183E-03
 0.14250000E+02 -0.54817E-03
 0.14300000E+02 -0.51694E-03
 0.14350000E+02 -0.48584E-03
 0.14400001E+02 -0.48531E-03
 0.14450000E+02 -0.45329E-03
 0.14500000E+02 -0.43053E-03
 0.14550000E+02 -0.43530E-03
 0.14600000E+02 -0.44365E-03
 0.14650001E+02 -0.41453E-03
 0.14700000E+02 -0.43400E-03
 0.14750000E+02 -0.45572E-03
 0.14800000E+02 -0.44054E-03
 0.14850000E+02 -0.41688E-03
 0.14900001E+02 -0.38833E-03
 0.14950000E+02 -0.34273E-03
 0.15000000E+02 -0.28476E-03
 0.15050000E+02 -0.22225E-03
 0.15100000E+02 -0.16617E-03
 0.15150001E+02 -0.90355E-04
 0.15200000E+02  0.92012E-05
 0.15250000E+02  0.80433E-04
 0.15300000E+02  0.19313E-03
 0.15350000E+02  0.25628E-03
 0.15400001E+02  0.35654E-03
 0.15450000E+02  0.47209E-03
 0.15500000E+02  0.54607E-03
 0.15550000E+02  0.64953E-03
 0.15600000E+02  0.69891E-03
 0.15650001E+02  0.77541E-03
 0.15700000E+02  0.84043E-03
 0.15750000E+02  0.87817E-03
 0.15800000E+02  0.89551E-03
 0.15850000E+02  0.90351E-03
 0.15900001E+02  0.90125E-03
 0.15950000E+02  0.90546E-03
 0.16000000E+02  0.91707E-03
 0.16050001E+02  0.88710E-03
 0.16100000E+02  0.84723E-03
 0.16150000E+02  0.83446E-03
 0.16200001E+02  0.79932E-03
 0.16250000E+02  0.74560E-03
 0.16300001E+02  0.68708E-03
 0.16350000E+02  0.61324E-03
 0.16400000E+02  0.55213E-03
 0.16450001E+02  0.46466E-03
 0.16500000E+02  0.37503E-03
 0.16550001E+02  0.28184E-03
 0.16600000E+02  0.20404E-03
 0.16650000E+02  0.14086E-03
 0.16700001E+02  0.76013E-04
 0.16750000E+02  0.31047E-05
 0.16800001E+02 -0.69550E-04
 0.16850000E+02 -0.93655E-04
 0.16900000E+02 -0.12981E-03
 0.16950001E+02 -0.16216E-03
 0.17000000E+02 -0.19578E-03
 0.17050001E+02 -0.22600E-03
 0.17100000E+02 -0.21584E-03
 0.17150000E+02 -0.21487E-03
 0.17200001E+02 -0.21536E-03
 0.17250000E+02 -0.24374E-03
 0.17300001E+02 -0.24980E-03
 0.17350000E+02 -0.25906E-03
 0.17400000E+02 -0.30201E-03
 0.17450001E+02 -0.29376E-03
 0.17500000E+02 -0.33454E-03
 0.17550001E+02 -0.36289E-03
 0.17600000E+02 -0.40559E-03
 0.17650000E+02 -0.45836E-03
 0.17700001E+02 -0.50576E-03
 0.17750000E+02 -0.54589E-03
 0.17800001E+02 -0.55828E-03
 0.17850000E+02 -0.62110E-03
 0.17900000E+02 -0.62381E-03
 0.17950001E+02 -0.64621E-03
 0.18000000E+02 -0.66816E-03
 0.18050001E+02 -0.66015E-03
 0.18100000E+02 -0.65116E-03
 0.18150000E+02 -0.66374E-03
 0.18200001E+02 -0.56645E-03
 0.18250000E+02 -0.31931E-03
 0.18300001E+02 -0.25666E-03
 0.18350000E+02 -0.32024E-03
 0.18400000E+02 -0.61465E-03
 0.18450001E+02 -0.71979E-03
 0.18500000E+02 -0.38767E-03
 0.18550001E+02 -0.46888E-03
 0.18600000E+02 -0.58246E-03
 0.18650000E+02 -0.92316E-03
 0.18700001E+02 -0.53777E-03
 0.18750000E+02 -0.71333E-03
 0.18800001E+02 -0.82803E-03
 0.18850000E+02 -0.16722E-02
 0.18900000E+02 -0.24797E-02
 0.18950001E+02 -0.47805E-02
 0.19000000E+02 -0.83252E-02
 0.19050001E+02 -0.15565E-01
 0.19100000E+02 -0.25430E-01
 0.19150000E+02 -0.37567E-01
 0.19200001E+02 -0.50424E-01
 0.19250000E+02 -0.71334E-01
 0.19300001E+02 -0.71075E-01
 0.19350000E+02 -0.27316E-01
 0.19400000E+02  0.12829E-01
 0.19450001E+02  0.31711E-01
 0.19500000E+02 -0.30780E-02
 0.19550001E+02 -0.21608E-01
 0.19600000E+02  0.44319E-01
 0.19650000E+02  0.72291E-01
 0.19700001E+02  0.47450E-01
 0.19750000E+02  0.20114E-01
 0.19800001E+02  0.55795E-01
 0.19850000E+02  0.93794E-01
 0.19900000E+02  0.65273E-01
 0.19950001E+02  0.31951E-01
 0.20000000E+02 -0.17609E-01
 0.20050001E+02  0.15438E-01
 0.20100000E+02  0.50233E-01
 0.20150000E+02  0.46646E-01
 0.20200001E+02  0.10336E-01
 0.20250000E+02 -0.30929E-01
 0.20300001E+02 -0.27957E-01
 0.20350000E+02 -0.38788E-01
 0.20400000E+02 -0.42990E-01
 0.20450001E+02 -0.26422E-01
 0.20500000E+02  0.38660E-01
 0.20550001E+02  0.96463E-02
 0.20600000E+02 -0.41129E-01
 0.20650000E+02  0.37296E-02
 0.20700001E+02  0.47994E-01
 0.20750000E+02 -0.21522E-01
 0.20800001E+02 -0.43322E-01
 0.20850000E+02  0.22537E-02
 0.20900000E+02  0.21701E-01
 0.20950001E+02  0.84292E-01
 0.21000000E+02  0.61796E-02
 0.21050001E+02 -0.30069E-01
 0.21100000E+02  0.87034E-02
 0.21150000E+02  0.99258E-01
 0.21200001E+02  0.16570E+00
 0.21250000E+02  0.10512E+00
 0.21300001E+02  0.30981E-01
 0.21350000E+02 -0.25337E-02
 0.21400000E+02  0.42171E-01
 0.21450001E+02  0.42791E-01
 0.21500000E+02 -0.16250E-01
 0.21550001E+02 -0.20336E-01
 0.21600000E+02  0.21225E-01
 0.21650000E+02 -0.33944E-01
 0.21700001E+02 -0.38325E-01
 0.21750000E+02 -0.45656E-01
 0.21800001E+02 -0.13194E+00
 0.21850000E+02 -0.11184E+00
 0.21900000E+02 -0.54130E-01
 0.21950001E+02 -0.41171E-01
 0.22000000E+02 -0.43784E-01
 0.22050001E+02 -0.79350E-01
 0.22100000E+02 -0.26347E-01
 0.22150000E+02  0.55035E-01
 0.22200001E+02  0.75554E-01
 0.22250000E+02  0.61888E-01
 0.22300001E+02  0.48594E-01
 0.22350000E+02  0.57930E-01
 0.22400000E+02  0.75693E-01
 0.22450001E+02  0.13624E+00
 0.22500000E+02  0.76662E-01
 0.22550001E+02  0.19931E-01
 0.22600000E+02  0.66180E-02
 0.22650000E+02 -0.78081E-02
 0.22700001E+02 -0.67527E-02
 0.22750000E+02 -0.44634E-01
 0.22800001E+02 -0.43617E-01
 0.22850000E+02 -0.56224E-02
 0.22900000E+02 -0.33728E-01
 0.22950001E+02 -0.63206E-01
 0.23000000E+02  0.25408E-02
 0.23050001E+02 -0.95205E-02
 0.23100000E+02 -0.36030E-01
 0.23150000E+02 -0.24915E-01
 0.23200001E+02 -0.38480E-02
 0.23250000E+02  0.94850E-02
 0.23300001E+02  0.29037E-01
 0.23350000E+02  0.15700E-01
 0.23400000E+02 -0.42643E-01
 0.23450001E+02 -0.57026E-01
 0.23500000E+02 -0.24195E-01
 0.23550001E+02 -0.13074E-01
 0.23600000E+02 -0.55368E-01
 0.23650000E+02 -0.24977E-01
 0.23700001E+02  0.70851E-01
 0.23750000E+02  0.10129E+00
 0.23800001E+02  0.29530E-01
 0.23850000E+02  0.11047E-01
 0.23900000E+02  0.77469E-02
 0.23950001E+02 -0.21322E-01
 0.24000000E+02  0.10830E-02
 0.24050001E+02  0.46662E-01
 0.24100000E+02  0.27599E-01
 0.24150000E+02  0.12760E-01
 0.24200001E+02  0.52920E-01
 0.24250000E+02  0.44157E-01
 0.24300001E+02  0.38940E-01
 0.24350000E+02  0.50829E-01
 0.24400000E+02  0.62194E-01
 0.24450001E+02 -0.17556E-01
 0.24500000E+02 -0.82861E-01
 0.24550001E+02 -0.15035E-01
 0.24600000E+02 -0.22070E-02
 0.24650000E+02 -0.92816E-01
 0.24700001E+02 -0.13552E+00
 0.24750000E+02 -0.56433E-01
 0.24800001E+02  0.14929E-01
 0.24850000E+02  0.56103E-01
 0.24900000E+02  0.42740E-01
 0.24950001E+02  0.14007E-01
 0.25000000E+02 -0.29670E-01
 0.25050001E+02 -0.67432E-01
 0.25100000E+02 -0.46928E-01
 0.25150000E+02 -0.89544E-01
 0.25200001E+02 -0.92303E-01
 0.25250000E+02  0.66121E-02
 0.25300001E+02  0.11647E+00
 0.25350000E+02  0.11176E+00
 0.25400000E+02 -0.16854E-01
 0.25450001E+02 -0.49699E-01
 0.25500000E+02 -0.18018E-02
 0.25550001E+02  0.11883E-01
 0.25600000E+02  0.46298E-01
 0.25650000E+02  0.62615E-01
 0.25700001E+02  0.52146E-01
 0.25750000E+02  0.24694E-01
 0.25800001E+02 -0.85433E-02
 0.25850000E+02  0.15684E-01
 0.25900000E+02  0.16611E-01
 0.25950001E+02 -0.34618E-01
 0.26000000E+02 -0.14587E-01
 0.26050001E+02 -0.62228E-01
 0.26100000E+02 -0.13833E+00
 0.26150000E+02 -0.90465E-01
 0.26200001E+02  0.18660E-01
 0.26250000E+02  0.82457E-01
 0.26300001E+02  0.44328E-02
 0.26350000E+02 -0.90130E-02
 0.26400000E+02  0.41180E-01
 0.26450001E+02  0.84096E-01
 0.26500000E+02  0.10375E+00
 0.26550001E+02  0.42813E-01
 0.26600000E+02 -0.36785E-01
 0.26650000E+02 -0.77656E-01
 0.26700001E+02 -0.20043E-01
 0.26750000E+02  0.80669E-01
 0.26800001E+02  0.72369E-01
 0.26850000E+02  0.66145E-02
 0.26900000E+02 -0.29191E-01
 0.26950001E+02 -0.10642E+00
 0.27000000E+02 -0.12206E+00
 0.27050001E+02 -0.26609E-01
 0.27100000E+02  0.82800E-01
 0.27150000E+02  0.10641E+00
 0.27200001E+02  0.58148E-01
 0.27250000E+02  0.49043E-01
 0.27300001E+02  0.11235E+00
 0.27350000E+02  0.13231E+00
 0.27400000E+02  0.93205E-01
 0.27450001E+02  0.67954E-01
 0.27500000E+02  0.35873E-01
 0.27550001E+02  0.18430E-01
 0.27600000E+02  0.22987E-01
 0.27650000E+02 -0.65518E-01
 0.27700001E+02 -0.14930E+00
 0.27750000E+02 -0.13081E+00
 0.27800001E+02 -0.11889E+00
 0.27850000E+02 -0.69468E-01
 0.27900000E+02 -0.35573E-01
 0.27950001E+02 -0.45596E-01
 0.28000000E+02 -0.34285E-01
 0.28050001E+02 -0.95021E-02
 0.28100000E+02  0.42541E-02
 0.28150000E+02  0.44287E-01
 0.28200001E+02  0.11267E+00
 0.28250000E+02  0.12492E+00
 0.28300001E+02  0.63484E-01
 0.28350000E+02  0.42020E-02
 0.28400000E+02  0.64993E-03
 0.28450001E+02  0.20284E-01
 0.28500000E+02 -0.43884E-01
 0.28550001E+02 -0.62273E-01
 0.28600000E+02 -0.56154E-01
 0.28650000E+02 -0.61774E-01
 0.28700001E+02 -0.25061E-01
 0.28750000E+02 -0.86221E-01
 0.28800001E+02 -0.86199E-01
 0.28850000E+02 -0.61652E-01
 0.28900000E+02 -0.43719E-01
 0.28950001E+02  0.40004E-01
 0.29000000E+02  0.85635E-01
 0.29050001E+02  0.66659E-01
 0.29100000E+02 -0.89599E-02
 0.29150000E+02 -0.43115E-01
 0.29200001E+02 -0.29564E-01
 0.29250000E+02 -0.20681E-01
 0.29300001E+02  0.11718E-01
 0.29350000E+02  0.32118E-01
 0.29400000E+02  0.29426E-01
 0.29450001E+02 -0.32979E-01
 0.29500000E+02 -0.11728E+00
 0.29550001E+02 -0.96299E-01
 0.29600000E+02 -0.60104E-01
 0.29650000E+02 -0.41660E-01
 0.29700001E+02  0.11742E-01
 0.29750000E+02 -0.17086E-01
 0.29800001E+02  0.20286E-02
 0.29850000E+02  0.90996E-01
 0.29900000E+02  0.76872E-01
 0.29950001E+02  0.38896E-01
 0.30000000E+02  0.18153E-01
 0.30050001E+02  0.51746E-01
 0.30100000E+02  0.86263E-01
 0.30150000E+02  0.41916E-01
 0.30200001E+02 -0.15380E-01
 0.30250000E+02 -0.15793E-01
 0.30300001E+02  0.12276E-01
 0.30350000E+02  0.17345E-01
 0.30400000E+02 -0.72058E-02
 0.30450001E+02  0.21669E-02
 0.30500000E+02 -0.18303E-01
 0.30550001E+02 -0.82349E-01
 0.30600000E+02 -0.76786E-01
 0.30650000E+02 -0.24565E-01
 0.30700001E+02  0.52206E-01
 0.30750000E+02  0.90837E-01
 0.30800001E+02  0.68278E-01
 0.30850000E+02  0.85580E-01
 0.30900000E+02  0.10640E+00
 0.30950001E+02  0.87685E-01
 0.31000000E+02  0.61704E-01
 0.31050001E+02  0.28891E-01
 0.31100000E+02  0.31807E-02
 0.31150000E+02 -0.30031E-01
 0.31200001E+02 -0.24978E-01
 0.31250000E+02 -0.27142E-01
 0.31300001E+02 -0.51748E-01
 0.31350000E+02 -0.23573E-01
 0.31400000E+02 -0.10453E-01
 0.31450001E+02 -0.18432E-01
 0.31500000E+02  0.36443E-01
 0.31550001E+02  0.68551E-01
 0.31600000E+02  0.61489E-01
 0.31650000E+02  0.37061E-01
 0.31700001E+02  0.32529E-01
 0.31750000E+02  0.63031E-01
 0.31800001E+02  0.46445E-01
 0.31850000E+02  0.36987E-01
 0.31900000E+02  0.20346E-01
 0.31950001E+02 -0.61818E-02
 0.32000000E+02 -0.70159E-02
 0.32049999E+02  0.15759E-01
 0.32100002E+02  0.57264E-01
 0.32150002E+02  0.54682E-01
 0.32200001E+02  0.44930E-02
 0.32250000E+02 -0.64283E-02
 0.32299999E+02 -0.26099E-01
 0.32350002E+02 -0.97114E-01
 0.32400002E+02 -0.18916E+00
 0.32450001E+02 -0.28151E+00
 0.32500000E+02 -0.24756E+00
 0.32549999E+02 -0.73119E-01
 0.32600002E+02  0.12409E+00
 0.32650002E+02  0.29713E+00
 0.32700001E+02  0.30979E+00
 0.32750000E+02  0.15476E+00
 0.32799999E+02 -0.11359E+00
 0.32850002E+02 -0.44364E+00
 0.32900002E+02 -0.56347E+00
 0.32950001E+02 -0.46376E+00
 0.33000000E+02 -0.27182E+00
 0.33049999E+02 -0.84252E-01
 0.33100002E+02  0.34038E-01
 0.33150002E+02  0.93775E-01
 0.33200001E+02  0.13033E+00
 0.33250000E+02  0.19202E+00
 0.33299999E+02  0.25542E+00
 0.33350002E+02  0.20194E+00
 0.33400002E+02  0.10252E-01
 0.33450001E+02 -0.15061E+00
 0.33500000E+02 -0.26685E+00
 0.33549999E+02 -0.46560E+00
 0.33600002E+02 -0.78431E+00
 0.33650002E+02 -0.10000E+01
 0.33700001E+02 -0.86881E+00
 0.33750000E+02 -0.44302E+00
 0.33799999E+02  0.40727E-01
 0.33850002E+02  0.34356E+00
 0.33900002E+02  0.40347E+00
 0.33950001E+02  0.33564E+00
 0.34000000E+02  0.20072E+00
 0.34049999E+02  0.40188E-01
 0.34100002E+02 -0.10129E+00
 0.34150002E+02 -0.25215E+00
 0.34200001E+02 -0.43746E+00
 0.34250000E+02 -0.59369E+00
 0.34299999E+02 -0.33786E+00
 0.34350002E+02  0.20813E+00
 0.34400002E+02  0.45733E+00
 0.34450001E+02  0.29059E+00
 0.34500000E+02 -0.13010E+00
 0.34549999E+02 -0.42604E+00
 0.34600002E+02 -0.47703E+00
 0.34650002E+02 -0.44282E+00
 0.34700001E+02 -0.37307E+00
 0.34750000E+02 -0.95389E-01
 0.34799999E+02  0.35109E+00
 0.34850002E+02  0.51260E+00
 0.34900002E+02  0.34554E+00
 0.34950001E+02  0.10404E+00
 0.35000000E+02 -0.57236E-01
 0.35049999E+02 -0.69980E-01
 0.35100002E+02 -0.14863E-01
 0.35150002E+02 -0.49221E-02
 0.35200001E+02  0.31955E-01
 0.35250000E+02  0.14665E+00
 0.35299999E+02  0.12248E+00
 0.35350002E+02  0.44618E-01
 0.35400002E+02  0.10826E+00
 0.35450001E+02  0.14995E+00
 0.35500000E+02  0.16302E+00
 0.35549999E+02  0.13211E-01
 0.35600002E+02 -0.26942E+00
 0.35650002E+02 -0.31637E+00
 0.35700001E+02 -0.11597E+00
 0.35750000E+02 -0.11725E+00
 0.35799999E+02 -0.29138E+00
 0.35850002E+02 -0.10212E+00
 0.35900002E+02  0.35118E+00
 0.35950001E+02  0.61479E+00
 0.36000000E+02  0.54761E+00
 0.36049999E+02  0.26015E+00
 0.36100002E+02 -0.38488E-01
 0.36150002E+02 -0.13324E+00
 0.36200001E+02 -0.75719E-01
 0.36250000E+02  0.74437E-01
 0.36299999E+02  0.28866E+00
 0.36350002E+02  0.45511E+00
 0.36400002E+02  0.35476E+00
 0.36450001E+02  0.11473E+00
 0.36500000E+02  0.42239E-01
 0.36549999E+02  0.31945E+00
 0.36600002E+02  0.63679E+00
 0.36650002E+02  0.58492E+00
 0.36700001E+02  0.23332E+00
 0.36750000E+02  0.65348E-01
 0.36799999E+02  0.85209E-01
 0.36850002E+02  0.23455E-01
 0.36900002E+02 -0.19180E+00
 0.36950001E+02 -0.52173E+00
 0.37000000E+02 -0.47556E+00
 0.37049999E+02 -0.27696E+00
 0.37100002E+02 -0.24918E+00
 0.37150002E+02 -0.28376E+00
 0.37200001E+02 -0.28033E+00
 0.37250000E+02 -0.27191E+00
 0.37299999E+02 -0.25593E+00
 0.37350002E+02 -0.15326E+00
 0.37400002E+02  0.79949E-01
 0.37450001E+02  0.31568E+00
 0.37500000E+02  0.40811E+00
 0.37549999E+02  0.30234E+00
 0.37600002E+02  0.26764E+00
 0.37650002E+02  0.35633E+00
 0.37700001E+02  0.39079E+00
 0.37750000E+02  0.37073E+00
 0.37799999E+02  0.22938E+00
 0.37850002E+02 -0.10978E-01
 0.37900002E+02 -0.26828E+00
 0.37950001E+02 -0.37781E+00
 0.38000000E+02 -0.38368E+00
 0.38049999E+02 -0.39558E+00
 0.38100002E+02 -0.43046E+00
 0.38150002E+02 -0.43110E+00
 0.38200001E+02 -0.30262E+00
 0.38250000E+02 -0.12407E+00
 0.38299999E+02  0.11154E-01
 0.38350002E+02  0.52770E-01
 0.38400002E+02  0.47916E-01
 0.38450001E+02  0.86249E-02
 0.38500000E+02  0.25158E-01
 0.38549999E+02  0.58733E-01
 0.38600002E+02  0.33748E-01
 0.38650002E+02  0.63002E-01
 0.38700001E+02  0.44250E-01
 0.38750000E+02  0.81665E-01
 0.38799999E+02  0.10885E+00
 0.38850002E+02  0.10510E+00
 0.38900002E+02  0.90477E-01
 0.38950001E+02  0.32689E-01
 0.39000000E+02 -0.51285E-01
 0.39049999E+02 -0.13864E+00
 0.39100002E+02 -0.28189E+00
 0.39150002E+02 -0.47076E+00
 0.39200001E+02 -0.48469E+00
 0.39250000E+02 -0.30382E+00
 0.39299999E+02 -0.20935E-01
 0.39350002E+02  0.10730E+00
 0.39400002E+02  0.83746E-01
 0.39450001E+02  0.49293E-01
 0.39500000E+02  0.31757E-01
 0.39549999E+02 -0.47622E-01
 0.39600002E+02 -0.10677E+00
 0.39650002E+02 -0.47865E-01
 0.39700001E+02  0.87122E-01
 0.39750000E+02  0.32497E+00
 0.39799999E+02  0.49968E+00
 0.39850002E+02  0.57878E+00
 0.39900002E+02  0.57918E+00
 0.39950001E+02  0.44210E+00
 0.40000000E+02  0.13111E+00
 0.40049999E+02 -0.15522E+00
 0.40100002E+02 -0.20735E+00
 0.40150002E+02 -0.95671E-01
 0.40200001E+02  0.11803E+00
 0.40250000E+02  0.22353E+00
 0.40299999E+02  0.22571E+00
 0.40350002E+02  0.18333E+00
 0.40400002E+02 -0.10694E-01
 0.40450001E+02 -0.21209E+00
 0.40500000E+02 -0.36102E+00
 0.40549999E+02 -0.40001E+00
 0.40600002E+02 -0.20388E+00
 0.40650002E+02 -0.21457E-01
 0.40700001E+02  0.30009E-01
 0.40750000E+02  0.14871E-02
 0.40799999E+02  0.28823E-01
 0.40850002E+02  0.17567E+00
 0.40900002E+02  0.26144E+00
 0.40950001E+02  0.25642E+00
 0.41000000E+02  0.23956E+00
 0.41049999E+02  0.24572E+00
 0.41100002E+02  0.21987E+00
 0.41150002E+02  0.20789E+00
 0.41200001E+02  0.87612E-01
 0.41250000E+02 -0.10877E+00
 0.41299999E+02 -0.22469E+00
 0.41350002E+02 -0.30014E+00
 0.41400002E+02 -0.34806E+00
 0.41450001E+02 -0.32764E+00
 0.41500000E+02 -0.11631E+00
 0.41549999E+02  0.18273E+00
 0.41600002E+02  0.27024E+00
 0.41650002E+02  0.20474E+00
 0.41700001E+02  0.18184E+00
 0.41750000E+02  0.22213E+00
 0.41799999E+02  0.24023E+00
 0.41850002E+02  0.17545E+00
 0.41900002E+02  0.91601E-01
 0.41950001E+02  0.56248E-02
 0.42000000E+02 -0.68275E-01
 0.42049999E+02 -0.10400E+00
 0.42100002E+02 -0.82102E-01
 0.42150002E+02 -0.24852E-01
 0.42200001E+02 -0.77752E-02
 0.42250000E+02 -0.12137E+00
 0.42299999E+02 -0.26065E+00
 0.42350002E+02 -0.25956E+00
 0.42400002E+02 -0.19069E+00
 0.42450001E+02 -0.95444E-01
 0.42500000E+02  0.16274E-01
 0.42549999E+02  0.86331E-01
 0.42600002E+02  0.17797E+00
 0.42650002E+02  0.28713E+00
 0.42700001E+02  0.38372E+00
 0.42750000E+02  0.40396E+00
 0.42799999E+02  0.36151E+00
 0.42850002E+02  0.28863E+00
 0.42900002E+02  0.19653E+00
 0.42950001E+02  0.13903E+00
 0.43000000E+02  0.11928E+00
 0.43049999E+02  0.13195E+00
 0.43100002E+02  0.16558E+00
 0.43150002E+02  0.20547E+00
 0.43200001E+02  0.15324E+00
 0.43250000E+02 -0.11468E-01
 0.43299999E+02 -0.18055E+00
 0.43350002E+02 -0.27398E+00
 0.43400002E+02 -0.26420E+00
 0.43450001E+02 -0.14195E+00
 0.43500000E+02 -0.27532E-01
 0.43549999E+02  0.87545E-01
 0.43600002E+02  0.18992E+00
 0.43650002E+02  0.18715E+00
 0.43700001E+02  0.13452E+00
 0.43750000E+02  0.13395E+00
 0.43799999E+02  0.17068E+00
 0.43850002E+02  0.18137E+00
 0.43900002E+02  0.17395E+00
 0.43950001E+02  0.17671E+00
 0.44000000E+02  0.17764E+00
 0.44049999E+02  0.11319E+00
 0.44100002E+02 -0.55015E-02
 0.44150002E+02 -0.11755E+00
 0.44200001E+02 -0.18413E+00
 0.44250000E+02 -0.24887E+00
 0.44299999E+02 -0.27539E+00
 0.44350002E+02 -0.26506E+00
 0.44400002E+02 -0.14930E+00
 0.44450001E+02  0.83500E-02
 0.44500000E+02  0.72063E-01
 0.44549999E+02  0.82893E-01
 0.44600002E+02  0.87826E-01
 0.44650002E+02  0.13232E+00
 0.44700001E+02  0.11202E+00
 0.44750000E+02 -0.10170E-02
 0.44799999E+02 -0.81162E-01
 0.44850002E+02 -0.64620E-01
 0.44900002E+02 -0.62908E-03
 0.44950001E+02  0.12041E+00
 0.45000000E+02  0.20571E+00
 0.45049999E+02  0.16905E+00
 0.45100002E+02  0.66574E-01
 0.45150002E+02 -0.18780E-01
 0.45200001E+02 -0.14239E-01
 0.45250000E+02  0.23398E-01
 0.45299999E+02  0.22541E-01
 0.45350002E+02 -0.11069E-02
 0.45400002E+02 -0.21566E-02
 0.45450001E+02  0.50644E-01
 0.45500000E+02  0.13781E+00
 0.45549999E+02  0.15844E+00
 0.45600002E+02  0.11952E+00
 0.45650002E+02  0.64318E-01
 0.45700001E+02  0.85835E-02
 0.45750000E+02 -0.49498E-01
 0.45799999E+02 -0.59211E-01
 0.45850002E+02 -0.54128E-01
 0.45900002E+02 -0.69808E-01
 0.45950001E+02 -0.99203E-01
 0.46000000E+02 -0.15620E+00
 0.46049999E+02 -0.21541E+00
 0.46100002E+02 -0.27650E+00
 0.46150002E+02 -0.28000E+00
 0.46200001E+02 -0.22052E+00
 0.46250000E+02 -0.14205E+00
 0.46299999E+02 -0.11165E+00
 0.46350002E+02 -0.13969E+00
 0.46400002E+02 -0.14419E+00
 0.46450001E+02 -0.82280E-01
 0.46500000E+02 -0.18594E-01
 0.46549999E+02 -0.95673E-02
 0.46600002E+02 -0.32355E-03
 0.46650002E+02  0.52201E-01
 0.46700001E+02  0.10370E+00
 0.46750000E+02  0.83686E-01
 0.46799999E+02 -0.19984E-01
 0.46850002E+02 -0.11042E+00
 0.46900002E+02 -0.11200E+00
 0.46950001E+02 -0.17408E-01
 0.47000000E+02  0.95537E-01
 0.47049999E+02  0.15389E+00
 0.47100002E+02  0.13369E+00
 0.47150002E+02  0.85849E-01
 0.47200001E+02  0.46328E-01
 0.47250000E+02 -0.23909E-01
 0.47299999E+02 -0.10817E+00
 0.47350002E+02 -0.16130E+00
 0.47400002E+02 -0.14288E+00
 0.47450001E+02 -0.11544E+00
 0.47500000E+02 -0.11746E+00
 0.47549999E+02 -0.13335E+00
 0.47600002E+02 -0.11751E+00
 0.47650002E+02 -0.52647E-01
 0.47700001E+02  0.40673E-02
 0.47750000E+02  0.33314E-01
 0.47799999E+02  0.45547E-01
 0.47850002E+02  0.77256E-01
 0.47900002E+02  0.92669E-01
 0.47950001E+02  0.69646E-01
 0.48000000E+02  0.72713E-01
 0.48049999E+02  0.88368E-01
 0.48100002E+02  0.10641E+00
 0.48150002E+02  0.13063E+00
 0.48200001E+02  0.13912E+00
 0.48250000E+02  0.11818E+00
 0.48299999E+02  0.78217E-01
 0.48350002E+02  0.49124E-01
 0.48400002E+02  0.10717E-01
 0.48450001E+02 -0.81052E-01
 0.48500000E+02 -0.18496E+00
 0.48549999E+02 -0.23004E+00
 0.48600002E+02 -0.22816E+00
 0.48650002E+02 -0.19826E+00
 0.48700001E+02 -0.12306E+00
 0.48750000E+02 -0.37653E-01
 0.48799999E+02  0.14034E-02
 0.48850002E+02  0.16684E-01
 0.48900002E+02  0.32988E-01
 0.48950001E+02  0.65231E-01
 0.49000000E+02  0.11860E+00
 0.49049999E+02  0.15057E+00
 0.49100002E+02  0.17055E+00
 0.49150002E+02  0.22496E+00
 0.49200001E+02  0.29716E+00
 0.49250000E+02  0.32798E+00
 0.49299999E+02  0.28259E+00
 0.49350002E+02  0.17061E+00
 0.49400002E+02  0.54295E-01
 0.49450001E+02 -0.19984E-01
 0.49500000E+02 -0.94651E-01
 0.49549999E+02 -0.14181E+00
 0.49600002E+02 -0.15229E+00
 0.49650002E+02 -0.16177E+00
 0.49700001E+02 -0.15808E+00
 0.49750000E+02 -0.14881E+00
 0.49799999E+02 -0.15522E+00
 0.49850002E+02 -0.18571E+00
 0.49900002E+02 -0.23299E+00
 0.49950001E+02 -0.26258E+00
 0.50000000E+02 -0.20628E+00
 0.50049999E+02 -0.10770E+00
 0.50100002E+02 -0.24014E-01
 0.50150002E+02  0.25707E-01
 0.50200001E+02  0.28294E-01
 0.50250000E+02 -0.98498E-02
 0.50299999E+02 -0.46454E-01
 0.50350002E+02 -0.30900E-01
 0.50400002E+02 -0.84915E-02
 0.50450001E+02  0.53155E-02
 0.50500000E+02  0.14988E-01
 0.50549999E+02  0.40358E-01
 0.50600002E+02  0.99551E-01
 0.50650002E+02  0.14698E+00
 0.50700001E+02  0.16041E+00
 0.50750000E+02  0.15484E+00
 0.50799999E+02  0.14772E+00
 0.50850002E+02  0.13440E+00
 0.50900002E+02  0.10483E+00
 0.50950001E+02  0.33975E-01
 0.51000000E+02 -0.67848E-01
 0.51049999E+02 -0.17057E+00
 0.51100002E+02 -0.24344E+00
 0.51150002E+02 -0.27580E+00
 0.51200001E+02 -0.28338E+00
 0.51250000E+02 -0.26536E+00
 0.51299999E+02 -0.25864E+00
 0.51350002E+02 -0.25149E+00
 0.51400002E+02 -0.19862E+00
 0.51450001E+02 -0.90339E-01
 0.51500000E+02  0.40411E-01
 0.51549999E+02  0.11906E+00
 0.51600002E+02  0.12493E+00
 0.51650002E+02  0.10509E+00
 0.51700001E+02  0.11182E+00
 0.51750000E+02  0.14111E+00
 0.51799999E+02  0.14220E+00
 0.51850002E+02  0.11713E+00
 0.51900002E+02  0.94297E-01
 0.51950001E+02  0.87944E-01
 0.52000000E+02  0.61592E-01
 0.52049999E+02  0.47824E-02
 0.52100002E+02 -0.57426E-01
 0.52150002E+02 -0.94267E-01
 0.52200001E+02 -0.89350E-01
 0.52250000E+02 -0.81904E-01
 0.52299999E+02 -0.62463E-01
 0.52350002E+02 -0.63115E-01
 0.52400002E+02 -0.90838E-01
 0.52450001E+02 -0.97150E-01
 0.52500000E+02 -0.83045E-01
 0.52549999E+02 -0.72047E-01
 0.52600002E+02 -0.65904E-01
 0.52650002E+02 -0.39102E-01
 0.52700001E+02 -0.19346E-01
 0.52750000E+02 -0.11828E-01
 0.52799999E+02  0.21389E-01
 0.52850002E+02  0.59708E-01
 0.52900002E+02  0.68136E-01
 0.52950001E+02  0.59684E-01
 0.53000000E+02  0.57486E-01
 0.53049999E+02  0.61956E-01
 0.53100002E+02  0.70365E-01
 0.53150002E+02  0.54617E-01
 0.53200001E+02  0.50254E-01
 0.53250000E+02  0.69604E-01
 0.53299999E+02  0.94391E-01
 0.53350002E+02  0.10949E+00
 0.53400002E+02  0.88188E-01
 0.53450001E+02  0.37363E-01
 0.53500000E+02 -0.33156E-02
 0.53549999E+02 -0.25719E-01
 0.53600002E+02 -0.87220E-01
 0.53650002E+02 -0.13934E+00
 0.53700001E+02 -0.14970E+00
 0.53750000E+02 -0.13301E+00
 0.53799999E+02 -0.10574E+00
 0.53850002E+02 -0.72498E-01
 0.53900002E+02 -0.35820E-01
 0.53950001E+02 -0.13014E-01
 0.54000000E+02  0.11654E-01
 0.54049999E+02  0.26020E-01
 0.54100002E+02  0.30639E-01
 0.54150002E+02  0.47659E-01
 0.54200001E+02  0.78240E-01
 0.54250000E+02  0.10794E+00
 0.54299999E+02  0.11327E+00
 0.54350002E+02  0.10261E+00
 0.54400002E+02  0.10355E+00
 0.54450001E+02  0.11335E+00
 0.54500000E+02  0.98174E-01
 0.54549999E+02  0.65823E-01
 0.54600002E+02  0.28883E-01
 0.54650002E+02 -0.52523E-02
 0.54700001E+02 -0.74664E-02
 0.54750000E+02  0.95666E-02
 0.54799999E+02  0.13260E-01
 0.54850002E+02 -0.19545E-02
 0.54900002E+02 -0.17441E-01
 0.54950001E+02 -0.53328E-01
 0.55000000E+02 -0.10406E+00
 0.55049999E+02 -0.14251E+00
 0.55100002E+02 -0.16285E+00
 0.55150002E+02 -0.16765E+00
 0.55200001E+02 -0.17603E+00
 0.55250000E+02 -0.17019E+00
 0.55299999E+02 -0.13437E+00
 0.55350002E+02 -0.89509E-01
 0.55400002E+02 -0.51631E-01
 0.55450001E+02 -0.10623E-01
 0.55500000E+02  0.28360E-01
 0.55549999E+02  0.63988E-01
 0.55600002E+02  0.10028E+00
 0.55650002E+02  0.12250E+00
 0.55700001E+02  0.13931E+00
 0.55750000E+02  0.16093E+00
 0.55799999E+02  0.19001E+00
 0.55850002E+02  0.21573E+00
 0.55900002E+02  0.21723E+00
 0.55950001E+02  0.17870E+00
 0.56000000E+02  0.11841E+00
 0.56049999E+02  0.58888E-01
 0.56100002E+02  0.10113E-01
 0.56150002E+02 -0.89554E-02
 0.56200001E+02 -0.45837E-02
 0.56250000E+02 -0.20003E-01
 0.56299999E+02 -0.48825E-01
 0.56350002E+02 -0.75739E-01
 0.56400002E+02 -0.11398E+00
 0.56450001E+02 -0.14510E+00
 0.56500000E+02 -0.16727E+00
 0.56549999E+02 -0.19022E+00
 0.56600002E+02 -0.20540E+00
 0.56650002E+02 -0.20148E+00
 0.56700001E+02 -0.18253E+00
 0.56750000E+02 -0.13566E+00
 0.56799999E+02 -0.62226E-01
 0.56850002E+02  0.81773E-02
 0.56900002E+02  0.56683E-01
 0.56950001E+02  0.67964E-01
 0.57000000E+02  0.57326E-01
 0.57049999E+02  0.34001E-01
 0.57100002E+02 -0.42056E-02
 0.57150002E+02 -0.39386E-01
 0.57200001E+02 -0.50889E-01
 0.57250000E+02 -0.25077E-01
 0.57299999E+02  0.74159E-02
 0.57350002E+02  0.14997E-01
 0.57400002E+02  0.17430E-01
 0.57450001E+02  0.78582E-02
 0.57500000E+02 -0.16953E-01
 0.57549999E+02 -0.23317E-01
 0.57600002E+02 -0.22337E-01
 0.57650002E+02 -0.14394E-01
 0.57700001E+02  0.79892E-02
 0.57750000E+02  0.17644E-01
 0.57799999E+02  0.30259E-01
 0.57850002E+02  0.47844E-01
 0.57900002E+02  0.41113E-01
 0.57950001E+02  0.28061E-01
 0.58000000E+02  0.13364E-01
 0.58049999E+02 -0.45700E-02
 0.58100002E+02 -0.68736E-02
 0.58150002E+02  0.64197E-02
 0.58200001E+02  0.55587E-03
 0.58250000E+02 -0.25653E-01
 0.58299999E+02 -0.53855E-01
 0.58350002E+02 -0.79967E-01
 0.58400002E+02 -0.11017E+00
 0.58450001E+02 -0.14355E+00
 0.58500000E+02 -0.15780E+00
 0.58549999E+02 -0.13787E+00
 0.58600002E+02 -0.96587E-01
 0.58650002E+02 -0.42541E-01
 0.58700001E+02  0.96032E-02
 0.58750000E+02  0.46934E-01
 0.58799999E+02  0.92298E-01
 0.58850002E+02  0.12749E+00
 0.58900002E+02  0.13888E+00
 0.58950001E+02  0.13018E+00
 0.59000000E+02  0.10453E+00
 0.59049999E+02  0.73020E-01
 0.59100002E+02  0.63843E-01
 0.59150002E+02  0.66775E-01
 0.59200001E+02  0.63458E-01
 0.59250000E+02  0.47374E-01
 0.59299999E+02  0.15710E-01
 0.59350002E+02 -0.74020E-02
 0.59400002E+02 -0.22596E-01
 0.59450001E+02 -0.33767E-01
 0.59500000E+02 -0.45857E-01
 0.59549999E+02 -0.54847E-01
 0.59600002E+02 -0.47896E-01
 0.59650002E+02 -0.32873E-01
 0.59700001E+02 -0.17206E-01
 0.59750000E+02  0.58491E-02
 0.59799999E+02  0.36010E-01
 0.59850002E+02  0.61754E-01
 0.59900002E+02  0.72547E-01
 0.59950001E+02  0.73855E-01
 0.60000000E+02  0.70595E-01
 0.60049999E+02  0.64390E-01
 0.60100002E+02  0.51790E-01
 0.60150002E+02  0.28755E-01
 0.60200001E+02  0.12735E-01
 0.60250000E+02  0.12550E-01
 0.60299999E+02  0.24933E-01
 0.60350002E+02  0.40312E-01
 0.60400002E+02  0.41714E-01
 0.60450001E+02  0.35427E-01
 0.60500000E+02  0.32733E-01
 0.60549999E+02  0.32927E-01
 0.60600002E+02  0.40153E-01
 0.60650002E+02  0.43688E-01
 0.60700001E+02  0.37782E-01
 0.60750000E+02  0.29473E-01
 0.60799999E+02  0.14266E-01
 0.60850002E+02 -0.15238E-02
 0.60900002E+02 -0.12731E-01
 0.60950001E+02 -0.10340E-01
 0.61000000E+02 -0.25049E-02
 0.61049999E+02  0.77027E-03
 0.61100002E+02  0.17598E-02
 0.61150002E+02 -0.25834E-02
 0.61200001E+02 -0.90230E-02
 0.61250000E+02 -0.15033E-01
 0.61299999E+02 -0.14469E-01
 0.61350002E+02 -0.96211E-02
 0.61400002E+02 -0.18605E-01
 0.61450001E+02 -0.45516E-01
 0.61500000E+02 -0.67692E-01
 0.61549999E+02 -0.74219E-01
 0.61600002E+02 -0.62631E-01
 0.61650002E+02 -0.40020E-01
 0.61700001E+02 -0.18168E-01
 0.61750000E+02 -0.51325E-02
 0.61799999E+02  0.98679E-02
 0.61850002E+02  0.31244E-01
 0.61900002E+02  0.45234E-01
 0.61950001E+02  0.50766E-01
 0.62000000E+02  0.48280E-01
 0.62049999E+02  0.36000E-01
 0.62100002E+02  0.16144E-01
 0.62150002E+02 -0.44495E-02
 0.62200001E+02 -0.30720E-01
 0.62250000E+02 -0.49880E-01
 0.62299999E+02 -0.53741E-01
 0.62350002E+02 -0.43032E-01
 0.62400002E+02 -0.24305E-01
 0.62450001E+02 -0.73554E-02
 0.62500000E+02  0.14873E-01
 0.62549999E+02  0.32260E-01
 0.62600002E+02  0.35862E-01
 0.62650002E+02  0.41136E-01
 0.62700001E+02  0.59192E-01
 0.62750000E+02  0.88576E-01
 0.62799999E+02  0.12098E+00
 0.62850002E+02  0.13060E+00
 0.62900002E+02  0.11029E+00
 0.62950001E+02  0.72972E-01
 0.63000000E+02  0.38443E-01
 0.63049999E+02  0.12627E-01
 0.63100002E+02 -0.58146E-02
 0.63150002E+02 -0.11588E-01
 0.63200001E+02 -0.16836E-01
 0.63250000E+02 -0.34097E-01
 0.63299999E+02 -0.65624E-01
 0.63350002E+02 -0.98531E-01
 0.63400002E+02 -0.11810E+00
 0.63450001E+02 -0.12962E+00
 0.63500000E+02 -0.13880E+00
 0.63549999E+02 -0.13700E+00
 0.63600002E+02 -0.12760E+00
 0.63650002E+02 -0.11206E+00
 0.63700001E+02 -0.94717E-01
 0.63750000E+02 -0.72613E-01
 0.63799999E+02 -0.39199E-01
 0.63850002E+02 -0.11771E-01
 0.63900002E+02 -0.49190E-02
 0.63950001E+02 -0.21242E-01
 0.64000000E+02 -0.45791E-01
 0.64050003E+02 -0.61629E-01
 0.64099998E+02 -0.64518E-01
 0.64150002E+02 -0.56233E-01
 0.64200005E+02 -0.32137E-01
 0.64250000E+02  0.97703E-03
 0.64300003E+02  0.33954E-01
 0.64349998E+02  0.70482E-01
 0.64400002E+02  0.10348E+00
 0.64450005E+02  0.12413E+00
 0.64500000E+02  0.13046E+00
 0.64550003E+02  0.12990E+00
 0.64599998E+02  0.12935E+00
 0.64650002E+02  0.12915E+00
 0.64700005E+02  0.12639E+00
 0.64750000E+02  0.12016E+00
 0.64800003E+02  0.11416E+00
 0.64849998E+02  0.10722E+00
 0.64900002E+02  0.85638E-01
 0.64950005E+02  0.43576E-01
 0.65000000E+02 -0.10419E-01
 0.65050003E+02 -0.71616E-01
 0.65099998E+02 -0.12239E+00
 0.65150002E+02 -0.14863E+00
 0.65200005E+02 -0.14802E+00
 0.65250000E+02 -0.12585E+00
 0.65300003E+02 -0.93824E-01
 0.65349998E+02 -0.62682E-01
 0.65400002E+02 -0.43767E-01
 0.65450005E+02 -0.34433E-01
 0.65500000E+02 -0.22445E-01
 0.65550003E+02 -0.49061E-02
 0.65599998E+02  0.16189E-01
 0.65650002E+02  0.39156E-01
 0.65700005E+02  0.56132E-01
 0.65750000E+02  0.65396E-01
 0.65800003E+02  0.77058E-01
 0.65849998E+02  0.84200E-01
 0.65900002E+02  0.78800E-01
 0.65950005E+02  0.62204E-01
 0.66000000E+02  0.42916E-01
 0.66050003E+02  0.32870E-01
 0.66099998E+02  0.33851E-01
 0.66150002E+02  0.43231E-01
 0.66200005E+02  0.52839E-01
 0.66250000E+02  0.64401E-01
 0.66300003E+02  0.73672E-01
 0.66349998E+02  0.72428E-01
 0.66400002E+02  0.63716E-01
 0.66450005E+02  0.52025E-01
 0.66500000E+02  0.41172E-01
 0.66550003E+02  0.31234E-01
 0.66599998E+02  0.19249E-01
 0.66650002E+02  0.51329E-02
 0.66700005E+02 -0.99826E-02
 0.66750000E+02 -0.22543E-01
 0.66800003E+02 -0.32906E-01
 0.66849998E+02 -0.34596E-01
 0.66900002E+02 -0.27334E-01
 0.66950005E+02 -0.22035E-01
 0.67000000E+02 -0.21364E-01
 0.67050003E+02 -0.31212E-01
 0.67099998E+02 -0.51067E-01
 0.67150002E+02 -0.65744E-01
 0.67200005E+02 -0.73354E-01
 0.67250000E+02 -0.79582E-01
 0.67300003E+02 -0.84783E-01
 0.67349998E+02 -0.79642E-01
 0.67400002E+02 -0.62605E-01
 0.67450005E+02 -0.43343E-01
 0.67500000E+02 -0.28085E-01
 0.67550003E+02 -0.13454E-01
 0.67599998E+02 -0.59872E-03
 0.67650002E+02 -0.16962E-02
 0.67700005E+02 -0.10561E-01
 0.67750000E+02 -0.23738E-01
 0.67800003E+02 -0.33998E-01
 0.67849998E+02 -0.28849E-01
 0.67900002E+02 -0.16765E-01
 0.67950005E+02 -0.16877E-01
 0.68000000E+02 -0.28872E-01
 0.68050003E+02 -0.53964E-01
 0.68099998E+02 -0.75111E-01
 0.68150002E+02 -0.74627E-01
 0.68200005E+02 -0.57741E-01
 0.68250000E+02 -0.30130E-01
 0.68300003E+02 -0.12963E-01
 0.68349998E+02 -0.10748E-01
 0.68400002E+02 -0.12328E-01
 0.68450005E+02 -0.87745E-02
 0.68500000E+02 -0.21091E-02
 0.68550003E+02  0.36073E-04
 0.68599998E+02  0.22983E-02
 0.68650002E+02  0.67769E-02
 0.68700005E+02  0.95501E-02
 0.68750000E+02  0.13399E-01
 0.68800003E+02  0.19554E-01
 0.68849998E+02  0.32432E-01
 0.68900002E+02  0.53003E-01
 0.68950005E+02  0.69789E-01
 0.69000000E+02  0.72868E-01
 0.69050003E+02  0.66274E-01
 0.69099998E+02  0.55587E-01
 0.69150002E+02  0.43835E-01
 0.69200005E+02  0.39672E-01
 0.69250000E+02  0.48574E-01
 0.69300003E+02  0.62736E-01
 0.69349998E+02  0.68914E-01
 0.69400002E+02  0.64144E-01
 0.69450005E+02  0.56194E-01
 0.69500000E+02  0.46813E-01
 0.69550003E+02  0.35584E-01
 0.69599998E+02  0.21151E-01
 0.69650002E+02  0.26784E-02
 0.69700005E+02 -0.13794E-01
 0.69750000E+02 -0.39347E-01
 0.69800003E+02 -0.65352E-01
 0.69849998E+02 -0.78849E-01
 0.69900002E+02 -0.83250E-01
 0.69950005E+02 -0.78293E-01
 0.70000000E+02 -0.67694E-01
 0.70050003E+02 -0.57054E-01
 0.70099998E+02 -0.48147E-01
 0.70150002E+02 -0.29720E-01
 0.70200005E+02 -0.11389E-01
 0.70250000E+02 -0.32718E-02
 0.70300003E+02 -0.22243E-02
 0.70349998E+02 -0.44738E-02
 0.70400002E+02 -0.70652E-02
 0.70450005E+02 -0.53977E-02
 0.70500000E+02  0.20169E-02
 0.70550003E+02  0.53067E-02
 0.70599998E+02  0.10163E-01
 0.70650002E+02  0.16719E-01
 0.70700005E+02  0.20691E-01
 0.70750000E+02  0.19649E-01
 0.70800003E+02  0.55868E-02
 0.70849998E+02 -0.14575E-01
 0.70900002E+02 -0.26455E-01
 0.70950005E+02 -0.25092E-01
 0.71000000E+02 -0.13970E-01
 0.71050003E+02 -0.68048E-02
 0.71099998E+02 -0.26497E-02
 0.71150002E+02  0.52416E-02
 0.71200005E+02  0.13249E-01
 0.71250000E+02  0.25584E-01
 0.71300003E+02  0.33449E-01
 0.71349998E+02  0.34598E-01
 0.71400002E+02  0.40936E-01
 0.71450005E+02  0.48704E-01
 0.71500000E+02  0.50332E-01
 0.71550003E+02  0.38184E-01
 0.71599998E+02  0.11250E-01
 0.71650002E+02 -0.19324E-01
 0.71700005E+02 -0.39215E-01
 0.71750000E+02 -0.49229E-01
 0.71800003E+02 -0.53606E-01
 0.71849998E+02 -0.46563E-01
 0.71900002E+02 -0.29104E-01
 0.71950005E+02 -0.39917E-02
 0.72000000E+02  0.20272E-01
 0.72050003E+02  0.27675E-01
 0.72099998E+02  0.16453E-01
 0.72150002E+02  0.27163E-02
 0.72200005E+02 -0.42637E-02
 0.72250000E+02 -0.10202E-02
 0.72300003E+02  0.91343E-02
 0.72349998E+02  0.15171E-01
 0.72400002E+02  0.19113E-01
 0.72450005E+02  0.23025E-01
 0.72500000E+02  0.23649E-01
 0.72550003E+02  0.26593E-01
 0.72599998E+02  0.24775E-01
 0.72650002E+02  0.14804E-01
 0.72700005E+02  0.70617E-02
 0.72750000E+02  0.20195E-02
 0.72800003E+02  0.18187E-02
 0.72849998E+02  0.65510E-02
 0.72900002E+02  0.12701E-01
 0.72950005E+02  0.17728E-01
 0.73000000E+02  0.21532E-01
 0.73050003E+02  0.22271E-01
 0.73099998E+02  0.20059E-01
 0.73150002E+02  0.14693E-01
 0.73200005E+02  0.39283E-02
 0.73250000E+02 -0.14211E-01
 0.73300003E+02 -0.35138E-01
 0.73349998E+02 -0.51203E-01
 0.73400002E+02 -0.61698E-01
 0.73450005E+02 -0.67687E-01
 0.73500000E+02 -0.71663E-01
 0.73550003E+02 -0.74823E-01
 0.73599998E+02 -0.77998E-01
 0.73650002E+02 -0.78053E-01
 0.73700005E+02 -0.78263E-01
 0.73750000E+02 -0.71722E-01
 0.73800003E+02 -0.54012E-01
 0.73849998E+02 -0.29345E-01
 0.73900002E+02 -0.41173E-02
 0.73950005E+02  0.17537E-01
 0.74000000E+02  0.37710E-01
 0.74050003E+02  0.52711E-01
 0.74099998E+02  0.61700E-01
 0.74150002E+02  0.64327E-01
 0.74200005E+02  0.66034E-01
 0.74250000E+02  0.67201E-01
 0.74300003E+02  0.62705E-01
 0.74349998E+02  0.53426E-01
 0.74400002E+02  0.44593E-01
 0.74450005E+02  0.31237E-01
 0.74500000E+02  0.14435E-01
 0.74550003E+02  0.30373E-02
 0.74599998E+02 -0.10140E-02
 0.74650002E+02 -0.19523E-02
 0.74700005E+02 -0.64484E-02
 0.74750000E+02 -0.17802E-01
 0.74800003E+02 -0.30067E-01
 0.74849998E+02 -0.38003E-01
 0.74900002E+02 -0.41956E-01
 0.74950005E+02 -0.38252E-01
 0.75000000E+02 -0.26359E-01
 0.75050003E+02 -0.75522E-02
 0.75099998E+02  0.13250E-01
 0.75150002E+02  0.32940E-01
 0.75200005E+02  0.47684E-01
 0.75250000E+02  0.57920E-01
 0.75300003E+02  0.64466E-01
 0.75349998E+02  0.61100E-01
 0.75400002E+02  0.48794E-01
 0.75450005E+02  0.34623E-01
 0.75500000E+02  0.26056E-01
 0.75550003E+02  0.25399E-01
 0.75599998E+02  0.31505E-01
 0.75650002E+02  0.47102E-01
 0.75700005E+02  0.66855E-01
 0.75750000E+02  0.80896E-01
 0.75800003E+02  0.83990E-01
 0.75849998E+02  0.77643E-01
 0.75900002E+02  0.67434E-01
 0.75950005E+02  0.52432E-01
 0.76000000E+02  0.25824E-01
 0.76050003E+02 -0.10625E-01
 0.76099998E+02 -0.45046E-01
 0.76150002E+02 -0.68296E-01
 0.76200005E+02 -0.81510E-01
 0.76250000E+02 -0.88552E-01
 0.76300003E+02 -0.90934E-01
 0.76349998E+02 -0.91219E-01
 0.76400002E+02 -0.87482E-01
 0.76450005E+02 -0.78956E-01
 0.76500000E+02 -0.64738E-01
 0.76550003E+02 -0.49039E-01
 0.76599998E+02 -0.31657E-01
 0.76650002E+02 -0.12515E-01
 0.76700005E+02  0.23867E-02
 0.76750000E+02  0.97560E-02
 0.76800003E+02  0.13409E-01
 0.76849998E+02  0.16288E-01
 0.76900002E+02  0.16325E-01
 0.76950005E+02  0.92159E-02
 0.77000000E+02 -0.95521E-02
 0.77050003E+02 -0.29000E-01
 0.77099998E+02 -0.42519E-01
 0.77150002E+02 -0.50395E-01
 0.77200005E+02 -0.57471E-01
 0.77250000E+02 -0.63147E-01
 0.77300003E+02 -0.60140E-01
 0.77349998E+02 -0.51158E-01
 0.77400002E+02 -0.41564E-01
 0.77450005E+02 -0.27961E-01
 0.77500000E+02 -0.82598E-02
 0.77550003E+02  0.12528E-01
 0.77599998E+02  0.30489E-01
 0.77650002E+02  0.42787E-01
 0.77700005E+02  0.60357E-01
 0.77750000E+02  0.84020E-01
 0.77800003E+02  0.10231E+00
 0.77849998E+02  0.11031E+00
 0.77900002E+02  0.10666E+00
 0.77950005E+02  0.91148E-01
 0.78000000E+02  0.61970E-01
 0.78050003E+02  0.23807E-01
 0.78099998E+02 -0.13917E-01
 0.78150002E+02 -0.45493E-01
 0.78200005E+02 -0.67476E-01
 0.78250000E+02 -0.78171E-01
 0.78300003E+02 -0.80793E-01
 0.78349998E+02 -0.75439E-01
 0.78400002E+02 -0.63830E-01
 0.78450005E+02 -0.48695E-01
 0.78500000E+02 -0.31819E-01
 0.78550003E+02 -0.19797E-01
 0.78599998E+02 -0.14864E-01
 0.78650002E+02 -0.77524E-02
 0.78700005E+02  0.32763E-02
 0.78750000E+02  0.14563E-01
 0.78800003E+02  0.24632E-01
 0.78849998E+02  0.33740E-01
 0.78900002E+02  0.43020E-01
 0.78950005E+02  0.53338E-01
 0.79000000E+02  0.63521E-01
 0.79050003E+02  0.70338E-01
 0.79099998E+02  0.72335E-01
 0.79150002E+02  0.68281E-01
 0.79200005E+02  0.58869E-01
 0.79250000E+02  0.41928E-01
 0.79300003E+02  0.19778E-01
 0.79349998E+02 -0.53005E-02
 0.79400002E+02 -0.32600E-01
 0.79450005E+02 -0.57801E-01
 0.79500000E+02 -0.73010E-01
 0.79550003E+02 -0.77101E-01
 0.79599998E+02 -0.69499E-01
 0.79650002E+02 -0.50060E-01
 0.79700005E+02 -0.25441E-01
 0.79750000E+02 -0.17695E-02
 0.79800003E+02  0.17320E-01
 0.79849998E+02  0.34099E-01
 0.79900002E+02  0.51126E-01
 0.79950005E+02  0.67113E-01
 0.80000000E+02  0.75142E-01
 0.80050003E+02  0.71728E-01
 0.80099998E+02  0.61473E-01
 0.80150002E+02  0.48143E-01
 0.80200005E+02  0.33881E-01
 0.80250000E+02  0.19049E-01
 0.80300003E+02  0.36814E-02
 0.80349998E+02 -0.75298E-02
 0.80400002E+02 -0.13161E-01
 0.80450005E+02 -0.15505E-01
 0.80500000E+02 -0.18249E-01
 0.80550003E+02 -0.20159E-01
 0.80599998E+02 -0.17475E-01
 0.80650002E+02 -0.14165E-01
 0.80700005E+02 -0.15607E-01
 0.80750000E+02 -0.23441E-01
 0.80800003E+02 -0.35978E-01
 0.80849998E+02 -0.48315E-01
 0.80900002E+02 -0.58779E-01
 0.80950005E+02 -0.61969E-01
 0.81000000E+02 -0.53138E-01
 0.81050003E+02 -0.36440E-01
 0.81099998E+02 -0.14831E-01
 0.81150002E+02  0.62764E-02
 0.81200005E+02  0.22386E-01
 0.81250000E+02  0.33193E-01
 0.81300003E+02  0.41507E-01
 0.81349998E+02  0.45648E-01
 0.81400002E+02  0.41752E-01
 0.81450005E+02  0.32903E-01
 0.81500000E+02  0.24173E-01
 0.81550003E+02  0.21171E-01
 0.81599998E+02  0.22602E-01
 0.81650002E+02  0.24087E-01
 0.81700005E+02  0.24793E-01
 0.81750000E+02  0.23989E-01
 0.81800003E+02  0.24914E-01
 0.81849998E+02  0.26350E-01
 0.81900002E+02  0.25507E-01
 0.81950005E+02  0.23748E-01
 0.82000000E+02  0.19644E-01
 0.82050003E+02  0.12141E-01
 0.82099998E+02  0.35508E-03
 0.82150002E+02 -0.13011E-01
 0.82200005E+02 -0.23387E-01
 0.82250000E+02 -0.29597E-01
 0.82300003E+02 -0.33714E-01
 0.82349998E+02 -0.33500E-01
 0.82400002E+02 -0.27580E-01
 0.82450005E+02 -0.23485E-01
 0.82500000E+02 -0.20310E-01
 0.82550003E+02 -0.15841E-01
 0.82599998E+02 -0.10791E-01
 0.82650002E+02 -0.73866E-02
 0.82700005E+02 -0.69654E-02
 0.82750000E+02 -0.86153E-02
 0.82800003E+02 -0.96875E-02
 0.82849998E+02 -0.95644E-02
 0.82900002E+02 -0.11630E-01
 0.82950005E+02 -0.13238E-01
 0.83000000E+02 -0.14537E-01
 0.83050003E+02 -0.13279E-01
 0.83099998E+02 -0.76198E-02
 0.83150002E+02 -0.28589E-02
 0.83200005E+02  0.32286E-03
 0.83250000E+02  0.42039E-02
 0.83300003E+02  0.11892E-01
 0.83349998E+02  0.18495E-01
 0.83400002E+02  0.17333E-01
 0.83450005E+02  0.13089E-01
 0.83500000E+02  0.80735E-02
 0.83550003E+02  0.39087E-02
 0.83599998E+02  0.64574E-03
 0.83650002E+02 -0.35444E-03
 0.83700005E+02  0.25188E-02
 0.83750000E+02  0.31095E-02
 0.83800003E+02 -0.24312E-02
 0.83849998E+02 -0.10273E-01
 0.83900002E+02 -0.15297E-01
 0.83950005E+02 -0.15099E-01
 0.84000000E+02 -0.86639E-02
 0.84050003E+02  0.16076E-02
 0.84099998E+02  0.11595E-01
 0.84150002E+02  0.17550E-01
 0.84200005E+02  0.18757E-01
 0.84250000E+02  0.14517E-01
 0.84300003E+02  0.66607E-02
 0.84349998E+02  0.14213E-03
 0.84400002E+02 -0.48105E-02
 0.84450005E+02 -0.61918E-02
 0.84500000E+02 -0.56821E-02
 0.84550003E+02 -0.39413E-02
 0.84599998E+02  0.22675E-02
 0.84650002E+02  0.93791E-02
 0.84700005E+02  0.14227E-01
 0.84750000E+02  0.16363E-01
 0.84800003E+02  0.17790E-01
 0.84849998E+02  0.20012E-01
 0.84900002E+02  0.22170E-01
 0.84950005E+02  0.21387E-01
 0.85000000E+02  0.15536E-01
 0.85050003E+02  0.84121E-02
 0.85099998E+02  0.18580E-02
 0.85150002E+02 -0.23399E-02
 0.85200005E+02 -0.37852E-02
 0.85250000E+02 -0.77991E-02
 0.85300003E+02 -0.13850E-01
 0.85349998E+02 -0.19927E-01
 0.85400002E+02 -0.26208E-01
 0.85450005E+02 -0.29349E-01
 0.85500000E+02 -0.28705E-01
 0.85550003E+02 -0.27311E-01
 0.85599998E+02 -0.24448E-01
 0.85650002E+02 -0.21354E-01
 0.85700005E+02 -0.16923E-01
 0.85750000E+02 -0.88712E-02
 0.85800003E+02 -0.18385E-02
 0.85849998E+02  0.25751E-02
 0.85900002E+02  0.53491E-02
 0.85950005E+02  0.63085E-02
 0.86000000E+02  0.55367E-02
 0.86050003E+02  0.39494E-03
 0.86099998E+02 -0.92457E-02
 0.86150002E+02 -0.19563E-01
 0.86200005E+02 -0.28803E-01
 0.86250000E+02 -0.34462E-01
 0.86300003E+02 -0.35173E-01
 0.86349998E+02 -0.30664E-01
 0.86400002E+02 -0.25469E-01
 0.86450005E+02 -0.23804E-01
 0.86500000E+02 -0.20102E-01
 0.86550003E+02 -0.13195E-01
 0.86599998E+02 -0.64641E-02
 0.86650002E+02 -0.15896E-02
 0.86700005E+02  0.16631E-02
 0.86750000E+02  0.38337E-02
 0.86800003E+02  0.77916E-02
 0.86849998E+02  0.14159E-01
 0.86900002E+02  0.18466E-01
 0.86950005E+02  0.17414E-01
 0.87000000E+02  0.12542E-01
 0.87050003E+02  0.62941E-02
 0.87099998E+02  0.24001E-02
 0.87150002E+02  0.22659E-02
 0.87200005E+02  0.31395E-02
 0.87250000E+02  0.54458E-02
 0.87300003E+02  0.84945E-02
 0.87349998E+02  0.99735E-02
 0.87400002E+02  0.10116E-01
 0.87450005E+02  0.91735E-02
 0.87500000E+02  0.51805E-02
 0.87550003E+02  0.95237E-03
 0.87599998E+02 -0.20895E-02
 0.87650002E+02 -0.90386E-03
 0.87700005E+02  0.18951E-02
 0.87750000E+02  0.28228E-02
 0.87800003E+02  0.49908E-02
 0.87849998E+02  0.90993E-02
 0.87900002E+02  0.14189E-01
 0.87950005E+02  0.17883E-01
 0.88000000E+02  0.18663E-01
 0.88050003E+02  0.14529E-01
 0.88099998E+02  0.80645E-02
 0.88150002E+02  0.80739E-03
 0.88200005E+02 -0.54186E-02
 0.88250000E+02 -0.11147E-01
 0.88300003E+02 -0.15647E-01
 0.88349998E+02 -0.16008E-01
 0.88400002E+02 -0.14245E-01
 0.88450005E+02 -0.94040E-02
 0.88500000E+02 -0.35734E-02
 0.88550003E+02  0.17402E-02
 0.88599998E+02  0.96848E-02
 0.88650002E+02  0.19542E-01
 0.88700005E+02  0.25800E-01
 0.88750000E+02  0.27117E-01
 0.88800003E+02  0.25083E-01
 0.88849998E+02  0.22327E-01
 0.88900002E+02  0.19435E-01
 0.88950005E+02  0.16457E-01
 0.89000000E+02  0.13041E-01
 0.89050003E+02  0.74084E-02
 0.89099998E+02 -0.62085E-03
 0.89150002E+02 -0.12113E-01
 0.89200005E+02 -0.25020E-01
 0.89250000E+02 -0.34029E-01
 0.89300003E+02 -0.37615E-01
 0.89349998E+02 -0.36842E-01
 0.89400002E+02 -0.33950E-01
 0.89450005E+02 -0.30233E-01
 0.89500000E+02 -0.24641E-01
 0.89550003E+02 -0.17887E-01
 0.89599998E+02 -0.11492E-01
 0.89650002E+02 -0.72704E-02
 0.89700005E+02 -0.38374E-02
 0.89750000E+02  0.24330E-02
 0.89800003E+02  0.11586E-01
 0.89849998E+02  0.21017E-01
 0.89900002E+02  0.30788E-01
 0.89950005E+02  0.38258E-01
 0.90000000E+02  0.42949E-01
 0.90050003E+02  0.44909E-01
 0.90099998E+02  0.44544E-01
 0.90150002E+02  0.42634E-01
 0.90200005E+02  0.38295E-01
 0.90250000E+02  0.33400E-01
 0.90300003E+02  0.26787E-01
 0.90349998E+02  0.19012E-01
 0.90400002E+02  0.13916E-01
 0.90450005E+02  0.11143E-01
 0.90500000E+02  0.80848E-02
 0.90550003E+02  0.25570E-02
 0.90599998E+02 -0.39321E-02
 0.90650002E+02 -0.88347E-02
 0.90700005E+02 -0.16201E-01
 0.90750000E+02 -0.24959E-01
 0.90800003E+02 -0.32394E-01
 0.90849998E+02 -0.36571E-01
 0.90900002E+02 -0.36819E-01
 0.90950005E+02 -0.34484E-01
 0.91000000E+02 -0.28940E-01
 0.91050003E+02 -0.20717E-01
 0.91099998E+02 -0.12959E-01
 0.91150002E+02 -0.69413E-02
 0.91200005E+02 -0.11633E-02
 0.91250000E+02  0.18480E-02
 0.91300003E+02  0.17152E-02
 0.91349998E+02 -0.33936E-02
 0.91400002E+02 -0.12089E-01
 0.91450005E+02 -0.18356E-01
 0.91500000E+02 -0.21490E-01
 0.91550003E+02 -0.24045E-01
 0.91599998E+02 -0.24074E-01
 0.91650002E+02 -0.18664E-01
 0.91700005E+02 -0.91938E-02
 0.91750000E+02  0.78602E-05
 0.91800003E+02  0.62380E-02
 0.91849998E+02  0.10172E-01
 0.91900002E+02  0.12759E-01
 0.91950005E+02  0.14515E-01
 0.92000000E+02  0.16129E-01
 0.92050003E+02  0.18449E-01
 0.92099998E+02  0.18249E-01
 0.92150002E+02  0.14212E-01
 0.92200005E+02  0.91920E-02
 0.92250000E+02  0.55973E-02
 0.92300003E+02  0.22578E-02
 0.92349998E+02 -0.20502E-02
 0.92400002E+02 -0.82553E-02
 0.92450005E+02 -0.13038E-01
 0.92500000E+02 -0.14038E-01
 0.92550003E+02 -0.12209E-01
 0.92599998E+02 -0.87996E-02
 0.92650002E+02 -0.46620E-02
 0.92700005E+02  0.13067E-02
 0.92750000E+02  0.63002E-02
 0.92800003E+02  0.73753E-02
 0.92849998E+02  0.38944E-02
 0.92900002E+02 -0.14544E-02
 0.92950005E+02 -0.76932E-02
 0.93000000E+02 -0.12737E-01
 0.93050003E+02 -0.13891E-01
 0.93099998E+02 -0.12140E-01
 0.93150002E+02 -0.91904E-02
 0.93200005E+02 -0.54587E-02
 0.93250000E+02 -0.48287E-03
 0.93300003E+02  0.47086E-02
 0.93349998E+02  0.10017E-01
 0.93400002E+02  0.15187E-01
 0.93450005E+02  0.18723E-01
 0.93500000E+02  0.18993E-01
 0.93550003E+02  0.15092E-01
 0.93599998E+02  0.74965E-02
 0.93650002E+02 -0.23236E-02
 0.93700005E+02 -0.11842E-01
 0.93750000E+02 -0.16760E-01
 0.93800003E+02 -0.14903E-01
 0.93849998E+02 -0.10577E-01
 0.93900002E+02 -0.72693E-02
 0.93950005E+02 -0.28286E-02
 0.94000000E+02  0.37830E-02
 0.94050003E+02  0.10887E-01
 0.94099998E+02  0.13683E-01
 0.94150002E+02  0.91688E-02
 0.94200005E+02 -0.10556E-02
 0.94250000E+02 -0.12411E-01
 0.94300003E+02 -0.21361E-01
 0.94349998E+02 -0.28573E-01
 0.94400002E+02 -0.32835E-01
 0.94450005E+02 -0.32371E-01
 0.94500000E+02 -0.26802E-01
 0.94550003E+02 -0.18502E-01
 0.94599998E+02 -0.10777E-01
 0.94650002E+02 -0.43309E-02
 0.94700005E+02  0.11516E-03
 0.94750000E+02  0.23363E-02
 0.94800003E+02  0.27690E-02
 0.94849998E+02  0.23601E-02
 0.94900002E+02  0.32846E-02
 0.94950005E+02  0.51757E-02
 0.95000000E+02  0.74773E-02
 0.95050003E+02  0.86272E-02
 0.95099998E+02  0.74013E-02
 0.95150002E+02  0.44339E-02
 0.95200005E+02  0.72163E-03
 0.95250000E+02 -0.17337E-03
 0.95300003E+02  0.42313E-02
 0.95349998E+02  0.11981E-01
 0.95400002E+02  0.19877E-01
 0.95450005E+02  0.26189E-01
 0.95500000E+02  0.29389E-01
 0.95550003E+02  0.30178E-01
 0.95599998E+02  0.29234E-01
 0.95650002E+02  0.25187E-01
 0.95700005E+02  0.17940E-01
 0.95750000E+02  0.11172E-01
 0.95800003E+02  0.48869E-02
 0.95849998E+02 -0.11693E-02
 0.95900002E+02 -0.61449E-02
 0.95950005E+02 -0.12054E-01
 0.96000000E+02 -0.19145E-01
 0.96050003E+02 -0.27733E-01
 0.96099998E+02 -0.36193E-01
 0.96150002E+02 -0.41852E-01
 0.96200005E+02 -0.44545E-01
 0.96250000E+02 -0.43642E-01
 0.96300003E+02 -0.37923E-01
 0.96349998E+02 -0.29637E-01
 0.96400002E+02 -0.21547E-01
 0.96450005E+02 -0.13382E-01
 0.96500000E+02 -0.40800E-02
 0.96550003E+02  0.56353E-02
 0.96599998E+02  0.13261E-01
 0.96650002E+02  0.17818E-01
 0.96700005E+02  0.21286E-01
 0.96750000E+02  0.25559E-01
 0.96800003E+02  0.29368E-01
 0.96849998E+02  0.29812E-01
 0.96900002E+02  0.26256E-01
 0.96950005E+02  0.19054E-01
 0.97000000E+02  0.10220E-01
 0.97050003E+02  0.27101E-02
 0.97099998E+02 -0.31452E-02
 0.97150002E+02 -0.55329E-02
 0.97200005E+02 -0.41404E-02
 0.97250000E+02 -0.19233E-02
 0.97300003E+02  0.18952E-02
 0.97349998E+02  0.81868E-02
 0.97400002E+02  0.15147E-01
 0.97450005E+02  0.19337E-01
 0.97500000E+02  0.18804E-01
 0.97550003E+02  0.15400E-01
 0.97599998E+02  0.11190E-01
 0.97650002E+02  0.60713E-02
 0.97700005E+02 -0.57447E-03
 0.97750000E+02 -0.77959E-02
 0.97800003E+02 -0.13103E-01
 0.97849998E+02 -0.14845E-01
 0.97900002E+02 -0.14211E-01
 0.97950005E+02 -0.13140E-01
 0.98000000E+02 -0.13064E-01
 0.98050003E+02 -0.15122E-01
 0.98099998E+02 -0.17213E-01
 0.98150002E+02 -0.17146E-01
 0.98200005E+02 -0.15728E-01
 0.98250000E+02 -0.13457E-01
 0.98300003E+02 -0.10705E-01
 0.98349998E+02 -0.68812E-02
 0.98400002E+02 -0.65911E-03
 0.98450005E+02  0.65173E-02
 0.98500000E+02  0.11078E-01
 0.98550003E+02  0.11954E-01
 0.98599998E+02  0.11311E-01
 0.98650002E+02  0.12077E-01
 0.98700005E+02  0.13038E-01
 0.98750000E+02  0.12935E-01
 0.98800003E+02  0.12362E-01
 0.98849998E+02  0.12986E-01
 0.98900002E+02  0.15400E-01
 0.98950005E+02  0.18608E-01
 0.99000000E+02  0.21794E-01
 0.99050003E+02  0.24620E-01
 0.99099998E+02  0.28593E-01
 0.99150002E+02  0.31336E-01
 0.99200005E+02  0.31616E-01
 0.99250000E+02  0.30859E-01
 0.99300003E+02  0.31319E-01
 0.99349998E+02  0.33185E-01
 0.99400002E+02  0.33534E-01
 0.99450005E+02  0.31737E-01
 0.99500000E+02  0.28462E-01
 0.99550003E+02  0.24131E-01
 0.99599998E+02  0.19721E-01
 0.99650002E+02  0.15090E-01
 0.99700005E+02  0.95816E-02
 0.99750000E+02  0.42348E-02
 0.99800003E+02  0.10211E-02
 0.99849998E+02  0.81036E-03
 0.99900002E+02  0.13544E-02
 0.99950005E+02  0.20950E-02
 0.10000000E+03  0.27620E-02
 0.10005000E+03  0.23768E-02
 0.10010000E+03  0.18701E-02
 0.10015000E+03  0.10335E-03
 0.10020000E+03 -0.30499E-02
 0.10025000E+03 -0.57433E-02
 0.10030000E+03 -0.78722E-02
 0.10035000E+03 -0.98947E-02
 0.10040000E+03 -0.12946E-01
 0.10045000E+03 -0.15441E-01
 0.10050000E+03 -0.15814E-01
 0.10055000E+03 -0.14464E-01
 0.10060000E+03 -0.13020E-01
 0.10065000E+03 -0.14194E-01
 0.10070000E+03 -0.17417E-01
 0.10075000E+03 -0.21793E-01
 0.10080000E+03 -0.27283E-01
 0.10085000E+03 -0.33218E-01
 0.10090000E+03 -0.38275E-01
 0.10095000E+03 -0.41274E-01
 0.10100000E+03 -0.43608E-01
 0.10105000E+03 -0.47928E-01
 0.10110000E+03 -0.53822E-01
 0.10115000E+03 -0.60815E-01
 0.10120000E+03 -0.68165E-01
 0.10125000E+03 -0.73311E-01
 0.10130000E+03 -0.75519E-01
 0.10135000E+03 -0.73997E-01
 0.10140000E+03 -0.67975E-01
 0.10145000E+03 -0.58442E-01
 0.10150000E+03 -0.46098E-01
 0.10155000E+03 -0.30497E-01
 0.10160000E+03 -0.12698E-01
 0.10165000E+03  0.43309E-02
 0.10170000E+03  0.18658E-01
 0.10175000E+03  0.30511E-01
 0.10180000E+03  0.39117E-01
 0.10185000E+03  0.43895E-01
 0.10190000E+03  0.44812E-01
 0.10195000E+03  0.42024E-01
 0.10200000E+03  0.36248E-01
 0.10205000E+03  0.28128E-01
 0.10210000E+03  0.19427E-01
 0.10215000E+03  0.11805E-01
 0.10220000E+03  0.59687E-02
 0.10225000E+03  0.16549E-02
 0.10230000E+03 -0.72658E-03
 0.10235000E+03 -0.40930E-03
 0.10240000E+03  0.30785E-02
 0.10245000E+03  0.89173E-02
 0.10250000E+03  0.16047E-01
 0.10255000E+03  0.22478E-01
 0.10260000E+03  0.26115E-01
 0.10265000E+03  0.25577E-01
 0.10270000E+03  0.21609E-01
 0.10275000E+03  0.17746E-01
 0.10280000E+03  0.16112E-01
 0.10285000E+03  0.15430E-01
 0.10290000E+03  0.13242E-01
 0.10295000E+03  0.10867E-01
 0.10300000E+03  0.11266E-01
 0.10305000E+03  0.15577E-01
 0.10310000E+03  0.22966E-01
 0.10315000E+03  0.30728E-01
 0.10320000E+03  0.36240E-01
 0.10325000E+03  0.38513E-01
 0.10330000E+03  0.37157E-01
 0.10335000E+03  0.33566E-01
 0.10340000E+03  0.29540E-01
 0.10345000E+03  0.24300E-01
 0.10350000E+03  0.16271E-01
 0.10355000E+03  0.64589E-02
 0.10360000E+03 -0.34267E-02
 0.10365000E+03 -0.11799E-01
 0.10370000E+03 -0.16586E-01
 0.10375000E+03 -0.19368E-01
 0.10380000E+03 -0.22818E-01
 0.10385000E+03 -0.25564E-01
 0.10390000E+03 -0.25327E-01
 0.10395000E+03 -0.20876E-01
 0.10400000E+03 -0.13597E-01
 0.10405000E+03 -0.59749E-02
 0.10410000E+03  0.86398E-03
 0.10415000E+03  0.66035E-02
 0.10420000E+03  0.11673E-01
 0.10425000E+03  0.15848E-01
 0.10430000E+03  0.17871E-01
 0.10435000E+03  0.17712E-01
 0.10440000E+03  0.16527E-01
 0.10445000E+03  0.15678E-01
 0.10450000E+03  0.15453E-01
 0.10455000E+03  0.14318E-01
 0.10460000E+03  0.12259E-01
 0.10465000E+03  0.10606E-01
 0.10470000E+03  0.87197E-02
 0.10475000E+03  0.54888E-02
 0.10480000E+03  0.13719E-02
 0.10485000E+03 -0.31278E-02
 0.10490000E+03 -0.77066E-02
 0.10495000E+03 -0.11776E-01
 0.10500000E+03 -0.14550E-01
 0.10505000E+03 -0.15753E-01
 0.10510000E+03 -0.15322E-01
 0.10515000E+03 -0.12868E-01
 0.10520000E+03 -0.76455E-02
 0.10525000E+03 -0.28367E-03
 0.10530000E+03  0.71879E-02
 0.10535000E+03  0.12707E-01
 0.10540000E+03  0.15257E-01
 0.10545000E+03  0.15188E-01
 0.10550000E+03  0.14091E-01
 0.10555000E+03  0.12424E-01
 0.10560000E+03  0.11809E-01
 0.10565000E+03  0.12199E-01
 0.10570000E+03  0.12002E-01
 0.10575000E+03  0.11164E-01
 0.10580000E+03  0.89181E-02
 0.10585000E+03  0.55180E-02
 0.10590000E+03  0.20948E-02
 0.10595000E+03 -0.62129E-03
 0.10600000E+03 -0.28774E-02
 0.10605000E+03 -0.52403E-02
 0.10610000E+03 -0.76016E-02
 0.10615000E+03 -0.93606E-02
 0.10620000E+03 -0.11201E-01
 0.10625000E+03 -0.13032E-01
 0.10630000E+03 -0.14017E-01
 0.10635000E+03 -0.14228E-01
 0.10640000E+03 -0.15031E-01
 0.10645000E+03 -0.16099E-01
 0.10650000E+03 -0.15675E-01
 0.10655000E+03 -0.13410E-01
 0.10660000E+03 -0.10407E-01
 0.10665000E+03 -0.71960E-02
 0.10670000E+03 -0.40654E-02
 0.10675000E+03 -0.28259E-02
 0.10680000E+03 -0.46954E-02
 0.10685000E+03 -0.83925E-02
 0.10690000E+03 -0.11597E-01
 0.10695000E+03 -0.12702E-01
 0.10700000E+03 -0.13172E-01
 0.10705000E+03 -0.14151E-01
 0.10710000E+03 -0.13690E-01
 0.10715000E+03 -0.10133E-01
 0.10720000E+03 -0.32825E-02
 0.10725000E+03  0.42123E-02
 0.10730000E+03  0.11102E-01
 0.10735000E+03  0.16603E-01
 0.10740000E+03  0.19387E-01
 0.10745000E+03  0.18287E-01
 0.10750000E+03  0.12929E-01
 0.10755000E+03  0.51222E-02
 0.10760000E+03 -0.26896E-02
 0.10765000E+03 -0.10088E-01
 0.10770000E+03 -0.17556E-01
 0.10775000E+03 -0.23394E-01
 0.10780000E+03 -0.27185E-01
 0.10785000E+03 -0.29988E-01
 0.10790000E+03 -0.32630E-01
 0.10795000E+03 -0.33370E-01
 0.10800000E+03 -0.31295E-01
 0.10805000E+03 -0.26888E-01
 0.10810000E+03 -0.21348E-01
 0.10815000E+03 -0.16001E-01
 0.10820000E+03 -0.11021E-01
 0.10825000E+03 -0.73183E-02
 0.10830000E+03 -0.41484E-02
 0.10835000E+03 -0.11975E-02
 0.10840000E+03  0.16931E-02
 0.10845000E+03  0.49568E-02
 0.10850000E+03  0.67894E-02
 0.10855000E+03  0.56922E-02
 0.10860000E+03  0.21737E-02
 0.10865000E+03 -0.23286E-02
 0.10870000E+03 -0.64135E-02
 0.10875000E+03 -0.90557E-02
 0.10880000E+03 -0.99207E-02
 0.10885000E+03 -0.10017E-01
 0.10890000E+03 -0.10064E-01
 0.10895000E+03 -0.10451E-01
 0.10900000E+03 -0.10787E-01
 0.10905000E+03 -0.10132E-01
 0.10910000E+03 -0.87066E-02
 0.10915000E+03 -0.70586E-02
 0.10920000E+03 -0.44630E-02
 0.10925000E+03 -0.12524E-02
 0.10930000E+03  0.16602E-02
 0.10935000E+03  0.42360E-02
 0.10940000E+03  0.72814E-02
 0.10945000E+03  0.12716E-01
 0.10950000E+03  0.19186E-01
 0.10955000E+03  0.24785E-01
 0.10960000E+03  0.30671E-01
 0.10965000E+03  0.37200E-01
 0.10970000E+03  0.43493E-01
 0.10975000E+03  0.48671E-01
 0.10980000E+03  0.51920E-01
 0.10985000E+03  0.52990E-01
 0.10990000E+03  0.51438E-01
 0.10995000E+03  0.47115E-01
 0.11000000E+03  0.40651E-01
 0.11005000E+03  0.33720E-01
 0.11010000E+03  0.27626E-01
 0.11015000E+03  0.22613E-01
 0.11020000E+03  0.19192E-01
 0.11025000E+03  0.16726E-01
 0.11030000E+03  0.13748E-01
 0.11035000E+03  0.10933E-01
 0.11040000E+03  0.92953E-02
 0.11045000E+03  0.81148E-02
 0.11050000E+03  0.61752E-02
 0.11055000E+03  0.42317E-02
 0.11060000E+03  0.32764E-02
 0.11065000E+03  0.32301E-02
 0.11070000E+03  0.39454E-02
 0.11075000E+03  0.37575E-02
 0.11080000E+03  0.21043E-02
 0.11085000E+03  0.36839E-03
 0.11090000E+03 -0.54218E-03
 0.11095000E+03 -0.13318E-02
 0.11100000E+03 -0.27572E-02
 0.11105000E+03 -0.38689E-02
 0.11110000E+03 -0.41069E-02
 0.11115000E+03 -0.44348E-02
 0.11120000E+03 -0.50345E-02
 0.11125000E+03 -0.53024E-02
 0.11130000E+03 -0.61467E-02
 0.11135000E+03 -0.82960E-02
 0.11140000E+03 -0.11287E-01
 0.11145000E+03 -0.14042E-01
 0.11150000E+03 -0.15763E-01
 0.11155000E+03 -0.16898E-01
 0.11160000E+03 -0.17824E-01
 0.11165000E+03 -0.18243E-01
 0.11170000E+03 -0.17682E-01
 0.11175000E+03 -0.15780E-01
 0.11180000E+03 -0.12404E-01
 0.11185000E+03 -0.86368E-02
 0.11190000E+03 -0.50839E-02
 0.11195000E+03 -0.17868E-02
 0.11200000E+03  0.40359E-03
 0.11205000E+03  0.52549E-03
 0.11210000E+03 -0.19147E-02
 0.11215000E+03 -0.68312E-02
 0.11220000E+03 -0.14594E-01
 0.11225000E+03 -0.24019E-01
 0.11230000E+03 -0.33058E-01
 0.11235000E+03 -0.39471E-01
 0.11240000E+03 -0.41808E-01
 0.11245000E+03 -0.41025E-01
 0.11250000E+03 -0.37999E-01
 0.11255000E+03 -0.33345E-01
 0.11260000E+03 -0.27501E-01
 0.11265000E+03 -0.20940E-01
 0.11270000E+03 -0.13987E-01
 0.11275000E+03 -0.68724E-02
 0.11280000E+03  0.14875E-03
 0.11285000E+03  0.66904E-02
 0.11290000E+03  0.12526E-01
 0.11295000E+03  0.17713E-01
 0.11300000E+03  0.21515E-01
 0.11305000E+03  0.23514E-01
 0.11310000E+03  0.24413E-01
 0.11315000E+03  0.24301E-01
 0.11320000E+03  0.22275E-01
 0.11325000E+03  0.17784E-01
 0.11330000E+03  0.11540E-01
 0.11335000E+03  0.43744E-02
 0.11340000E+03 -0.28831E-02
 0.11345000E+03 -0.92728E-02
 0.11350000E+03 -0.15059E-01
 0.11355000E+03 -0.20112E-01
 0.11360000E+03 -0.24754E-01
 0.11365000E+03 -0.28390E-01
 0.11370000E+03 -0.30117E-01
 0.11375000E+03 -0.30779E-01
 0.11380000E+03 -0.30713E-01
 0.11385000E+03 -0.30329E-01
 0.11390000E+03 -0.29001E-01
 0.11395000E+03 -0.26146E-01
 0.11400000E+03 -0.21498E-01
 0.11405000E+03 -0.15489E-01
 0.11410000E+03 -0.10256E-01
 0.11415000E+03 -0.72291E-02
 0.11420000E+03 -0.61136E-02
 0.11425000E+03 -0.58923E-02
 0.11430000E+03 -0.60690E-02
 0.11435000E+03 -0.66487E-02
 0.11440000E+03 -0.71322E-02
 0.11445000E+03 -0.64429E-02
 0.11450000E+03 -0.38943E-02
 0.11455000E+03  0.69908E-03
 0.11460000E+03  0.64788E-02
 0.11465000E+03  0.11607E-01
 0.11470000E+03  0.15092E-01
 0.11475000E+03  0.16878E-01
 0.11480000E+03  0.16093E-01
 0.11485000E+03  0.12246E-01
 0.11490000E+03  0.61108E-02
 0.11495000E+03 -0.13502E-02
 0.11500000E+03 -0.93287E-02
 0.11505000E+03 -0.16487E-01
 0.11510000E+03 -0.21857E-01
 0.11515000E+03 -0.24571E-01
 0.11520000E+03 -0.24121E-01
 0.11525000E+03 -0.20440E-01
 0.11530000E+03 -0.14019E-01
 0.11535000E+03 -0.62227E-02
 0.11540000E+03  0.26239E-02
 0.11545000E+03  0.12368E-01
 0.11550000E+03  0.22073E-01
 0.11555000E+03  0.30380E-01
 0.11560000E+03  0.36206E-01
 0.11565000E+03  0.39616E-01
 0.11570000E+03  0.41549E-01
 0.11575000E+03  0.42059E-01
 0.11580000E+03  0.40638E-01
 0.11585000E+03  0.36665E-01
 0.11590000E+03  0.30394E-01
 0.11595000E+03  0.23597E-01
 0.11600000E+03  0.17667E-01
 0.11605000E+03  0.13466E-01
 0.11610000E+03  0.11407E-01
 0.11615000E+03  0.11109E-01
 0.11620000E+03  0.11649E-01
 0.11625000E+03  0.12836E-01
 0.11630000E+03  0.13947E-01
 0.11635000E+03  0.14240E-01
 0.11640000E+03  0.13947E-01
 0.11645000E+03  0.12956E-01
 0.11650000E+03  0.11988E-01
 0.11655000E+03  0.11064E-01
 0.11660000E+03  0.96258E-02
 0.11665000E+03  0.76528E-02
 0.11670000E+03  0.60973E-02
 0.11675000E+03  0.57334E-02
 0.11680000E+03  0.68421E-02
 0.11685000E+03  0.89223E-02
 0.11690000E+03  0.11646E-01
 0.11695000E+03  0.15077E-01
 0.11700000E+03  0.18574E-01
 0.11705000E+03  0.22621E-01
 0.11710000E+03  0.26343E-01
 0.11715000E+03  0.28375E-01
 0.11720000E+03  0.28623E-01
 0.11725000E+03  0.27935E-01
 0.11730000E+03  0.26543E-01
 0.11735000E+03  0.24057E-01
 0.11740000E+03  0.20296E-01
 0.11745000E+03  0.16008E-01
 0.11750000E+03  0.12432E-01
 0.11755000E+03  0.94443E-02
 0.11760000E+03  0.57312E-02
 0.11765000E+03  0.63589E-03
 0.11770000E+03 -0.54730E-02
 0.11775000E+03 -0.12542E-01
 0.11780000E+03 -0.19041E-01
 0.11785000E+03 -0.23901E-01
 0.11790000E+03 -0.26761E-01
 0.11795000E+03 -0.27721E-01
 0.11800000E+03 -0.27227E-01
 0.11805000E+03 -0.25832E-01
 0.11810000E+03 -0.24747E-01
 0.11815000E+03 -0.24342E-01
 0.11820000E+03 -0.25488E-01
 0.11825000E+03 -0.28367E-01
 0.11830000E+03 -0.31571E-01
 0.11835000E+03 -0.33724E-01
 0.11840000E+03 -0.34909E-01
 0.11845000E+03 -0.35649E-01
 0.11850000E+03 -0.35839E-01
 0.11855000E+03 -0.35062E-01
 0.11860000E+03 -0.32947E-01
 0.11865000E+03 -0.29818E-01
 0.11870000E+03 -0.26208E-01
 0.11875000E+03 -0.22462E-01
 0.11880000E+03 -0.18727E-01
 0.11885000E+03 -0.14871E-01
 0.11890000E+03 -0.10622E-01
 0.11895000E+03 -0.66199E-02
 0.11900000E+03 -0.30709E-02
 0.11905000E+03  0.78979E-05
 0.11910000E+03  0.23572E-02
 0.11915000E+03  0.36473E-02
 0.11920000E+03  0.44364E-02
 0.11925000E+03  0.50795E-02
 0.11930000E+03  0.60752E-02
 0.11935000E+03  0.76093E-02
 0.11940000E+03  0.91748E-02
 0.11945000E+03  0.98519E-02
 0.11950000E+03  0.10008E-01
 0.11955000E+03  0.96050E-02
 0.11960000E+03  0.87457E-02
 0.11965000E+03  0.79314E-02
 0.11970000E+03  0.57062E-02
 0.11975000E+03  0.36050E-02
 0.11980000E+03  0.17286E-02
 0.11985000E+03  0.29050E-02
 0.11990000E+03  0.38964E-02
 0.11995000E+03  0.86231E-02
 0.12000000E+03  0.63091E-02
