 0.00000000E+00 -0.55705E-04
 0.50000001E-01 -0.21280E-03
 0.10000000E+00 -0.24139E-03
 0.15000001E+00 -0.30354E-03
 0.20000000E+00 -0.47374E-03
 0.25000000E+00 -0.59547E-03
 0.30000001E+00 -0.68695E-03
 0.34999999E+00 -0.75272E-03
 0.40000001E+00 -0.80533E-03
 0.45000002E+00 -0.91988E-03
 0.50000000E+00 -0.94941E-03
 0.55000001E+00 -0.90249E-03
 0.60000002E+00 -0.88653E-03
 0.65000004E+00 -0.83798E-03
 0.69999999E+00 -0.77558E-03
 0.75000000E+00 -0.65031E-03
 0.80000001E+00 -0.61947E-03
 0.85000002E+00 -0.61346E-03
 0.90000004E+00 -0.58986E-03
 0.94999999E+00 -0.55332E-03
 0.10000000E+01 -0.50286E-03
 0.10500001E+01 -0.43884E-03
 0.11000000E+01 -0.28504E-03
 0.11500000E+01 -0.19648E-03
 0.12000000E+01 -0.11049E-03
 0.12500000E+01 -0.58337E-04
 0.13000001E+01 -0.62543E-04
 0.13500000E+01  0.34043E-04
 0.14000000E+01  0.84286E-04
 0.14500000E+01  0.10259E-03
 0.15000000E+01  0.10594E-03
 0.15500001E+01  0.14923E-03
 0.16000000E+01  0.19364E-03
 0.16500000E+01  0.13833E-03
 0.17000000E+01  0.20775E-03
 0.17500000E+01  0.28575E-03
 0.18000001E+01  0.36916E-03
 0.18500000E+01  0.43896E-03
 0.19000000E+01  0.41658E-03
 0.19500000E+01  0.45511E-03
 0.20000000E+01  0.52232E-03
 0.20500000E+01  0.54262E-03
 0.21000001E+01  0.56341E-03
 0.21500001E+01  0.56525E-03
 0.22000000E+01  0.57694E-03
 0.22500000E+01  0.56566E-03
 0.23000000E+01  0.56513E-03
 0.23500001E+01  0.59602E-03
 0.24000001E+01  0.62676E-03
 0.24500000E+01  0.58286E-03
 0.25000000E+01  0.60905E-03
 0.25500000E+01  0.70975E-03
 0.26000001E+01  0.68747E-03
 0.26500001E+01  0.60773E-03
 0.27000000E+01  0.55369E-03
 0.27500000E+01  0.53665E-03
 0.28000000E+01  0.49500E-03
 0.28500001E+01  0.40106E-03
 0.29000001E+01  0.32939E-03
 0.29500000E+01  0.29919E-03
 0.30000000E+01  0.22932E-03
 0.30500000E+01  0.12862E-03
 0.31000001E+01  0.41630E-04
 0.31500001E+01  0.38485E-04
 0.32000000E+01  0.17889E-04
 0.32500000E+01 -0.46935E-04
 0.33000000E+01 -0.16521E-03
 0.33500001E+01 -0.22215E-03
 0.34000001E+01 -0.26457E-03
 0.34500000E+01 -0.33042E-03
 0.35000000E+01 -0.35357E-03
 0.35500000E+01 -0.38199E-03
 0.36000001E+01 -0.34290E-03
 0.36500001E+01 -0.42260E-03
 0.37000000E+01 -0.48007E-03
 0.37500000E+01 -0.45128E-03
 0.38000000E+01 -0.49826E-03
 0.38500001E+01 -0.49863E-03
 0.39000001E+01 -0.53722E-03
 0.39500000E+01 -0.54470E-03
 0.40000000E+01 -0.51233E-03
 0.40500002E+01 -0.54273E-03
 0.40999999E+01 -0.59384E-03
 0.41500001E+01 -0.54192E-03
 0.42000003E+01 -0.40994E-03
 0.42500000E+01 -0.36064E-03
 0.43000002E+01 -0.23386E-03
 0.43499999E+01 -0.13707E-03
 0.44000001E+01 -0.43952E-04
 0.44500003E+01  0.58055E-04
 0.45000000E+01  0.12249E-03
 0.45500002E+01  0.24850E-03
 0.45999999E+01  0.36515E-03
 0.46500001E+01  0.46467E-03
 0.47000003E+01  0.51432E-03
 0.47500000E+01  0.57109E-03
 0.48000002E+01  0.69950E-03
 0.48499999E+01  0.75288E-03
 0.49000001E+01  0.78216E-03
 0.49500003E+01  0.85436E-03
 0.50000000E+01  0.86644E-03
 0.50500002E+01  0.86608E-03
 0.50999999E+01  0.75814E-03
 0.51500001E+01  0.64941E-03
 0.52000003E+01  0.63139E-03
 0.52500000E+01  0.50446E-03
 0.53000002E+01  0.39652E-03
 0.53499999E+01  0.30450E-03
 0.54000001E+01  0.23533E-03
 0.54500003E+01  0.18481E-03
 0.55000000E+01  0.10103E-03
 0.55500002E+01  0.61608E-04
 0.55999999E+01  0.27002E-04
 0.56500001E+01  0.17622E-04
 0.57000003E+01 -0.38577E-04
 0.57500000E+01 -0.63024E-04
 0.58000002E+01 -0.11345E-03
 0.58499999E+01 -0.20451E-03
 0.59000001E+01 -0.24837E-03
 0.59500003E+01 -0.31306E-03
 0.60000000E+01 -0.29328E-03
 0.60500002E+01 -0.31704E-03
 0.60999999E+01 -0.39786E-03
 0.61500001E+01 -0.46178E-03
 0.62000003E+01 -0.47502E-03
 0.62500000E+01 -0.52751E-03
 0.63000002E+01 -0.63430E-03
 0.63499999E+01 -0.66139E-03
 0.64000001E+01 -0.74476E-03
 0.64500003E+01 -0.82948E-03
 0.65000000E+01 -0.94218E-03
 0.65500002E+01 -0.10655E-02
 0.65999999E+01 -0.11618E-02
 0.66500001E+01 -0.12271E-02
 0.67000003E+01 -0.13341E-02
 0.67500000E+01 -0.14695E-02
 0.68000002E+01 -0.14789E-02
 0.68499999E+01 -0.14551E-02
 0.69000001E+01 -0.14468E-02
 0.69500003E+01 -0.14360E-02
 0.70000000E+01 -0.13755E-02
 0.70500002E+01 -0.12770E-02
 0.70999999E+01 -0.11647E-02
 0.71500001E+01 -0.10831E-02
 0.72000003E+01 -0.96278E-03
 0.72500000E+01 -0.78511E-03
 0.73000002E+01 -0.60487E-03
 0.73499999E+01 -0.42514E-03
 0.74000001E+01 -0.13605E-03
 0.74500003E+01  0.79031E-04
 0.75000000E+01  0.23113E-03
 0.75500002E+01  0.45424E-03
 0.75999999E+01  0.59404E-03
 0.76500001E+01  0.76966E-03
 0.77000003E+01  0.89776E-03
 0.77500000E+01  0.10014E-02
 0.78000002E+01  0.11504E-02
 0.78499999E+01  0.13473E-02
 0.79000001E+01  0.14291E-02
 0.79500003E+01  0.14936E-02
 0.80000000E+01  0.16677E-02
 0.80500002E+01  0.18135E-02
 0.81000004E+01  0.19926E-02
 0.81500006E+01  0.20688E-02
 0.81999998E+01  0.21431E-02
 0.82500000E+01  0.22159E-02
 0.83000002E+01  0.21666E-02
 0.83500004E+01  0.20792E-02
 0.84000006E+01  0.20089E-02
 0.84499998E+01  0.19732E-02
 0.85000000E+01  0.18700E-02
 0.85500002E+01  0.17319E-02
 0.86000004E+01  0.15693E-02
 0.86500006E+01  0.13961E-02
 0.86999998E+01  0.12823E-02
 0.87500000E+01  0.11597E-02
 0.88000002E+01  0.10440E-02
 0.88500004E+01  0.97558E-03
 0.89000006E+01  0.83056E-03
 0.89499998E+01  0.69694E-03
 0.90000000E+01  0.62731E-03
 0.90500002E+01  0.56135E-03
 0.91000004E+01  0.46267E-03
 0.91500006E+01  0.36125E-03
 0.91999998E+01  0.32278E-03
 0.92500000E+01  0.23163E-03
 0.93000002E+01  0.16307E-03
 0.93500004E+01  0.11630E-05
 0.94000006E+01 -0.13816E-03
 0.94499998E+01 -0.93042E-04
 0.95000000E+01 -0.18425E-03
 0.95500002E+01 -0.30221E-03
 0.96000004E+01 -0.39097E-03
 0.96500006E+01 -0.55539E-03
 0.96999998E+01 -0.65472E-03
 0.97500000E+01 -0.76666E-03
 0.98000002E+01 -0.85886E-03
 0.98500004E+01 -0.84453E-03
 0.99000006E+01 -0.86659E-03
 0.99499998E+01 -0.92859E-03
 0.10000000E+02 -0.10258E-02
 0.10050000E+02 -0.10847E-02
 0.10100000E+02 -0.11549E-02
 0.10150001E+02 -0.12108E-02
 0.10200000E+02 -0.12471E-02
 0.10250000E+02 -0.13265E-02
 0.10300000E+02 -0.13448E-02
 0.10350000E+02 -0.14276E-02
 0.10400001E+02 -0.14624E-02
 0.10450000E+02 -0.13980E-02
 0.10500000E+02 -0.13971E-02
 0.10550000E+02 -0.13955E-02
 0.10600000E+02 -0.13565E-02
 0.10650001E+02 -0.12863E-02
 0.10700000E+02 -0.12529E-02
 0.10750000E+02 -0.13071E-02
 0.10800000E+02 -0.13745E-02
 0.10850000E+02 -0.14059E-02
 0.10900001E+02 -0.13950E-02
 0.10950000E+02 -0.14473E-02
 0.11000000E+02 -0.15132E-02
 0.11050000E+02 -0.15371E-02
 0.11100000E+02 -0.15192E-02
 0.11150001E+02 -0.14643E-02
 0.11200000E+02 -0.14129E-02
 0.11250000E+02 -0.13202E-02
 0.11300000E+02 -0.11058E-02
 0.11350000E+02 -0.96437E-03
 0.11400001E+02 -0.92737E-03
 0.11450000E+02 -0.82267E-03
 0.11500000E+02 -0.68385E-03
 0.11550000E+02 -0.51734E-03
 0.11600000E+02 -0.37857E-03
 0.11650001E+02 -0.18268E-03
 0.11700000E+02  0.66928E-05
 0.11750000E+02  0.17079E-03
 0.11800000E+02  0.39078E-03
 0.11850000E+02  0.62504E-03
 0.11900001E+02  0.88115E-03
 0.11950000E+02  0.11345E-02
 0.12000000E+02  0.14305E-02
 0.12050000E+02  0.16977E-02
 0.12100000E+02  0.18787E-02
 0.12150001E+02  0.20118E-02
 0.12200000E+02  0.20957E-02
 0.12250000E+02  0.22245E-02
 0.12300000E+02  0.24031E-02
 0.12350000E+02  0.25716E-02
 0.12400001E+02  0.26262E-02
 0.12450000E+02  0.27163E-02
 0.12500000E+02  0.27916E-02
 0.12550000E+02  0.27631E-02
 0.12600000E+02  0.27043E-02
 0.12650001E+02  0.26204E-02
 0.12700000E+02  0.25828E-02
 0.12750000E+02  0.24381E-02
 0.12800000E+02  0.22213E-02
 0.12850000E+02  0.20405E-02
 0.12900001E+02  0.18424E-02
 0.12950000E+02  0.16190E-02
 0.13000000E+02  0.14568E-02
 0.13050000E+02  0.13513E-02
 0.13100000E+02  0.12574E-02
 0.13150001E+02  0.11806E-02
 0.13200000E+02  0.10263E-02
 0.13250000E+02  0.84213E-03
 0.13300000E+02  0.70226E-03
 0.13350000E+02  0.54280E-03
 0.13400001E+02  0.37897E-03
 0.13450000E+02  0.16502E-03
 0.13500000E+02 -0.55180E-04
 0.13550000E+02 -0.27972E-03
 0.13600000E+02 -0.53428E-03
 0.13650001E+02 -0.75481E-03
 0.13700000E+02 -0.88349E-03
 0.13750000E+02 -0.98957E-03
 0.13800000E+02 -0.11186E-02
 0.13850000E+02 -0.11964E-02
 0.13900001E+02 -0.12520E-02
 0.13950000E+02 -0.13065E-02
 0.14000000E+02 -0.14184E-02
 0.14050000E+02 -0.15104E-02
 0.14100000E+02 -0.15398E-02
 0.14150001E+02 -0.15930E-02
 0.14200000E+02 -0.17164E-02
 0.14250000E+02 -0.18105E-02
 0.14300000E+02 -0.18535E-02
 0.14350000E+02 -0.18580E-02
 0.14400001E+02 -0.18777E-02
 0.14450000E+02 -0.19105E-02
 0.14500000E+02 -0.18628E-02
 0.14550000E+02 -0.18409E-02
 0.14600000E+02 -0.18420E-02
 0.14650001E+02 -0.18940E-02
 0.14700000E+02 -0.18590E-02
 0.14750000E+02 -0.17318E-02
 0.14800000E+02 -0.16976E-02
 0.14850000E+02 -0.16395E-02
 0.14900001E+02 -0.15079E-02
 0.14950000E+02 -0.14103E-02
 0.15000000E+02 -0.12920E-02
 0.15050000E+02 -0.12293E-02
 0.15100000E+02 -0.11281E-02
 0.15150001E+02 -0.94407E-03
 0.15200000E+02 -0.87956E-03
 0.15250000E+02 -0.83040E-03
 0.15300000E+02 -0.78106E-03
 0.15350000E+02 -0.64850E-03
 0.15400001E+02 -0.60736E-03
 0.15450000E+02 -0.55809E-03
 0.15500000E+02 -0.37992E-03
 0.15550000E+02 -0.19427E-03
 0.15600000E+02  0.24965E-05
 0.15650001E+02  0.14583E-03
 0.15700000E+02  0.33358E-03
 0.15750000E+02  0.55369E-03
 0.15800000E+02  0.70583E-03
 0.15850000E+02  0.78964E-03
 0.15900001E+02  0.96755E-03
 0.15950000E+02  0.11475E-02
 0.16000000E+02  0.12630E-02
 0.16050001E+02  0.13643E-02
 0.16100000E+02  0.14878E-02
 0.16150000E+02  0.16123E-02
 0.16200001E+02  0.17498E-02
 0.16250000E+02  0.18755E-02
 0.16300001E+02  0.19151E-02
 0.16350000E+02  0.20058E-02
 0.16400000E+02  0.20571E-02
 0.16450001E+02  0.20959E-02
 0.16500000E+02  0.21463E-02
 0.16550001E+02  0.21422E-02
 0.16600000E+02  0.21757E-02
 0.16650000E+02  0.21275E-02
 0.16700001E+02  0.20583E-02
 0.16750000E+02  0.20161E-02
 0.16800001E+02  0.19123E-02
 0.16850000E+02  0.17801E-02
 0.16900000E+02  0.16737E-02
 0.16950001E+02  0.15646E-02
 0.17000000E+02  0.13670E-02
 0.17050001E+02  0.11070E-02
 0.17100000E+02  0.90467E-03
 0.17150000E+02  0.69240E-03
 0.17200001E+02  0.46786E-03
 0.17250000E+02  0.26351E-03
 0.17300001E+02  0.10260E-03
 0.17350000E+02  0.10364E-04
 0.17400000E+02 -0.10665E-03
 0.17450001E+02 -0.20586E-03
 0.17500000E+02 -0.36605E-03
 0.17550001E+02 -0.50415E-03
 0.17600000E+02 -0.62366E-03
 0.17650000E+02 -0.77260E-03
 0.17700001E+02 -0.91959E-03
 0.17750000E+02 -0.10724E-02
 0.17800001E+02 -0.11970E-02
 0.17850000E+02 -0.13141E-02
 0.17900000E+02 -0.13807E-02
 0.17950001E+02 -0.14316E-02
 0.18000000E+02 -0.14861E-02
 0.18050001E+02 -0.15224E-02
 0.18100000E+02 -0.16224E-02
 0.18150000E+02 -0.17172E-02
 0.18200001E+02 -0.18215E-02
 0.18250000E+02 -0.19772E-02
 0.18300001E+02 -0.19627E-02
 0.18350000E+02 -0.20222E-02
 0.18400000E+02 -0.17327E-02
 0.18450001E+02 -0.10586E-02
 0.18500000E+02 -0.23905E-03
 0.18550001E+02 -0.57857E-03
 0.18600000E+02 -0.65269E-03
 0.18650000E+02 -0.63358E-03
 0.18700001E+02  0.11489E-02
 0.18750000E+02  0.33350E-02
 0.18800001E+02  0.69791E-02
 0.18850000E+02  0.10916E-01
 0.18900000E+02  0.17865E-01
 0.18950001E+02  0.26265E-01
 0.19000000E+02  0.38100E-01
 0.19050001E+02  0.52575E-01
 0.19100000E+02  0.67097E-01
 0.19150000E+02  0.85936E-01
 0.19200001E+02  0.90824E-01
 0.19250000E+02  0.84696E-01
 0.19300001E+02  0.55541E-01
 0.19350000E+02  0.14430E-01
 0.19400000E+02 -0.29371E-01
 0.19450001E+02 -0.10139E+00
 0.19500000E+02 -0.15579E+00
 0.19550001E+02 -0.60304E-01
 0.19600000E+02  0.79647E-01
 0.19650000E+02  0.77344E-01
 0.19700001E+02 -0.14170E-01
 0.19750000E+02 -0.79841E-01
 0.19800001E+02 -0.31734E-01
 0.19850000E+02  0.91499E-01
 0.19900000E+02  0.14156E+00
 0.19950001E+02  0.15072E+00
 0.20000000E+02  0.14957E+00
 0.20050001E+02  0.10756E+00
 0.20100000E+02  0.63087E-01
 0.20150000E+02 -0.16507E-01
 0.20200001E+02  0.91153E-02
 0.20250000E+02  0.73533E-02
 0.20300001E+02 -0.10526E+00
 0.20350000E+02 -0.20860E+00
 0.20400000E+02 -0.24306E+00
 0.20450001E+02 -0.41025E-01
 0.20500000E+02  0.11871E+00
 0.20550001E+02 -0.88861E-01
 0.20600000E+02 -0.24921E+00
 0.20650000E+02 -0.15122E+00
 0.20700001E+02  0.44392E-01
 0.20750000E+02  0.10334E+00
 0.20800001E+02  0.18037E-01
 0.20850000E+02  0.25535E-01
 0.20900000E+02  0.33718E-02
 0.20950001E+02  0.52340E-01
 0.21000000E+02 -0.36930E-01
 0.21050001E+02 -0.11219E+00
 0.21100000E+02  0.14545E-01
 0.21150000E+02  0.40116E-01
 0.21200001E+02  0.76972E-02
 0.21250000E+02  0.50330E-01
 0.21300001E+02  0.85319E-01
 0.21350000E+02  0.32018E-01
 0.21400000E+02  0.41708E-01
 0.21450001E+02 -0.16746E-02
 0.21500000E+02 -0.11373E-01
 0.21550001E+02  0.78558E-01
 0.21600000E+02  0.14482E+00
 0.21650000E+02  0.12078E+00
 0.21700001E+02  0.41587E-01
 0.21750000E+02  0.93278E-01
 0.21800001E+02  0.60371E-01
 0.21850000E+02 -0.71786E-01
 0.21900000E+02 -0.13394E+00
 0.21950001E+02 -0.22303E+00
 0.22000000E+02 -0.18052E+00
 0.22050001E+02 -0.13817E+00
 0.22100000E+02 -0.12182E+00
 0.22150000E+02 -0.13101E+00
 0.22200001E+02 -0.16174E+00
 0.22250000E+02 -0.14178E-02
 0.22300001E+02  0.41334E-01
 0.22350000E+02 -0.65565E-01
 0.22400000E+02 -0.57249E-01
 0.22450001E+02  0.85303E-01
 0.22500000E+02  0.90714E-01
 0.22550001E+02  0.44876E-01
 0.22600000E+02  0.48508E-01
 0.22650000E+02 -0.25905E-01
 0.22700001E+02 -0.60621E-01
 0.22750000E+02 -0.22868E-01
 0.22800001E+02  0.52514E-02
 0.22850000E+02 -0.22933E-01
 0.22900000E+02 -0.57151E-02
 0.22950001E+02  0.37849E-01
 0.23000000E+02  0.11533E+00
 0.23050001E+02  0.89474E-01
 0.23100000E+02 -0.60624E-01
 0.23150000E+02 -0.12368E+00
 0.23200001E+02 -0.91713E-01
 0.23250000E+02 -0.45560E-01
 0.23300001E+02 -0.89670E-02
 0.23350000E+02  0.16650E-01
 0.23400000E+02  0.28751E-02
 0.23450001E+02  0.16306E-02
 0.23500000E+02 -0.20411E-01
 0.23550001E+02 -0.38186E-01
 0.23600000E+02  0.88131E-02
 0.23650000E+02  0.79437E-01
 0.23700001E+02  0.64843E-01
 0.23750000E+02  0.17087E-01
 0.23800001E+02  0.52013E-01
 0.23850000E+02  0.85948E-01
 0.23900000E+02  0.75284E-01
 0.23950001E+02 -0.83762E-02
 0.24000000E+02 -0.91609E-01
 0.24050001E+02 -0.70975E-01
 0.24100000E+02 -0.21176E-01
 0.24150000E+02 -0.45132E-01
 0.24200001E+02 -0.55922E-01
 0.24250000E+02 -0.29705E-01
 0.24300001E+02 -0.88289E-01
 0.24350000E+02 -0.13801E+00
 0.24400000E+02 -0.46780E-01
 0.24450001E+02 -0.30597E-02
 0.24500000E+02 -0.29691E-01
 0.24550001E+02  0.27490E-01
 0.24600000E+02  0.11279E+00
 0.24650000E+02  0.17122E+00
 0.24700001E+02  0.19292E+00
 0.24750000E+02  0.22947E+00
 0.24800001E+02  0.17608E+00
 0.24850000E+02  0.10287E+00
 0.24900000E+02  0.65853E-01
 0.24950001E+02  0.73271E-01
 0.25000000E+02  0.99491E-01
 0.25050001E+02  0.32546E-01
 0.25100000E+02  0.32942E-01
 0.25150000E+02 -0.10313E-01
 0.25200001E+02 -0.66251E-01
 0.25250000E+02 -0.15363E+00
 0.25300001E+02 -0.14411E+00
 0.25350000E+02  0.41977E-01
 0.25400000E+02  0.40427E-01
 0.25450001E+02  0.67363E-02
 0.25500000E+02  0.46547E-01
 0.25550001E+02  0.82403E-01
 0.25600000E+02  0.97966E-02
 0.25650000E+02  0.42729E-02
 0.25700001E+02  0.50226E-01
 0.25750000E+02 -0.81202E-01
 0.25800001E+02 -0.11201E+00
 0.25850000E+02 -0.90558E-01
 0.25900000E+02 -0.78744E-01
 0.25950001E+02  0.25964E-01
 0.26000000E+02  0.48459E-01
 0.26050001E+02  0.53765E-02
 0.26100000E+02  0.13321E-01
 0.26150000E+02 -0.25224E-01
 0.26200001E+02 -0.81029E-01
 0.26250000E+02 -0.85244E-01
 0.26300001E+02 -0.30805E-01
 0.26350000E+02  0.24910E-01
 0.26400000E+02 -0.77094E-01
 0.26450001E+02 -0.97761E-01
 0.26500000E+02 -0.87467E-01
 0.26550001E+02 -0.72157E-01
 0.26600000E+02  0.51346E-01
 0.26650000E+02  0.67307E-01
 0.26700001E+02  0.56127E-01
 0.26750000E+02 -0.11301E-01
 0.26800001E+02 -0.86515E-01
 0.26850000E+02 -0.10886E+00
 0.26900000E+02 -0.10033E+00
 0.26950001E+02 -0.11856E+00
 0.27000000E+02 -0.14651E+00
 0.27050001E+02 -0.93434E-01
 0.27100000E+02 -0.49395E-01
 0.27150000E+02 -0.33964E-01
 0.27200001E+02  0.65778E-01
 0.27250000E+02  0.11730E+00
 0.27300001E+02  0.85413E-01
 0.27350000E+02  0.61720E-01
 0.27400000E+02 -0.29220E-02
 0.27450001E+02 -0.90028E-01
 0.27500000E+02 -0.67460E-01
 0.27550001E+02 -0.13836E-01
 0.27600000E+02 -0.93973E-01
 0.27650000E+02 -0.84804E-01
 0.27700001E+02 -0.26336E-01
 0.27750000E+02 -0.49130E-01
 0.27800001E+02 -0.46648E-01
 0.27850000E+02 -0.71043E-01
 0.27900000E+02 -0.10213E+00
 0.27950001E+02 -0.68062E-01
 0.28000000E+02 -0.45181E-01
 0.28050001E+02  0.24392E-01
 0.28100000E+02 -0.70780E-02
 0.28150000E+02 -0.69027E-01
 0.28200001E+02 -0.64229E-01
 0.28250000E+02 -0.50152E-01
 0.28300001E+02 -0.22068E-01
 0.28350000E+02 -0.25033E-01
 0.28400000E+02  0.31306E-01
 0.28450001E+02  0.55397E-01
 0.28500000E+02  0.37301E-01
 0.28550001E+02  0.18097E-01
 0.28600000E+02  0.32021E-01
 0.28650000E+02  0.97524E-01
 0.28700001E+02  0.54606E-01
 0.28750000E+02  0.18718E-01
 0.28800001E+02  0.31013E-01
 0.28850000E+02 -0.11960E+00
 0.28900000E+02 -0.19287E+00
 0.28950001E+02 -0.15048E+00
 0.29000000E+02 -0.91192E-01
 0.29050001E+02  0.82551E-01
 0.29100000E+02  0.12107E+00
 0.29150000E+02  0.92660E-01
 0.29200001E+02  0.10966E+00
 0.29250000E+02  0.10643E+00
 0.29300001E+02  0.12559E+00
 0.29350000E+02  0.48168E-01
 0.29400000E+02 -0.22891E-01
 0.29450001E+02 -0.57575E-01
 0.29500000E+02 -0.71476E-01
 0.29550001E+02  0.33597E-01
 0.29600000E+02  0.10020E+00
 0.29650000E+02  0.65156E-01
 0.29700001E+02 -0.28345E-02
 0.29750000E+02  0.35290E-01
 0.29800001E+02  0.12737E-01
 0.29850000E+02 -0.69298E-01
 0.29900000E+02 -0.28289E-02
 0.29950001E+02 -0.18685E-01
 0.30000000E+02 -0.27566E-01
 0.30050001E+02  0.17985E-01
 0.30100000E+02  0.29771E-01
 0.30150000E+02  0.42902E-01
 0.30200001E+02  0.44037E-01
 0.30250000E+02  0.45472E-01
 0.30300001E+02  0.69833E-01
 0.30350000E+02  0.17152E+00
 0.30400000E+02  0.19911E+00
 0.30450001E+02  0.99052E-01
 0.30500000E+02  0.13165E+00
 0.30550001E+02  0.12309E+00
 0.30600000E+02 -0.88647E-01
 0.30650000E+02 -0.17561E+00
 0.30700001E+02 -0.65752E-01
 0.30750000E+02 -0.19719E-02
 0.30800001E+02 -0.48407E-01
 0.30850000E+02 -0.83180E-01
 0.30900000E+02 -0.78760E-01
 0.30950001E+02 -0.76750E-01
 0.31000000E+02 -0.11013E+00
 0.31050001E+02 -0.94627E-01
 0.31100000E+02 -0.58344E-01
 0.31150000E+02 -0.55109E-01
 0.31200001E+02 -0.34632E-01
 0.31250000E+02  0.10349E-01
 0.31300001E+02  0.24751E-01
 0.31350000E+02  0.20122E-01
 0.31400000E+02  0.41299E-01
 0.31450001E+02 -0.20986E-01
 0.31500000E+02 -0.46895E-01
 0.31550001E+02 -0.56413E-01
 0.31600000E+02 -0.16471E+00
 0.31650000E+02 -0.19694E+00
 0.31700001E+02 -0.15855E+00
 0.31750000E+02 -0.15613E+00
 0.31800001E+02 -0.10977E+00
 0.31850000E+02 -0.10385E-02
 0.31900000E+02 -0.19464E-02
 0.31950001E+02 -0.16100E+00
 0.32000000E+02 -0.19098E+00
 0.32049999E+02 -0.81077E-01
 0.32100002E+02  0.13858E-01
 0.32150002E+02  0.98559E-02
 0.32200001E+02 -0.45259E-01
 0.32250000E+02 -0.19498E-01
 0.32299999E+02 -0.37089E-01
 0.32350002E+02 -0.10109E+00
 0.32400002E+02 -0.18360E+00
 0.32450001E+02 -0.10684E+00
 0.32500000E+02  0.52070E-01
 0.32549999E+02  0.86547E-01
 0.32600002E+02  0.40695E-01
 0.32650002E+02  0.13637E-01
 0.32700001E+02  0.31330E-01
 0.32750000E+02  0.55090E-01
 0.32799999E+02  0.18642E-01
 0.32850002E+02  0.65461E-01
 0.32900002E+02  0.21333E+00
 0.32950001E+02  0.21238E+00
 0.33000000E+02  0.27047E+00
 0.33049999E+02  0.41895E+00
 0.33100002E+02  0.58700E+00
 0.33150002E+02  0.65292E+00
 0.33200001E+02  0.46452E+00
 0.33250000E+02  0.21664E+00
 0.33299999E+02 -0.72891E-01
 0.33350002E+02 -0.38727E+00
 0.33400002E+02 -0.53909E+00
 0.33450001E+02 -0.51065E+00
 0.33500000E+02 -0.23132E+00
 0.33549999E+02  0.15955E+00
 0.33600002E+02  0.28903E+00
 0.33650002E+02  0.18667E+00
 0.33700001E+02  0.73444E-01
 0.33750000E+02  0.11348E+00
 0.33799999E+02  0.26907E+00
 0.33850002E+02  0.39875E+00
 0.33900002E+02  0.35951E+00
 0.33950001E+02  0.23056E+00
 0.34000000E+02  0.18053E+00
 0.34049999E+02  0.86547E-01
 0.34100002E+02 -0.18673E+00
 0.34150002E+02 -0.51821E+00
 0.34200001E+02 -0.59228E+00
 0.34250000E+02 -0.44251E+00
 0.34299999E+02 -0.30974E+00
 0.34350002E+02 -0.25805E+00
 0.34400002E+02 -0.15156E+00
 0.34450001E+02  0.13736E+00
 0.34500000E+02  0.40577E+00
 0.34549999E+02  0.36368E+00
 0.34600002E+02  0.23786E+00
 0.34650002E+02  0.16743E+00
 0.34700001E+02 -0.68802E-01
 0.34750000E+02 -0.16158E+00
 0.34799999E+02 -0.24631E-02
 0.34850002E+02  0.10733E+00
 0.34900002E+02  0.41160E-01
 0.34950001E+02 -0.45186E-01
 0.35000000E+02 -0.20201E+00
 0.35049999E+02 -0.38953E+00
 0.35100002E+02 -0.46076E+00
 0.35150002E+02 -0.45665E+00
 0.35200001E+02 -0.28963E+00
 0.35250000E+02 -0.13289E+00
 0.35299999E+02 -0.16546E+00
 0.35350002E+02 -0.45353E+00
 0.35400002E+02 -0.62117E+00
 0.35450001E+02 -0.50768E+00
 0.35500000E+02 -0.13304E+00
 0.35549999E+02  0.34472E+00
 0.35600002E+02  0.48000E+00
 0.35650002E+02  0.32770E+00
 0.35700001E+02  0.77114E-01
 0.35750000E+02 -0.92698E-03
 0.35799999E+02  0.19254E+00
 0.35850002E+02  0.35782E+00
 0.35900002E+02  0.29753E+00
 0.35950001E+02  0.36649E+00
 0.36000000E+02  0.50018E+00
 0.36049999E+02  0.60773E+00
 0.36100002E+02  0.79759E+00
 0.36150002E+02  0.90512E+00
 0.36200001E+02  0.84317E+00
 0.36250000E+02  0.61740E+00
 0.36299999E+02  0.18108E+00
 0.36350002E+02 -0.26201E+00
 0.36400002E+02 -0.42272E+00
 0.36450001E+02 -0.36614E+00
 0.36500000E+02 -0.13286E+00
 0.36549999E+02 -0.24725E+00
 0.36600002E+02 -0.49695E+00
 0.36650002E+02 -0.46175E+00
 0.36700001E+02 -0.36255E+00
 0.36750000E+02 -0.93583E-01
 0.36799999E+02  0.17073E+00
 0.36850002E+02  0.44167E+00
 0.36900002E+02  0.51578E+00
 0.36950001E+02  0.24791E+00
 0.37000000E+02  0.34795E-01
 0.37049999E+02 -0.69996E-01
 0.37100002E+02  0.21711E+00
 0.37150002E+02  0.50251E+00
 0.37200001E+02  0.30051E+00
 0.37250000E+02 -0.14044E-02
 0.37299999E+02 -0.13262E+00
 0.37350002E+02 -0.17228E+00
 0.37400002E+02 -0.21078E+00
 0.37450001E+02 -0.24085E+00
 0.37500000E+02 -0.21173E+00
 0.37549999E+02 -0.11348E+00
 0.37600002E+02 -0.41550E-01
 0.37650002E+02  0.13071E-01
 0.37700001E+02  0.13966E+00
 0.37750000E+02  0.33707E+00
 0.37799999E+02  0.47447E+00
 0.37850002E+02  0.65849E+00
 0.37900002E+02  0.65619E+00
 0.37950001E+02  0.40009E+00
 0.38000000E+02  0.14334E+00
 0.38049999E+02  0.20822E-01
 0.38100002E+02  0.83389E-01
 0.38150002E+02  0.11087E+00
 0.38200001E+02 -0.15347E-01
 0.38250000E+02 -0.18416E+00
 0.38299999E+02 -0.18400E+00
 0.38350002E+02 -0.15998E+00
 0.38400002E+02 -0.29914E+00
 0.38450001E+02 -0.33941E+00
 0.38500000E+02 -0.19538E+00
 0.38549999E+02 -0.11374E+00
 0.38600002E+02 -0.71165E-01
 0.38650002E+02  0.16532E+00
 0.38700001E+02  0.53369E+00
 0.38750000E+02  0.72547E+00
 0.38799999E+02  0.65034E+00
 0.38850002E+02  0.48600E+00
 0.38900002E+02  0.35383E+00
 0.38950001E+02  0.11190E+00
 0.39000000E+02 -0.90417E-02
 0.39049999E+02 -0.47831E-01
 0.39100002E+02 -0.34437E+00
 0.39150002E+02 -0.54286E+00
 0.39200001E+02 -0.50159E+00
 0.39250000E+02 -0.36541E+00
 0.39299999E+02 -0.25672E+00
 0.39350002E+02 -0.13757E+00
 0.39400002E+02  0.30743E-02
 0.39450001E+02  0.21245E+00
 0.39500000E+02  0.40761E+00
 0.39549999E+02  0.36214E+00
 0.39600002E+02  0.26993E+00
 0.39650002E+02  0.28378E+00
 0.39700001E+02  0.15473E+00
 0.39750000E+02 -0.23510E+00
 0.39799999E+02 -0.53605E+00
 0.39850002E+02 -0.63076E+00
 0.39900002E+02 -0.45401E+00
 0.39950001E+02 -0.26405E+00
 0.40000000E+02 -0.14132E+00
 0.40049999E+02 -0.18537E-01
 0.40100002E+02  0.15855E-01
 0.40150002E+02 -0.61202E-01
 0.40200001E+02 -0.17001E+00
 0.40250000E+02 -0.18304E+00
 0.40299999E+02 -0.49550E+00
 0.40350002E+02 -0.90147E+00
 0.40400002E+02 -0.10000E+01
 0.40450001E+02 -0.93641E+00
 0.40500000E+02 -0.71817E+00
 0.40549999E+02 -0.44606E+00
 0.40600002E+02 -0.35831E+00
 0.40650002E+02 -0.33748E+00
 0.40700001E+02 -0.28749E+00
 0.40750000E+02 -0.20544E+00
 0.40799999E+02 -0.82469E-02
 0.40850002E+02  0.67210E-01
 0.40900002E+02 -0.36319E-01
 0.40950001E+02 -0.11509E+00
 0.41000000E+02 -0.57572E-01
 0.41049999E+02  0.15971E+00
 0.41100002E+02  0.11433E+00
 0.41150002E+02 -0.11164E+00
 0.41200001E+02 -0.17123E+00
 0.41250000E+02 -0.12073E+00
 0.41299999E+02 -0.98110E-01
 0.41350002E+02 -0.15165E+00
 0.41400002E+02 -0.19514E+00
 0.41450001E+02 -0.19346E+00
 0.41500000E+02 -0.29617E-01
 0.41549999E+02  0.20380E+00
 0.41600002E+02  0.29820E+00
 0.41650002E+02  0.28651E+00
 0.41700001E+02  0.27616E+00
 0.41750000E+02  0.25396E+00
 0.41799999E+02  0.24349E+00
 0.41850002E+02  0.10426E+00
 0.41900002E+02 -0.77475E-01
 0.41950001E+02 -0.15135E+00
 0.42000000E+02 -0.27957E+00
 0.42049999E+02 -0.30507E+00
 0.42100002E+02 -0.29528E+00
 0.42150002E+02 -0.29535E+00
 0.42200001E+02 -0.15391E+00
 0.42250000E+02  0.10860E+00
 0.42299999E+02  0.29668E+00
 0.42350002E+02  0.30249E+00
 0.42400002E+02  0.37234E+00
 0.42450001E+02  0.39833E+00
 0.42500000E+02  0.32946E+00
 0.42549999E+02  0.19468E+00
 0.42600002E+02  0.59896E-01
 0.42650002E+02  0.32232E-01
 0.42700001E+02 -0.14954E-01
 0.42750000E+02  0.61903E-01
 0.42799999E+02  0.14985E+00
 0.42850002E+02  0.87973E-01
 0.42900002E+02 -0.90733E-01
 0.42950001E+02 -0.29144E+00
 0.43000000E+02 -0.29010E+00
 0.43049999E+02 -0.12637E+00
 0.43100002E+02 -0.12851E-01
 0.43150002E+02 -0.74525E-01
 0.43200001E+02 -0.79798E-01
 0.43250000E+02  0.98474E-01
 0.43299999E+02  0.21227E+00
 0.43350002E+02  0.23289E+00
 0.43400002E+02  0.22520E+00
 0.43450001E+02  0.23091E+00
 0.43500000E+02  0.24965E+00
 0.43549999E+02  0.18733E+00
 0.43600002E+02  0.21599E+00
 0.43650002E+02  0.29412E+00
 0.43700001E+02  0.34103E+00
 0.43750000E+02  0.37873E+00
 0.43799999E+02  0.36803E+00
 0.43850002E+02  0.36736E+00
 0.43900002E+02  0.26686E+00
 0.43950001E+02  0.92254E-01
 0.44000000E+02 -0.23041E-01
 0.44049999E+02 -0.91857E-01
 0.44100002E+02 -0.11439E+00
 0.44150002E+02 -0.18647E+00
 0.44200001E+02 -0.21863E+00
 0.44250000E+02 -0.17805E+00
 0.44299999E+02 -0.23707E+00
 0.44350002E+02 -0.27572E+00
 0.44400002E+02 -0.28881E+00
 0.44450001E+02 -0.28967E+00
 0.44500000E+02 -0.26712E+00
 0.44549999E+02 -0.15239E+00
 0.44600002E+02 -0.58116E-01
 0.44650002E+02 -0.96058E-01
 0.44700001E+02 -0.57900E-01
 0.44750000E+02 -0.87587E-01
 0.44799999E+02 -0.22301E+00
 0.44850002E+02 -0.27318E+00
 0.44900002E+02 -0.20417E+00
 0.44950001E+02 -0.13581E+00
 0.45000000E+02 -0.67701E-01
 0.45049999E+02  0.74391E-03
 0.45100002E+02  0.93190E-01
 0.45150002E+02  0.20722E+00
 0.45200001E+02  0.20135E+00
 0.45250000E+02  0.23724E+00
 0.45299999E+02  0.21872E+00
 0.45350002E+02  0.19186E+00
 0.45400002E+02  0.21984E+00
 0.45450001E+02  0.11903E+00
 0.45500000E+02  0.27751E-01
 0.45549999E+02 -0.39977E-01
 0.45600002E+02 -0.65923E-01
 0.45650002E+02 -0.73774E-01
 0.45700001E+02 -0.63480E-01
 0.45750000E+02 -0.38471E-01
 0.45799999E+02 -0.48178E-01
 0.45850002E+02 -0.29198E-01
 0.45900002E+02  0.37865E-01
 0.45950001E+02  0.12165E+00
 0.46000000E+02  0.19070E+00
 0.46049999E+02  0.21203E+00
 0.46100002E+02  0.21267E+00
 0.46150002E+02  0.24512E+00
 0.46200001E+02  0.24925E+00
 0.46250000E+02  0.15968E+00
 0.46299999E+02  0.18099E-01
 0.46350002E+02 -0.47885E-01
 0.46400002E+02 -0.85203E-01
 0.46450001E+02 -0.58550E-01
 0.46500000E+02  0.71664E-01
 0.46549999E+02  0.11318E+00
 0.46600002E+02  0.53681E-01
 0.46650002E+02  0.95505E-01
 0.46700001E+02  0.14202E+00
 0.46750000E+02  0.46073E-01
 0.46799999E+02 -0.31936E-01
 0.46850002E+02 -0.66891E-01
 0.46900002E+02 -0.80469E-01
 0.46950001E+02 -0.63680E-01
 0.47000000E+02 -0.64281E-01
 0.47049999E+02 -0.12430E+00
 0.47100002E+02 -0.14530E+00
 0.47150002E+02 -0.91305E-01
 0.47200001E+02  0.18262E-01
 0.47250000E+02  0.87526E-01
 0.47299999E+02  0.12898E+00
 0.47350002E+02  0.14245E+00
 0.47400002E+02  0.67033E-01
 0.47450001E+02 -0.10375E-01
 0.47500000E+02 -0.80114E-01
 0.47549999E+02 -0.27181E-02
 0.47600002E+02  0.47889E-01
 0.47650002E+02  0.68995E-01
 0.47700001E+02  0.13057E+00
 0.47750000E+02  0.18537E+00
 0.47799999E+02  0.20185E+00
 0.47850002E+02  0.90742E-01
 0.47900002E+02  0.21932E-01
 0.47950001E+02 -0.46230E-01
 0.48000000E+02 -0.11298E+00
 0.48049999E+02 -0.14744E+00
 0.48100002E+02 -0.16740E+00
 0.48150002E+02 -0.10287E+00
 0.48200001E+02 -0.16439E-01
 0.48250000E+02  0.33909E-01
 0.48299999E+02  0.52343E-01
 0.48350002E+02  0.58342E-01
 0.48400002E+02  0.33043E-01
 0.48450001E+02 -0.42760E-01
 0.48500000E+02 -0.12274E+00
 0.48549999E+02 -0.14249E+00
 0.48600002E+02 -0.63062E-01
 0.48650002E+02  0.18221E-01
 0.48700001E+02  0.34565E-01
 0.48750000E+02 -0.51018E-02
 0.48799999E+02 -0.77774E-01
 0.48850002E+02 -0.12801E+00
 0.48900002E+02 -0.13802E+00
 0.48950001E+02 -0.94645E-01
 0.49000000E+02 -0.68939E-01
 0.49049999E+02 -0.59410E-01
 0.49100002E+02 -0.30835E-01
 0.49150002E+02  0.20177E-01
 0.49200001E+02  0.66256E-01
 0.49250000E+02  0.68229E-01
 0.49299999E+02  0.47947E-01
 0.49350002E+02 -0.55905E-01
 0.49400002E+02 -0.15842E+00
 0.49450001E+02 -0.13672E+00
 0.49500000E+02 -0.10054E+00
 0.49549999E+02 -0.14830E+00
 0.49600002E+02 -0.17985E+00
 0.49650002E+02 -0.18628E+00
 0.49700001E+02 -0.13075E+00
 0.49750000E+02 -0.23340E-01
 0.49799999E+02  0.42749E-01
 0.49850002E+02  0.10550E+00
 0.49900002E+02  0.15657E+00
 0.49950001E+02  0.18697E+00
 0.50000000E+02  0.17076E+00
 0.50049999E+02  0.11897E+00
 0.50100002E+02  0.72716E-01
 0.50150002E+02  0.56848E-01
 0.50200001E+02 -0.80409E-02
 0.50250000E+02 -0.97044E-01
 0.50299999E+02 -0.12969E+00
 0.50350002E+02 -0.12613E+00
 0.50400002E+02 -0.74956E-01
 0.50450001E+02 -0.39027E-01
 0.50500000E+02 -0.19263E-01
 0.50549999E+02  0.46742E-01
 0.50600002E+02  0.66000E-01
 0.50650002E+02  0.48059E-02
 0.50700001E+02 -0.47241E-01
 0.50750000E+02  0.15189E-01
 0.50799999E+02  0.97890E-01
 0.50850002E+02  0.11738E+00
 0.50900002E+02  0.12638E+00
 0.50950001E+02  0.95116E-01
 0.51000000E+02  0.15822E+00
 0.51049999E+02  0.25592E+00
 0.51100002E+02  0.27908E+00
 0.51150002E+02  0.23712E+00
 0.51200001E+02  0.16728E+00
 0.51250000E+02  0.10680E+00
 0.51299999E+02  0.23301E-01
 0.51350002E+02 -0.16305E-01
 0.51400002E+02 -0.19148E-02
 0.51450001E+02  0.34661E-01
 0.51500000E+02  0.44180E-01
 0.51549999E+02  0.47141E-01
 0.51600002E+02  0.80882E-01
 0.51650002E+02  0.69732E-01
 0.51700001E+02  0.33860E-01
 0.51750000E+02  0.46282E-01
 0.51799999E+02  0.68781E-01
 0.51850002E+02  0.43271E-01
 0.51900002E+02 -0.11288E-01
 0.51950001E+02 -0.28783E-01
 0.52000000E+02 -0.81171E-01
 0.52049999E+02 -0.15928E+00
 0.52100002E+02 -0.18239E+00
 0.52150002E+02 -0.21943E+00
 0.52200001E+02 -0.28521E+00
 0.52250000E+02 -0.30216E+00
 0.52299999E+02 -0.29845E+00
 0.52350002E+02 -0.29148E+00
 0.52400002E+02 -0.21990E+00
 0.52450001E+02 -0.15043E+00
 0.52500000E+02 -0.95209E-01
 0.52549999E+02 -0.67961E-01
 0.52600002E+02 -0.56587E-01
 0.52650002E+02 -0.21735E-01
 0.52700001E+02  0.17545E-01
 0.52750000E+02  0.31040E-01
 0.52799999E+02  0.20176E-01
 0.52850002E+02  0.11826E-01
 0.52900002E+02  0.52306E-01
 0.52950001E+02  0.92773E-01
 0.53000000E+02  0.64677E-01
 0.53049999E+02  0.80282E-01
 0.53100002E+02  0.89105E-01
 0.53150002E+02  0.10071E+00
 0.53200001E+02  0.13362E+00
 0.53250000E+02  0.13579E+00
 0.53299999E+02  0.73925E-01
 0.53350002E+02  0.32749E-01
 0.53400002E+02  0.66502E-01
 0.53450001E+02 -0.21880E-03
 0.53500000E+02 -0.82025E-01
 0.53549999E+02 -0.96009E-01
 0.53600002E+02 -0.12208E+00
 0.53650002E+02 -0.18936E+00
 0.53700001E+02 -0.20842E+00
 0.53750000E+02 -0.18665E+00
 0.53799999E+02 -0.20406E+00
 0.53850002E+02 -0.18484E+00
 0.53900002E+02 -0.99446E-01
 0.53950001E+02 -0.51246E-01
 0.54000000E+02 -0.49569E-01
 0.54049999E+02 -0.39958E-01
 0.54100002E+02 -0.80890E-01
 0.54150002E+02 -0.12152E+00
 0.54200001E+02 -0.68117E-01
 0.54250000E+02  0.29627E-01
 0.54299999E+02  0.11481E+00
 0.54350002E+02  0.23156E+00
 0.54400002E+02  0.35646E+00
 0.54450001E+02  0.42303E+00
 0.54500000E+02  0.35268E+00
 0.54549999E+02  0.21608E+00
 0.54600002E+02  0.14789E+00
 0.54650002E+02  0.87347E-01
 0.54700001E+02  0.39446E-01
 0.54750000E+02  0.24315E-01
 0.54799999E+02 -0.71549E-04
 0.54850002E+02 -0.48340E-01
 0.54900002E+02 -0.81027E-01
 0.54950001E+02 -0.11092E+00
 0.55000000E+02 -0.11663E+00
 0.55049999E+02 -0.38758E-01
 0.55100002E+02  0.29436E-01
 0.55150002E+02  0.63779E-01
 0.55200001E+02  0.91030E-01
 0.55250000E+02  0.11881E+00
 0.55299999E+02  0.15809E+00
 0.55350002E+02  0.17709E+00
 0.55400002E+02  0.14873E+00
 0.55450001E+02  0.71406E-01
 0.55500000E+02  0.11071E-02
 0.55549999E+02 -0.83549E-02
 0.55600002E+02  0.14718E-01
 0.55650002E+02  0.29172E-01
 0.55700001E+02  0.74891E-02
 0.55750000E+02 -0.21030E-01
 0.55799999E+02 -0.22628E-01
 0.55850002E+02 -0.12217E-01
 0.55900002E+02 -0.11733E-01
 0.55950001E+02 -0.69274E-02
 0.56000000E+02  0.15013E-01
 0.56049999E+02  0.93476E-02
 0.56100002E+02 -0.22894E-01
 0.56150002E+02 -0.24710E-01
 0.56200001E+02  0.27208E-01
 0.56250000E+02  0.20210E-01
 0.56299999E+02 -0.76235E-02
 0.56350002E+02  0.25335E-01
 0.56400002E+02  0.28629E-01
 0.56450001E+02  0.51142E-02
 0.56500000E+02  0.13114E-01
 0.56549999E+02  0.30327E-01
 0.56600002E+02  0.20676E-01
 0.56650002E+02  0.34169E-02
 0.56700001E+02  0.99261E-03
 0.56750000E+02 -0.10169E-01
 0.56799999E+02 -0.45171E-01
 0.56850002E+02 -0.62445E-01
 0.56900002E+02 -0.68734E-01
 0.56950001E+02 -0.73876E-01
 0.57000000E+02 -0.85543E-01
 0.57049999E+02 -0.10991E+00
 0.57100002E+02 -0.10190E+00
 0.57150002E+02 -0.10136E+00
 0.57200001E+02 -0.10409E+00
 0.57250000E+02 -0.10480E+00
 0.57299999E+02 -0.14158E+00
 0.57350002E+02 -0.18493E+00
 0.57400002E+02 -0.21366E+00
 0.57450001E+02 -0.20221E+00
 0.57500000E+02 -0.16275E+00
 0.57549999E+02 -0.12061E+00
 0.57600002E+02 -0.92105E-01
 0.57650002E+02 -0.53314E-01
 0.57700001E+02  0.14252E-02
 0.57750000E+02  0.35947E-01
 0.57799999E+02  0.62122E-01
 0.57850002E+02  0.58625E-01
 0.57900002E+02  0.33434E-01
 0.57950001E+02  0.20495E-01
 0.58000000E+02  0.15497E-01
 0.58049999E+02  0.34762E-01
 0.58100002E+02  0.31367E-01
 0.58150002E+02 -0.11132E-01
 0.58200001E+02 -0.43350E-01
 0.58250000E+02 -0.35887E-01
 0.58299999E+02  0.63397E-02
 0.58350002E+02  0.28854E-01
 0.58400002E+02  0.57751E-01
 0.58450001E+02  0.12740E+00
 0.58500000E+02  0.17136E+00
 0.58549999E+02  0.15104E+00
 0.58600002E+02  0.14641E+00
 0.58650002E+02  0.16424E+00
 0.58700001E+02  0.15690E+00
 0.58750000E+02  0.15982E+00
 0.58799999E+02  0.13856E+00
 0.58850002E+02  0.78754E-01
 0.58900002E+02  0.26768E-01
 0.58950001E+02 -0.13449E-01
 0.59000000E+02 -0.55240E-01
 0.59049999E+02 -0.63159E-01
 0.59100002E+02 -0.34002E-01
 0.59150002E+02 -0.28808E-01
 0.59200001E+02 -0.10784E-01
 0.59250000E+02  0.11640E-01
 0.59299999E+02  0.16855E-01
 0.59350002E+02  0.28063E-01
 0.59400002E+02  0.25147E-01
 0.59450001E+02  0.14430E-02
 0.59500000E+02 -0.21007E-01
 0.59549999E+02 -0.24958E-01
 0.59600002E+02 -0.28690E-01
 0.59650002E+02 -0.24051E-01
 0.59700001E+02  0.14470E-02
 0.59750000E+02  0.22831E-01
 0.59799999E+02  0.27115E-01
 0.59850002E+02  0.48001E-02
 0.59900002E+02 -0.40610E-01
 0.59950001E+02 -0.74927E-01
 0.60000000E+02 -0.91155E-01
 0.60049999E+02 -0.12104E+00
 0.60100002E+02 -0.16168E+00
 0.60150002E+02 -0.20226E+00
 0.60200001E+02 -0.22637E+00
 0.60250000E+02 -0.22300E+00
 0.60299999E+02 -0.21805E+00
 0.60350002E+02 -0.18488E+00
 0.60400002E+02 -0.13485E+00
 0.60450001E+02 -0.64609E-01
 0.60500000E+02  0.14983E-01
 0.60549999E+02  0.59445E-01
 0.60600002E+02  0.10954E+00
 0.60650002E+02  0.16839E+00
 0.60700001E+02  0.17028E+00
 0.60750000E+02  0.15469E+00
 0.60799999E+02  0.16870E+00
 0.60850002E+02  0.15804E+00
 0.60900002E+02  0.12172E+00
 0.60950001E+02  0.81606E-01
 0.61000000E+02  0.53484E-01
 0.61049999E+02  0.23084E-01
 0.61100002E+02  0.39038E-01
 0.61150002E+02  0.74595E-01
 0.61200001E+02  0.42923E-01
 0.61250000E+02  0.11324E-01
 0.61299999E+02  0.18628E-01
 0.61350002E+02  0.30877E-01
 0.61400002E+02  0.28645E-01
 0.61450001E+02  0.32400E-01
 0.61500000E+02  0.33495E-01
 0.61549999E+02  0.35873E-01
 0.61600002E+02  0.18357E-01
 0.61650002E+02 -0.39272E-01
 0.61700001E+02 -0.68753E-01
 0.61750000E+02 -0.55329E-01
 0.61799999E+02 -0.16421E-01
 0.61850002E+02  0.24201E-01
 0.61900002E+02  0.57038E-01
 0.61950001E+02  0.83835E-01
 0.62000000E+02  0.10875E+00
 0.62049999E+02  0.14107E+00
 0.62100002E+02  0.12717E+00
 0.62150002E+02  0.91662E-01
 0.62200001E+02  0.48095E-01
 0.62250000E+02 -0.21456E-01
 0.62299999E+02 -0.82296E-01
 0.62350002E+02 -0.13846E+00
 0.62400002E+02 -0.15901E+00
 0.62450001E+02 -0.12862E+00
 0.62500000E+02 -0.11220E+00
 0.62549999E+02 -0.14232E+00
 0.62600002E+02 -0.15527E+00
 0.62650002E+02 -0.12772E+00
 0.62700001E+02 -0.87534E-01
 0.62750000E+02 -0.61474E-01
 0.62799999E+02 -0.61742E-01
 0.62850002E+02 -0.55274E-01
 0.62900002E+02 -0.32224E-01
 0.62950001E+02 -0.63067E-02
 0.63000000E+02  0.44550E-02
 0.63049999E+02  0.16761E-01
 0.63100002E+02  0.50000E-01
 0.63150002E+02  0.74623E-01
 0.63200001E+02  0.73495E-01
 0.63250000E+02  0.53105E-01
 0.63299999E+02  0.31747E-01
 0.63350002E+02  0.16214E-01
 0.63400002E+02  0.14006E-01
 0.63450001E+02 -0.34036E-02
 0.63500000E+02 -0.49427E-01
 0.63549999E+02 -0.75603E-01
 0.63600002E+02 -0.54748E-01
 0.63650002E+02 -0.29329E-01
 0.63700001E+02 -0.23195E-01
 0.63750000E+02 -0.13215E-01
 0.63799999E+02 -0.97875E-02
 0.63850002E+02  0.15627E-01
 0.63900002E+02  0.46458E-01
 0.63950001E+02  0.56737E-01
 0.64000000E+02  0.58598E-01
 0.64050003E+02  0.56180E-01
 0.64099998E+02  0.45295E-01
 0.64150002E+02  0.26075E-01
 0.64200005E+02  0.72295E-02
 0.64250000E+02 -0.68852E-02
 0.64300003E+02 -0.17178E-01
 0.64349998E+02 -0.49389E-01
 0.64400002E+02 -0.68234E-01
 0.64450005E+02 -0.45547E-01
 0.64500000E+02 -0.33878E-01
 0.64550003E+02 -0.54804E-01
 0.64599998E+02 -0.64360E-01
 0.64650002E+02 -0.62067E-01
 0.64700005E+02 -0.39824E-01
 0.64750000E+02  0.19689E-01
 0.64800003E+02  0.77112E-01
 0.64849998E+02  0.93959E-01
 0.64900002E+02  0.89717E-01
 0.64950005E+02  0.11258E+00
 0.65000000E+02  0.13250E+00
 0.65050003E+02  0.12245E+00
 0.65099998E+02  0.11445E+00
 0.65150002E+02  0.84764E-01
 0.65200005E+02  0.41961E-01
 0.65250000E+02  0.23539E-01
 0.65300003E+02  0.18241E-01
 0.65349998E+02  0.94230E-02
 0.65400002E+02 -0.12979E-01
 0.65450005E+02 -0.14591E-01
 0.65500000E+02 -0.87245E-02
 0.65550003E+02 -0.11085E-01
 0.65599998E+02 -0.26381E-01
 0.65650002E+02 -0.34675E-01
 0.65700005E+02 -0.11664E-01
 0.65750000E+02 -0.51888E-02
 0.65800003E+02 -0.25021E-01
 0.65849998E+02 -0.60607E-01
 0.65900002E+02 -0.73994E-01
 0.65950005E+02 -0.75487E-01
 0.66000000E+02 -0.81996E-01
 0.66050003E+02 -0.63183E-01
 0.66099998E+02 -0.55619E-01
 0.66150002E+02 -0.62192E-01
 0.66200005E+02 -0.59073E-01
 0.66250000E+02 -0.47337E-01
 0.66300003E+02 -0.28431E-01
 0.66349998E+02 -0.18185E-01
 0.66400002E+02 -0.17119E-01
 0.66450005E+02 -0.19360E-01
 0.66500000E+02 -0.13539E-01
 0.66550003E+02  0.90973E-02
 0.66599998E+02  0.22516E-01
 0.66650002E+02  0.95785E-02
 0.66700005E+02 -0.14380E-01
 0.66750000E+02 -0.30503E-01
 0.66800003E+02 -0.15480E-01
 0.66849998E+02  0.31191E-01
 0.66900002E+02  0.77281E-01
 0.66950005E+02  0.10762E+00
 0.67000000E+02  0.11695E+00
 0.67050003E+02  0.11042E+00
 0.67099998E+02  0.10316E+00
 0.67150002E+02  0.10910E+00
 0.67200005E+02  0.11632E+00
 0.67250000E+02  0.92093E-01
 0.67300003E+02  0.52815E-01
 0.67349998E+02  0.19365E-01
 0.67400002E+02 -0.57261E-02
 0.67450005E+02 -0.25077E-01
 0.67500000E+02 -0.48147E-01
 0.67550003E+02 -0.81944E-01
 0.67599998E+02 -0.96293E-01
 0.67650002E+02 -0.75466E-01
 0.67700005E+02 -0.54036E-01
 0.67750000E+02 -0.40161E-01
 0.67800003E+02 -0.21672E-01
 0.67849998E+02  0.35196E-02
 0.67900002E+02  0.16937E-01
 0.67950005E+02  0.99078E-02
 0.68000000E+02 -0.12954E-02
 0.68050003E+02  0.42813E-02
 0.68099998E+02 -0.43315E-02
 0.68150002E+02 -0.77182E-02
 0.68200005E+02  0.25365E-02
 0.68250000E+02 -0.77338E-02
 0.68300003E+02 -0.23656E-01
 0.68349998E+02 -0.45249E-01
 0.68400002E+02 -0.52938E-01
 0.68450005E+02 -0.62616E-01
 0.68500000E+02 -0.81877E-01
 0.68550003E+02 -0.86039E-01
 0.68599998E+02 -0.75953E-01
 0.68650002E+02 -0.51518E-01
 0.68700005E+02 -0.33208E-01
 0.68750000E+02 -0.21149E-01
 0.68800003E+02 -0.49043E-02
 0.68849998E+02  0.18851E-01
 0.68900002E+02  0.49303E-01
 0.68950005E+02  0.65870E-01
 0.69000000E+02  0.71610E-01
 0.69050003E+02  0.67739E-01
 0.69099998E+02  0.54540E-01
 0.69150002E+02  0.42257E-01
 0.69200005E+02  0.21359E-01
 0.69250000E+02 -0.18167E-03
 0.69300003E+02 -0.34122E-02
 0.69349998E+02  0.10225E-02
 0.69400002E+02  0.10866E-01
 0.69450005E+02  0.25528E-01
 0.69500000E+02  0.33711E-01
 0.69550003E+02  0.44810E-01
 0.69599998E+02  0.58447E-01
 0.69650002E+02  0.61508E-01
 0.69700005E+02  0.67627E-01
 0.69750000E+02  0.71920E-01
 0.69800003E+02  0.67726E-01
 0.69849998E+02  0.65672E-01
 0.69900002E+02  0.49993E-01
 0.69950005E+02  0.25871E-01
 0.70000000E+02  0.29587E-02
 0.70050003E+02 -0.53894E-02
 0.70099998E+02 -0.10851E-02
 0.70150002E+02 -0.13648E-01
 0.70200005E+02 -0.44868E-01
 0.70250000E+02 -0.58958E-01
 0.70300003E+02 -0.57330E-01
 0.70349998E+02 -0.67081E-01
 0.70400002E+02 -0.61034E-01
 0.70450005E+02 -0.30256E-01
 0.70500000E+02  0.67603E-02
 0.70550003E+02  0.32024E-01
 0.70599998E+02  0.37891E-01
 0.70650002E+02  0.29240E-01
 0.70700005E+02  0.11455E-01
 0.70750000E+02 -0.14187E-01
 0.70800003E+02 -0.35667E-01
 0.70849998E+02 -0.46351E-01
 0.70900002E+02 -0.42423E-01
 0.70950005E+02 -0.38335E-01
 0.71000000E+02 -0.56044E-01
 0.71050003E+02 -0.60857E-01
 0.71099998E+02 -0.34953E-01
 0.71150002E+02 -0.10162E-01
 0.71200005E+02 -0.10676E-01
 0.71250000E+02 -0.27132E-01
 0.71300003E+02 -0.46275E-01
 0.71349998E+02 -0.65275E-01
 0.71400002E+02 -0.87774E-01
 0.71450005E+02 -0.11384E+00
 0.71500000E+02 -0.10594E+00
 0.71550003E+02 -0.60657E-01
 0.71599998E+02 -0.23191E-01
 0.71650002E+02  0.57861E-02
 0.71700005E+02  0.29586E-01
 0.71750000E+02  0.45707E-01
 0.71800003E+02  0.50702E-01
 0.71849998E+02  0.48640E-01
 0.71900002E+02  0.33102E-01
 0.71950005E+02 -0.24359E-02
 0.72000000E+02 -0.13855E-01
 0.72050003E+02 -0.24231E-02
 0.72099998E+02  0.97525E-02
 0.72150002E+02  0.16527E-01
 0.72200005E+02  0.12677E-01
 0.72250000E+02  0.16379E-01
 0.72300003E+02  0.18035E-01
 0.72349998E+02  0.17949E-01
 0.72400002E+02  0.18782E-01
 0.72450005E+02  0.14504E-01
 0.72500000E+02  0.11706E-01
 0.72550003E+02  0.80176E-02
 0.72599998E+02  0.13851E-01
 0.72650002E+02  0.16759E-01
 0.72700005E+02  0.62082E-02
 0.72750000E+02 -0.13231E-01
 0.72800003E+02 -0.25683E-01
 0.72849998E+02 -0.22316E-01
 0.72900002E+02 -0.19093E-01
 0.72950005E+02 -0.28545E-01
 0.73000000E+02 -0.46072E-01
 0.73050003E+02 -0.57863E-01
 0.73099998E+02 -0.60087E-01
 0.73150002E+02 -0.49454E-01
 0.73200005E+02 -0.22179E-01
 0.73250000E+02 -0.27450E-02
 0.73300003E+02 -0.22638E-02
 0.73349998E+02  0.56539E-03
 0.73400002E+02  0.77366E-02
 0.73450005E+02  0.14606E-01
 0.73500000E+02  0.11891E-01
 0.73550003E+02  0.14002E-01
 0.73599998E+02  0.21318E-01
 0.73650002E+02  0.27692E-01
 0.73700005E+02  0.41154E-01
 0.73750000E+02  0.49707E-01
 0.73800003E+02  0.36034E-01
 0.73849998E+02  0.39682E-02
 0.73900002E+02 -0.15073E-01
 0.73950005E+02 -0.22536E-01
 0.74000000E+02 -0.29717E-01
 0.74050003E+02 -0.28750E-01
 0.74099998E+02 -0.25293E-01
 0.74150002E+02 -0.25556E-01
 0.74200005E+02 -0.87596E-02
 0.74250000E+02  0.27150E-01
 0.74300003E+02  0.66241E-01
 0.74349998E+02  0.87522E-01
 0.74400002E+02  0.83083E-01
 0.74450005E+02  0.72560E-01
 0.74500000E+02  0.66614E-01
 0.74550003E+02  0.78337E-01
 0.74599998E+02  0.10208E+00
 0.74650002E+02  0.11895E+00
 0.74700005E+02  0.11423E+00
 0.74750000E+02  0.89537E-01
 0.74800003E+02  0.67637E-01
 0.74849998E+02  0.49224E-01
 0.74900002E+02  0.24646E-01
 0.74950005E+02 -0.76365E-02
 0.75000000E+02 -0.46650E-01
 0.75050003E+02 -0.71797E-01
 0.75099998E+02 -0.78144E-01
 0.75150002E+02 -0.66794E-01
 0.75200005E+02 -0.50356E-01
 0.75250000E+02 -0.41819E-01
 0.75300003E+02 -0.26760E-01
 0.75349998E+02 -0.13826E-01
 0.75400002E+02 -0.13715E-01
 0.75450005E+02 -0.14766E-01
 0.75500000E+02 -0.71107E-02
 0.75550003E+02 -0.33498E-02
 0.75599998E+02 -0.57590E-02
 0.75650002E+02 -0.11410E-01
 0.75700005E+02 -0.29079E-03
 0.75750000E+02  0.27032E-01
 0.75800003E+02  0.40521E-01
 0.75849998E+02  0.38893E-01
 0.75900002E+02  0.21796E-01
 0.75950005E+02  0.19649E-02
 0.76000000E+02 -0.25171E-01
 0.76050003E+02 -0.69862E-01
 0.76099998E+02 -0.11002E+00
 0.76150002E+02 -0.12561E+00
 0.76200005E+02 -0.12486E+00
 0.76250000E+02 -0.12345E+00
 0.76300003E+02 -0.10806E+00
 0.76349998E+02 -0.85296E-01
 0.76400002E+02 -0.70567E-01
 0.76450005E+02 -0.46496E-01
 0.76500000E+02 -0.83187E-02
 0.76550003E+02  0.16968E-01
 0.76599998E+02  0.34085E-01
 0.76650002E+02  0.64906E-01
 0.76700005E+02  0.96545E-01
 0.76750000E+02  0.12226E+00
 0.76800003E+02  0.14365E+00
 0.76849998E+02  0.15927E+00
 0.76900002E+02  0.16698E+00
 0.76950005E+02  0.17149E+00
 0.77000000E+02  0.16304E+00
 0.77050003E+02  0.13446E+00
 0.77099998E+02  0.10408E+00
 0.77150002E+02  0.74139E-01
 0.77200005E+02  0.38303E-01
 0.77250000E+02  0.56052E-02
 0.77300003E+02 -0.15429E-01
 0.77349998E+02 -0.30516E-01
 0.77400002E+02 -0.46495E-01
 0.77450005E+02 -0.63877E-01
 0.77500000E+02 -0.69802E-01
 0.77550003E+02 -0.65369E-01
 0.77599998E+02 -0.55938E-01
 0.77650002E+02 -0.40250E-01
 0.77700005E+02 -0.19849E-01
 0.77750000E+02  0.44095E-02
 0.77800003E+02  0.15056E-01
 0.77849998E+02  0.18118E-01
 0.77900002E+02  0.21783E-01
 0.77950005E+02  0.29109E-01
 0.78000000E+02  0.39716E-01
 0.78050003E+02  0.46092E-01
 0.78099998E+02  0.51849E-01
 0.78150002E+02  0.44599E-01
 0.78200005E+02  0.29052E-01
 0.78250000E+02  0.16442E-01
 0.78300003E+02  0.13901E-01
 0.78349998E+02  0.19877E-01
 0.78400002E+02  0.98711E-02
 0.78450005E+02 -0.97913E-02
 0.78500000E+02 -0.14138E-01
 0.78550003E+02 -0.75495E-02
 0.78599998E+02 -0.37973E-02
 0.78650002E+02 -0.19017E-02
 0.78700005E+02  0.74556E-02
 0.78750000E+02  0.27502E-01
 0.78800003E+02  0.50223E-01
 0.78849998E+02  0.59793E-01
 0.78900002E+02  0.51268E-01
 0.78950005E+02  0.41510E-01
 0.79000000E+02  0.24820E-01
 0.79050003E+02 -0.13471E-01
 0.79099998E+02 -0.48433E-01
 0.79150002E+02 -0.68788E-01
 0.79200005E+02 -0.86530E-01
 0.79250000E+02 -0.10601E+00
 0.79300003E+02 -0.10947E+00
 0.79349998E+02 -0.96531E-01
 0.79400002E+02 -0.93872E-01
 0.79450005E+02 -0.88408E-01
 0.79500000E+02 -0.81192E-01
 0.79550003E+02 -0.78217E-01
 0.79599998E+02 -0.65904E-01
 0.79650002E+02 -0.51609E-01
 0.79700005E+02 -0.32941E-01
 0.79750000E+02 -0.85826E-02
 0.79800003E+02  0.44740E-02
 0.79849998E+02  0.29693E-02
 0.79900002E+02  0.20152E-02
 0.79950005E+02  0.51188E-02
 0.80000000E+02  0.98149E-02
 0.80050003E+02  0.16162E-01
 0.80099998E+02  0.18634E-01
 0.80150002E+02  0.12919E-01
 0.80200005E+02 -0.32839E-04
 0.80250000E+02 -0.11475E-01
 0.80300003E+02 -0.23265E-01
 0.80349998E+02 -0.35855E-01
 0.80400002E+02 -0.40040E-01
 0.80450005E+02 -0.47605E-01
 0.80500000E+02 -0.58026E-01
 0.80550003E+02 -0.60325E-01
 0.80599998E+02 -0.56844E-01
 0.80650002E+02 -0.52239E-01
 0.80700005E+02 -0.51977E-01
 0.80750000E+02 -0.46905E-01
 0.80800003E+02 -0.30861E-01
 0.80849998E+02 -0.10122E-01
 0.80900002E+02  0.73834E-02
 0.80950005E+02  0.23101E-01
 0.81000000E+02  0.40485E-01
 0.81050003E+02  0.56559E-01
 0.81099998E+02  0.69130E-01
 0.81150002E+02  0.73451E-01
 0.81200005E+02  0.66103E-01
 0.81250000E+02  0.51648E-01
 0.81300003E+02  0.29633E-01
 0.81349998E+02  0.74550E-02
 0.81400002E+02 -0.18259E-02
 0.81450005E+02 -0.56096E-03
 0.81500000E+02  0.11432E-01
 0.81550003E+02  0.21400E-01
 0.81599998E+02  0.24656E-01
 0.81650002E+02  0.33499E-01
 0.81700005E+02  0.49298E-01
 0.81750000E+02  0.55300E-01
 0.81800003E+02  0.49684E-01
 0.81849998E+02  0.41852E-01
 0.81900002E+02  0.32953E-01
 0.81950005E+02  0.23206E-01
 0.82000000E+02 -0.19309E-02
 0.82050003E+02 -0.38763E-01
 0.82099998E+02 -0.74941E-01
 0.82150002E+02 -0.10388E+00
 0.82200005E+02 -0.13079E+00
 0.82250000E+02 -0.15066E+00
 0.82300003E+02 -0.14904E+00
 0.82349998E+02 -0.13515E+00
 0.82400002E+02 -0.11332E+00
 0.82450005E+02 -0.83116E-01
 0.82500000E+02 -0.42840E-01
 0.82550003E+02 -0.13601E-02
 0.82599998E+02  0.29210E-01
 0.82650002E+02  0.45552E-01
 0.82700005E+02  0.51159E-01
 0.82750000E+02  0.63599E-01
 0.82800003E+02  0.82842E-01
 0.82849998E+02  0.94966E-01
 0.82900002E+02  0.94376E-01
 0.82950005E+02  0.72232E-01
 0.83000000E+02  0.41872E-01
 0.83050003E+02  0.19897E-01
 0.83099998E+02  0.96519E-02
 0.83150002E+02  0.96522E-02
 0.83200005E+02  0.99274E-02
 0.83250000E+02  0.80401E-02
 0.83300003E+02  0.58511E-02
 0.83349998E+02  0.75961E-02
 0.83400002E+02  0.17839E-02
 0.83450005E+02 -0.12053E-01
 0.83500000E+02 -0.16880E-01
 0.83550003E+02 -0.11263E-01
 0.83599998E+02 -0.51277E-02
 0.83650002E+02  0.25572E-02
 0.83700005E+02  0.18472E-01
 0.83750000E+02  0.32370E-01
 0.83800003E+02  0.34419E-01
 0.83849998E+02  0.28901E-01
 0.83900002E+02  0.13738E-01
 0.83950005E+02 -0.10249E-01
 0.84000000E+02 -0.39201E-01
 0.84050003E+02 -0.65519E-01
 0.84099998E+02 -0.81236E-01
 0.84150002E+02 -0.83316E-01
 0.84200005E+02 -0.70326E-01
 0.84250000E+02 -0.63774E-01
 0.84300003E+02 -0.65363E-01
 0.84349998E+02 -0.59575E-01
 0.84400002E+02 -0.45024E-01
 0.84450005E+02 -0.25264E-01
 0.84500000E+02 -0.53668E-02
 0.84550003E+02  0.13667E-01
 0.84599998E+02  0.30154E-01
 0.84650002E+02  0.45249E-01
 0.84700005E+02  0.63453E-01
 0.84750000E+02  0.76978E-01
 0.84800003E+02  0.81145E-01
 0.84849998E+02  0.81977E-01
 0.84900002E+02  0.79369E-01
 0.84950005E+02  0.66402E-01
 0.85000000E+02  0.43961E-01
 0.85050003E+02  0.24099E-01
 0.85099998E+02  0.15331E-01
 0.85150002E+02  0.17351E-01
 0.85200005E+02  0.22183E-01
 0.85250000E+02  0.27674E-01
 0.85300003E+02  0.35157E-01
 0.85349998E+02  0.36994E-01
 0.85400002E+02  0.32259E-01
 0.85450005E+02  0.22508E-01
 0.85500000E+02  0.10124E-01
 0.85550003E+02  0.25918E-02
 0.85599998E+02 -0.43698E-02
 0.85650002E+02 -0.13009E-01
 0.85700005E+02 -0.22276E-01
 0.85750000E+02 -0.29160E-01
 0.85800003E+02 -0.33577E-01
 0.85849998E+02 -0.40384E-01
 0.85900002E+02 -0.35376E-01
 0.85950005E+02 -0.24902E-01
 0.86000000E+02 -0.25557E-01
 0.86050003E+02 -0.21181E-01
 0.86099998E+02 -0.11574E-01
 0.86150002E+02 -0.12408E-01
 0.86200005E+02 -0.24422E-01
 0.86250000E+02 -0.30646E-01
 0.86300003E+02 -0.30067E-01
 0.86349998E+02 -0.33033E-01
 0.86400002E+02 -0.40025E-01
 0.86450005E+02 -0.44494E-01
 0.86500000E+02 -0.40754E-01
 0.86550003E+02 -0.32739E-01
 0.86599998E+02 -0.19322E-01
 0.86650002E+02 -0.52940E-02
 0.86700005E+02  0.15288E-02
 0.86750000E+02  0.40017E-02
 0.86800003E+02  0.14964E-01
 0.86849998E+02  0.29111E-01
 0.86900002E+02  0.32954E-01
 0.86950005E+02  0.31590E-01
 0.87000000E+02  0.35344E-01
 0.87050003E+02  0.49162E-01
 0.87099998E+02  0.66092E-01
 0.87150002E+02  0.82131E-01
 0.87200005E+02  0.10284E+00
 0.87250000E+02  0.12301E+00
 0.87300003E+02  0.13151E+00
 0.87349998E+02  0.12453E+00
 0.87400002E+02  0.11098E+00
 0.87450005E+02  0.99400E-01
 0.87500000E+02  0.81066E-01
 0.87550003E+02  0.53903E-01
 0.87599998E+02  0.27445E-01
 0.87650002E+02  0.63322E-02
 0.87700005E+02 -0.12640E-02
 0.87750000E+02  0.45619E-03
 0.87800003E+02 -0.92244E-03
 0.87849998E+02 -0.10440E-01
 0.87900002E+02 -0.22524E-01
 0.87950005E+02 -0.25807E-01
 0.88000000E+02 -0.26358E-01
 0.88050003E+02 -0.32473E-01
 0.88099998E+02 -0.41493E-01
 0.88150002E+02 -0.54190E-01
 0.88200005E+02 -0.66333E-01
 0.88250000E+02 -0.75183E-01
 0.88300003E+02 -0.85224E-01
 0.88349998E+02 -0.92691E-01
 0.88400002E+02 -0.95491E-01
 0.88450005E+02 -0.94877E-01
 0.88500000E+02 -0.90311E-01
 0.88550003E+02 -0.83666E-01
 0.88599998E+02 -0.75432E-01
 0.88650002E+02 -0.62727E-01
 0.88700005E+02 -0.46577E-01
 0.88750000E+02 -0.37497E-01
 0.88800003E+02 -0.38910E-01
 0.88849998E+02 -0.35781E-01
 0.88900002E+02 -0.19797E-01
 0.88950005E+02  0.81982E-04
 0.89000000E+02  0.94241E-02
 0.89050003E+02  0.87159E-02
 0.89099998E+02 -0.41534E-03
 0.89150002E+02 -0.13067E-01
 0.89200005E+02 -0.21462E-01
 0.89250000E+02 -0.26190E-01
 0.89300003E+02 -0.20197E-01
 0.89349998E+02 -0.47514E-02
 0.89400002E+02  0.15011E-01
 0.89450005E+02  0.36831E-01
 0.89500000E+02  0.57154E-01
 0.89550003E+02  0.69955E-01
 0.89599998E+02  0.64640E-01
 0.89650002E+02  0.47694E-01
 0.89700005E+02  0.30188E-01
 0.89750000E+02  0.14457E-01
 0.89800003E+02  0.71282E-02
 0.89849998E+02  0.40524E-02
 0.89900002E+02  0.25155E-02
 0.89950005E+02  0.28905E-02
 0.90000000E+02 -0.63852E-03
 0.90050003E+02 -0.45969E-02
 0.90099998E+02 -0.66862E-02
 0.90150002E+02 -0.19730E-02
 0.90200005E+02  0.12936E-01
 0.90250000E+02  0.28688E-01
 0.90300003E+02  0.38004E-01
 0.90349998E+02  0.41358E-01
 0.90400002E+02  0.40938E-01
 0.90450005E+02  0.34653E-01
 0.90500000E+02  0.25346E-01
 0.90550003E+02  0.21444E-01
 0.90599998E+02  0.20010E-01
 0.90650002E+02  0.14305E-01
 0.90700005E+02  0.99469E-02
 0.90750000E+02  0.13468E-01
 0.90800003E+02  0.26032E-01
 0.90849998E+02  0.38068E-01
 0.90900002E+02  0.43193E-01
 0.90950005E+02  0.38813E-01
 0.91000000E+02  0.21615E-01
 0.91050003E+02  0.56957E-02
 0.91099998E+02 -0.17858E-02
 0.91150002E+02 -0.13997E-02
 0.91200005E+02  0.20185E-02
 0.91250000E+02  0.29125E-02
 0.91300003E+02  0.70628E-02
 0.91349998E+02  0.10105E-01
 0.91400002E+02  0.35796E-02
 0.91450005E+02 -0.96109E-02
 0.91500000E+02 -0.20546E-01
 0.91550003E+02 -0.27539E-01
 0.91599998E+02 -0.33800E-01
 0.91650002E+02 -0.43107E-01
 0.91700005E+02 -0.51670E-01
 0.91750000E+02 -0.53889E-01
 0.91800003E+02 -0.55752E-01
 0.91849998E+02 -0.55458E-01
 0.91900002E+02 -0.47080E-01
 0.91950005E+02 -0.29408E-01
 0.92000000E+02 -0.11119E-01
 0.92050003E+02  0.88582E-02
 0.92099998E+02  0.34774E-01
 0.92150002E+02  0.54004E-01
 0.92200005E+02  0.63204E-01
 0.92250000E+02  0.63996E-01
 0.92300003E+02  0.62368E-01
 0.92349998E+02  0.60299E-01
 0.92400002E+02  0.49456E-01
 0.92450005E+02  0.31515E-01
 0.92500000E+02  0.11399E-01
 0.92550003E+02 -0.64519E-02
 0.92599998E+02 -0.18968E-01
 0.92650002E+02 -0.28041E-01
 0.92700005E+02 -0.39477E-01
 0.92750000E+02 -0.49095E-01
 0.92800003E+02 -0.49386E-01
 0.92849998E+02 -0.44981E-01
 0.92900002E+02 -0.38988E-01
 0.92950005E+02 -0.36020E-01
 0.93000000E+02 -0.33705E-01
 0.93050003E+02 -0.29319E-01
 0.93099998E+02 -0.20757E-01
 0.93150002E+02 -0.10057E-01
 0.93200005E+02 -0.38086E-02
 0.93250000E+02 -0.36008E-02
 0.93300003E+02 -0.11598E-01
 0.93349998E+02 -0.20696E-01
 0.93400002E+02 -0.31217E-01
 0.93450005E+02 -0.40224E-01
 0.93500000E+02 -0.37178E-01
 0.93550003E+02 -0.33586E-01
 0.93599998E+02 -0.36211E-01
 0.93650002E+02 -0.39010E-01
 0.93700005E+02 -0.42772E-01
 0.93750000E+02 -0.46893E-01
 0.93800003E+02 -0.43281E-01
 0.93849998E+02 -0.29131E-01
 0.93900002E+02 -0.13006E-01
 0.93950005E+02  0.32364E-02
 0.94000000E+02  0.19611E-01
 0.94050003E+02  0.32767E-01
 0.94099998E+02  0.42212E-01
 0.94150002E+02  0.45695E-01
 0.94200005E+02  0.46335E-01
 0.94250000E+02  0.48753E-01
 0.94300003E+02  0.49009E-01
 0.94349998E+02  0.43805E-01
 0.94400002E+02  0.33236E-01
 0.94450005E+02  0.23776E-01
 0.94500000E+02  0.16000E-01
 0.94550003E+02  0.68752E-02
 0.94599998E+02 -0.23806E-02
 0.94650002E+02 -0.75630E-02
 0.94700005E+02 -0.33890E-02
 0.94750000E+02  0.70286E-03
 0.94800003E+02 -0.16599E-02
 0.94849998E+02 -0.61640E-02
 0.94900002E+02 -0.87899E-02
 0.94950005E+02 -0.13429E-01
 0.95000000E+02 -0.25785E-01
 0.95050003E+02 -0.38223E-01
 0.95099998E+02 -0.44119E-01
 0.95150002E+02 -0.41086E-01
 0.95200005E+02 -0.30387E-01
 0.95250000E+02 -0.16877E-01
 0.95300003E+02 -0.30354E-02
 0.95349998E+02  0.65150E-02
 0.95400002E+02  0.76511E-02
 0.95450005E+02  0.26244E-02
 0.95500000E+02 -0.89541E-03
 0.95550003E+02  0.84396E-03
 0.95599998E+02  0.52960E-02
 0.95650002E+02  0.93727E-02
 0.95700005E+02  0.11262E-01
 0.95750000E+02  0.14885E-01
 0.95800003E+02  0.25838E-01
 0.95849998E+02  0.35462E-01
 0.95900002E+02  0.40053E-01
 0.95950005E+02  0.41185E-01
 0.96000000E+02  0.35006E-01
 0.96050003E+02  0.29697E-01
 0.96099998E+02  0.30947E-01
 0.96150002E+02  0.30407E-01
 0.96200005E+02  0.26059E-01
 0.96250000E+02  0.27024E-01
 0.96300003E+02  0.33925E-01
 0.96349998E+02  0.37760E-01
 0.96400002E+02  0.38781E-01
 0.96450005E+02  0.39791E-01
 0.96500000E+02  0.37815E-01
 0.96550003E+02  0.33057E-01
 0.96599998E+02  0.24674E-01
 0.96650002E+02  0.14144E-01
 0.96700005E+02  0.58183E-02
 0.96750000E+02 -0.21870E-02
 0.96800003E+02 -0.12675E-01
 0.96849998E+02 -0.20680E-01
 0.96900002E+02 -0.24490E-01
 0.96950005E+02 -0.31441E-01
 0.97000000E+02 -0.39672E-01
 0.97050003E+02 -0.45324E-01
 0.97099998E+02 -0.49135E-01
 0.97150002E+02 -0.48289E-01
 0.97200005E+02 -0.45214E-01
 0.97250000E+02 -0.42499E-01
 0.97300003E+02 -0.37250E-01
 0.97349998E+02 -0.26805E-01
 0.97400002E+02 -0.17295E-01
 0.97450005E+02 -0.11318E-01
 0.97500000E+02 -0.39483E-02
 0.97550003E+02  0.39184E-02
 0.97599998E+02  0.97436E-02
 0.97650002E+02  0.12055E-01
 0.97700005E+02  0.12604E-01
 0.97750000E+02  0.15145E-01
 0.97800003E+02  0.21784E-01
 0.97849998E+02  0.25261E-01
 0.97900002E+02  0.20634E-01
 0.97950005E+02  0.11968E-01
 0.98000000E+02 -0.31093E-04
 0.98050003E+02 -0.10536E-01
 0.98099998E+02 -0.14578E-01
 0.98150002E+02 -0.18151E-01
 0.98200005E+02 -0.24108E-01
 0.98250000E+02 -0.24362E-01
 0.98300003E+02 -0.17456E-01
 0.98349998E+02 -0.11528E-01
 0.98400002E+02 -0.78759E-02
 0.98450005E+02 -0.32874E-02
 0.98500000E+02  0.45006E-02
 0.98550003E+02  0.16292E-01
 0.98599998E+02  0.26712E-01
 0.98650002E+02  0.31063E-01
 0.98700005E+02  0.30279E-01
 0.98750000E+02  0.26188E-01
 0.98800003E+02  0.18691E-01
 0.98849998E+02  0.92243E-02
 0.98900002E+02  0.15197E-03
 0.98950005E+02 -0.96421E-02
 0.99000000E+02 -0.19402E-01
 0.99050003E+02 -0.22868E-01
 0.99099998E+02 -0.20324E-01
 0.99150002E+02 -0.19439E-01
 0.99200005E+02 -0.22605E-01
 0.99250000E+02 -0.27322E-01
 0.99300003E+02 -0.30731E-01
 0.99349998E+02 -0.29882E-01
 0.99400002E+02 -0.26523E-01
 0.99450005E+02 -0.21599E-01
 0.99500000E+02 -0.12391E-01
 0.99550003E+02 -0.70218E-02
 0.99599998E+02 -0.83160E-02
 0.99650002E+02 -0.82362E-02
 0.99700005E+02 -0.43869E-02
 0.99750000E+02  0.27590E-02
 0.99800003E+02  0.54895E-02
 0.99849998E+02  0.31126E-02
 0.99900002E+02  0.44411E-02
 0.99950005E+02  0.64197E-02
 0.10000000E+03  0.33519E-02
 0.10005000E+03 -0.13187E-02
 0.10010000E+03 -0.31095E-02
 0.10015000E+03 -0.14079E-02
 0.10020000E+03  0.20883E-02
 0.10025000E+03  0.35857E-02
 0.10030000E+03  0.20465E-02
 0.10035000E+03 -0.27270E-02
 0.10040000E+03 -0.88361E-02
 0.10045000E+03 -0.14140E-01
 0.10050000E+03 -0.15813E-01
 0.10055000E+03 -0.13444E-01
 0.10060000E+03 -0.85281E-02
 0.10065000E+03 -0.11130E-02
 0.10070000E+03  0.76483E-02
 0.10075000E+03  0.15101E-01
 0.10080000E+03  0.18046E-01
 0.10085000E+03  0.20739E-01
 0.10090000E+03  0.24824E-01
 0.10095000E+03  0.24992E-01
 0.10100000E+03  0.18914E-01
 0.10105000E+03  0.10422E-01
 0.10110000E+03  0.13641E-02
 0.10115000E+03 -0.98378E-02
 0.10120000E+03 -0.18109E-01
 0.10125000E+03 -0.17388E-01
 0.10130000E+03 -0.12086E-01
 0.10135000E+03 -0.68330E-02
 0.10140000E+03 -0.25000E-02
 0.10145000E+03  0.17499E-02
 0.10150000E+03  0.75183E-02
 0.10155000E+03  0.15015E-01
 0.10160000E+03  0.20793E-01
 0.10165000E+03  0.21269E-01
 0.10170000E+03  0.15863E-01
 0.10175000E+03  0.76706E-02
 0.10180000E+03  0.52472E-02
 0.10185000E+03  0.81979E-02
 0.10190000E+03  0.13064E-01
 0.10195000E+03  0.18662E-01
 0.10200000E+03  0.23291E-01
 0.10205000E+03  0.28355E-01
 0.10210000E+03  0.33804E-01
 0.10215000E+03  0.37727E-01
 0.10220000E+03  0.41038E-01
 0.10225000E+03  0.43148E-01
 0.10230000E+03  0.42063E-01
 0.10235000E+03  0.37638E-01
 0.10240000E+03  0.29552E-01
 0.10245000E+03  0.23377E-01
 0.10250000E+03  0.21415E-01
 0.10255000E+03  0.20031E-01
 0.10260000E+03  0.18406E-01
 0.10265000E+03  0.17292E-01
 0.10270000E+03  0.20703E-01
 0.10275000E+03  0.23483E-01
 0.10280000E+03  0.20127E-01
 0.10285000E+03  0.14778E-01
 0.10290000E+03  0.74704E-02
 0.10295000E+03 -0.13111E-02
 0.10300000E+03 -0.64166E-02
 0.10305000E+03 -0.10070E-01
 0.10310000E+03 -0.18351E-01
 0.10315000E+03 -0.28785E-01
 0.10320000E+03 -0.40208E-01
 0.10325000E+03 -0.48994E-01
 0.10330000E+03 -0.50036E-01
 0.10335000E+03 -0.45953E-01
 0.10340000E+03 -0.39940E-01
 0.10345000E+03 -0.33083E-01
 0.10350000E+03 -0.23534E-01
 0.10355000E+03 -0.15200E-01
 0.10360000E+03 -0.11996E-01
 0.10365000E+03 -0.10384E-01
 0.10370000E+03 -0.10034E-01
 0.10375000E+03 -0.10640E-01
 0.10380000E+03 -0.13592E-01
 0.10385000E+03 -0.18758E-01
 0.10390000E+03 -0.25271E-01
 0.10395000E+03 -0.35284E-01
 0.10400000E+03 -0.45655E-01
 0.10405000E+03 -0.52824E-01
 0.10410000E+03 -0.55154E-01
 0.10415000E+03 -0.53262E-01
 0.10420000E+03 -0.51333E-01
 0.10425000E+03 -0.48308E-01
 0.10430000E+03 -0.43039E-01
 0.10435000E+03 -0.39628E-01
 0.10440000E+03 -0.36518E-01
 0.10445000E+03 -0.32500E-01
 0.10450000E+03 -0.28965E-01
 0.10455000E+03 -0.27966E-01
 0.10460000E+03 -0.30533E-01
 0.10465000E+03 -0.33553E-01
 0.10470000E+03 -0.35175E-01
 0.10475000E+03 -0.31715E-01
 0.10480000E+03 -0.18801E-01
 0.10485000E+03 -0.41620E-03
 0.10490000E+03  0.16552E-01
 0.10495000E+03  0.30324E-01
 0.10500000E+03  0.38104E-01
 0.10505000E+03  0.45838E-01
 0.10510000E+03  0.55516E-01
 0.10515000E+03  0.59872E-01
 0.10520000E+03  0.61166E-01
 0.10525000E+03  0.63688E-01
 0.10530000E+03  0.66006E-01
 0.10535000E+03  0.65476E-01
 0.10540000E+03  0.64141E-01
 0.10545000E+03  0.61947E-01
 0.10550000E+03  0.56992E-01
 0.10555000E+03  0.48727E-01
 0.10560000E+03  0.38242E-01
 0.10565000E+03  0.31039E-01
 0.10570000E+03  0.28658E-01
 0.10575000E+03  0.27980E-01
 0.10580000E+03  0.31498E-01
 0.10585000E+03  0.35373E-01
 0.10590000E+03  0.34347E-01
 0.10595000E+03  0.30264E-01
 0.10600000E+03  0.23545E-01
 0.10605000E+03  0.15086E-01
 0.10610000E+03  0.55317E-02
 0.10615000E+03 -0.42810E-02
 0.10620000E+03 -0.13778E-01
 0.10625000E+03 -0.21495E-01
 0.10630000E+03 -0.25442E-01
 0.10635000E+03 -0.25246E-01
 0.10640000E+03 -0.22112E-01
 0.10645000E+03 -0.16469E-01
 0.10650000E+03 -0.86350E-02
 0.10655000E+03 -0.47111E-04
 0.10660000E+03  0.78657E-02
 0.10665000E+03  0.12954E-01
 0.10670000E+03  0.15161E-01
 0.10675000E+03  0.14430E-01
 0.10680000E+03  0.10608E-01
 0.10685000E+03  0.36036E-02
 0.10690000E+03 -0.62457E-02
 0.10695000E+03 -0.15707E-01
 0.10700000E+03 -0.21513E-01
 0.10705000E+03 -0.20211E-01
 0.10710000E+03 -0.13473E-01
 0.10715000E+03 -0.66495E-02
 0.10720000E+03 -0.18815E-02
 0.10725000E+03  0.60776E-03
 0.10730000E+03  0.15810E-02
 0.10735000E+03  0.76409E-03
 0.10740000E+03 -0.30263E-02
 0.10745000E+03 -0.99864E-02
 0.10750000E+03 -0.16891E-01
 0.10755000E+03 -0.21415E-01
 0.10760000E+03 -0.28273E-01
 0.10765000E+03 -0.37301E-01
 0.10770000E+03 -0.42375E-01
 0.10775000E+03 -0.38512E-01
 0.10780000E+03 -0.25258E-01
 0.10785000E+03 -0.11902E-01
 0.10790000E+03 -0.45127E-02
 0.10795000E+03 -0.17406E-02
 0.10800000E+03  0.39495E-03
 0.10805000E+03  0.20001E-02
 0.10810000E+03  0.13952E-02
 0.10815000E+03 -0.32303E-03
 0.10820000E+03 -0.34170E-02
 0.10825000E+03 -0.69799E-02
 0.10830000E+03 -0.99673E-02
 0.10835000E+03 -0.12032E-01
 0.10840000E+03 -0.14061E-01
 0.10845000E+03 -0.14665E-01
 0.10850000E+03 -0.11739E-01
 0.10855000E+03 -0.45479E-02
 0.10860000E+03  0.23291E-02
 0.10865000E+03  0.31807E-02
 0.10870000E+03  0.11498E-02
 0.10875000E+03  0.21059E-03
 0.10880000E+03  0.13515E-02
 0.10885000E+03  0.32241E-02
 0.10890000E+03  0.59557E-02
 0.10895000E+03  0.81804E-02
 0.10900000E+03  0.77456E-02
 0.10905000E+03  0.54832E-02
 0.10910000E+03  0.57573E-03
 0.10915000E+03 -0.69156E-02
 0.10920000E+03 -0.13972E-01
 0.10925000E+03 -0.17815E-01
 0.10930000E+03 -0.18911E-01
 0.10935000E+03 -0.17877E-01
 0.10940000E+03 -0.16152E-01
 0.10945000E+03 -0.14541E-01
 0.10950000E+03 -0.87313E-02
 0.10955000E+03  0.35249E-02
 0.10960000E+03  0.18238E-01
 0.10965000E+03  0.30218E-01
 0.10970000E+03  0.37714E-01
 0.10975000E+03  0.43012E-01
 0.10980000E+03  0.48232E-01
 0.10985000E+03  0.52297E-01
 0.10990000E+03  0.56715E-01
 0.10995000E+03  0.59587E-01
 0.11000000E+03  0.57298E-01
 0.11005000E+03  0.53689E-01
 0.11010000E+03  0.48610E-01
 0.11015000E+03  0.40632E-01
 0.11020000E+03  0.31627E-01
 0.11025000E+03  0.20826E-01
 0.11030000E+03  0.72602E-02
 0.11035000E+03 -0.66544E-02
 0.11040000E+03 -0.21311E-01
 0.11045000E+03 -0.35212E-01
 0.11050000E+03 -0.44368E-01
 0.11055000E+03 -0.49153E-01
 0.11060000E+03 -0.47916E-01
 0.11065000E+03 -0.41259E-01
 0.11070000E+03 -0.31941E-01
 0.11075000E+03 -0.22772E-01
 0.11080000E+03 -0.16805E-01
 0.11085000E+03 -0.13023E-01
 0.11090000E+03 -0.91132E-02
 0.11095000E+03 -0.55570E-02
 0.11100000E+03 -0.22898E-02
 0.11105000E+03 -0.33833E-03
 0.11110000E+03 -0.32643E-04
 0.11115000E+03  0.12494E-02
 0.11120000E+03  0.15111E-02
 0.11125000E+03 -0.18357E-02
 0.11130000E+03 -0.50094E-02
 0.11135000E+03 -0.39496E-02
 0.11140000E+03 -0.26204E-02
 0.11145000E+03 -0.57501E-02
 0.11150000E+03 -0.12300E-01
 0.11155000E+03 -0.17141E-01
 0.11160000E+03 -0.21711E-01
 0.11165000E+03 -0.29098E-01
 0.11170000E+03 -0.39278E-01
 0.11175000E+03 -0.50119E-01
 0.11180000E+03 -0.55764E-01
 0.11185000E+03 -0.56225E-01
 0.11190000E+03 -0.51674E-01
 0.11195000E+03 -0.44956E-01
 0.11200000E+03 -0.39152E-01
 0.11205000E+03 -0.33276E-01
 0.11210000E+03 -0.24848E-01
 0.11215000E+03 -0.14322E-01
 0.11220000E+03 -0.53167E-02
 0.11225000E+03  0.32159E-02
 0.11230000E+03  0.96039E-02
 0.11235000E+03  0.12119E-01
 0.11240000E+03  0.13489E-01
 0.11245000E+03  0.14314E-01
 0.11250000E+03  0.13389E-01
 0.11255000E+03  0.11894E-01
 0.11260000E+03  0.11523E-01
 0.11265000E+03  0.12602E-01
 0.11270000E+03  0.13609E-01
 0.11275000E+03  0.14439E-01
 0.11280000E+03  0.15371E-01
 0.11285000E+03  0.18028E-01
 0.11290000E+03  0.24986E-01
 0.11295000E+03  0.35860E-01
 0.11300000E+03  0.47888E-01
 0.11305000E+03  0.57899E-01
 0.11310000E+03  0.63868E-01
 0.11315000E+03  0.65181E-01
 0.11320000E+03  0.64206E-01
 0.11325000E+03  0.61006E-01
 0.11330000E+03  0.55010E-01
 0.11335000E+03  0.46639E-01
 0.11340000E+03  0.37852E-01
 0.11345000E+03  0.30067E-01
 0.11350000E+03  0.20964E-01
 0.11355000E+03  0.11235E-01
 0.11360000E+03  0.26016E-02
 0.11365000E+03 -0.46944E-02
 0.11370000E+03 -0.10661E-01
 0.11375000E+03 -0.14932E-01
 0.11380000E+03 -0.17098E-01
 0.11385000E+03 -0.18114E-01
 0.11390000E+03 -0.17276E-01
 0.11395000E+03 -0.14465E-01
 0.11400000E+03 -0.12465E-01
 0.11405000E+03 -0.10841E-01
 0.11410000E+03 -0.93389E-02
 0.11415000E+03 -0.10275E-01
 0.11420000E+03 -0.14098E-01
 0.11425000E+03 -0.19135E-01
 0.11430000E+03 -0.24083E-01
 0.11435000E+03 -0.29255E-01
 0.11440000E+03 -0.32462E-01
 0.11445000E+03 -0.33358E-01
 0.11450000E+03 -0.33456E-01
 0.11455000E+03 -0.32283E-01
 0.11460000E+03 -0.29831E-01
 0.11465000E+03 -0.27239E-01
 0.11470000E+03 -0.25577E-01
 0.11475000E+03 -0.26440E-01
 0.11480000E+03 -0.27875E-01
 0.11485000E+03 -0.26522E-01
 0.11490000E+03 -0.22231E-01
 0.11495000E+03 -0.17891E-01
 0.11500000E+03 -0.16144E-01
 0.11505000E+03 -0.14855E-01
 0.11510000E+03 -0.12311E-01
 0.11515000E+03 -0.93712E-02
 0.11520000E+03 -0.58788E-02
 0.11525000E+03 -0.49572E-02
 0.11530000E+03 -0.98193E-02
 0.11535000E+03 -0.14478E-01
 0.11540000E+03 -0.14321E-01
 0.11545000E+03 -0.10819E-01
 0.11550000E+03 -0.57036E-02
 0.11555000E+03  0.22710E-03
 0.11560000E+03  0.72912E-02
 0.11565000E+03  0.17034E-01
 0.11570000E+03  0.30577E-01
 0.11575000E+03  0.46035E-01
 0.11580000E+03  0.59943E-01
 0.11585000E+03  0.71419E-01
 0.11590000E+03  0.80142E-01
 0.11595000E+03  0.83793E-01
 0.11600000E+03  0.81437E-01
 0.11605000E+03  0.75619E-01
 0.11610000E+03  0.68884E-01
 0.11615000E+03  0.60975E-01
 0.11620000E+03  0.50740E-01
 0.11625000E+03  0.37325E-01
 0.11630000E+03  0.24415E-01
 0.11635000E+03  0.12180E-01
 0.11640000E+03 -0.26641E-02
 0.11645000E+03 -0.14886E-01
 0.11650000E+03 -0.21041E-01
 0.11655000E+03 -0.22343E-01
 0.11660000E+03 -0.19293E-01
 0.11665000E+03 -0.15667E-01
 0.11670000E+03 -0.15049E-01
 0.11675000E+03 -0.17013E-01
 0.11680000E+03 -0.20241E-01
 0.11685000E+03 -0.23305E-01
 0.11690000E+03 -0.25576E-01
 0.11695000E+03 -0.26431E-01
 0.11700000E+03 -0.27300E-01
 0.11705000E+03 -0.31349E-01
 0.11710000E+03 -0.38797E-01
 0.11715000E+03 -0.45901E-01
 0.11720000E+03 -0.50654E-01
 0.11725000E+03 -0.51214E-01
 0.11730000E+03 -0.46682E-01
 0.11735000E+03 -0.39722E-01
 0.11740000E+03 -0.31237E-01
 0.11745000E+03 -0.22643E-01
 0.11750000E+03 -0.15304E-01
 0.11755000E+03 -0.11138E-01
 0.11760000E+03 -0.10184E-01
 0.11765000E+03 -0.10114E-01
 0.11770000E+03 -0.76260E-02
 0.11775000E+03 -0.47795E-02
 0.11780000E+03 -0.30951E-02
 0.11785000E+03  0.18957E-03
 0.11790000E+03  0.42048E-02
 0.11795000E+03  0.67039E-02
 0.11800000E+03  0.73389E-02
 0.11805000E+03  0.79160E-02
 0.11810000E+03  0.75388E-02
 0.11815000E+03  0.80414E-02
 0.11820000E+03  0.10784E-01
 0.11825000E+03  0.15232E-01
 0.11830000E+03  0.20908E-01
 0.11835000E+03  0.26933E-01
 0.11840000E+03  0.33034E-01
 0.11845000E+03  0.36359E-01
 0.11850000E+03  0.37767E-01
 0.11855000E+03  0.42114E-01
 0.11860000E+03  0.48291E-01
 0.11865000E+03  0.51228E-01
 0.11870000E+03  0.51248E-01
 0.11875000E+03  0.50126E-01
 0.11880000E+03  0.46792E-01
 0.11885000E+03  0.40471E-01
 0.11890000E+03  0.32231E-01
 0.11895000E+03  0.25062E-01
 0.11900000E+03  0.19661E-01
 0.11905000E+03  0.14791E-01
 0.11910000E+03  0.10112E-01
 0.11915000E+03  0.59624E-02
 0.11920000E+03  0.22253E-02
 0.11925000E+03  0.64378E-04
 0.11930000E+03 -0.24407E-02
 0.11935000E+03 -0.61902E-02
 0.11940000E+03 -0.12131E-01
 0.11945000E+03 -0.18084E-01
 0.11950000E+03 -0.24832E-01
 0.11955000E+03 -0.33031E-01
 0.11960000E+03 -0.39735E-01
 0.11965000E+03 -0.44058E-01
 0.11970000E+03 -0.44707E-01
 0.11975000E+03 -0.44936E-01
 0.11980000E+03 -0.41633E-01
 0.11985000E+03 -0.40039E-01
 0.11990000E+03 -0.34649E-01
 0.11995000E+03 -0.34303E-01
 0.12000000E+03 -0.17020E-01
