 0.00000000E+00  0.60639E-02
 0.50000001E-01  0.11551E-01
 0.10000000E+00  0.11030E-01
 0.15000001E+00  0.10456E-01
 0.20000000E+00  0.10838E-01
 0.25000000E+00  0.89866E-02
 0.30000001E+00  0.92577E-02
 0.34999999E+00  0.10217E-01
 0.40000001E+00  0.74784E-02
 0.45000002E+00  0.73260E-02
 0.50000000E+00  0.63446E-02
 0.55000001E+00  0.38070E-02
 0.60000002E+00  0.28101E-02
 0.65000004E+00  0.12930E-02
 0.69999999E+00 -0.16169E-02
 0.75000000E+00 -0.33067E-02
 0.80000001E+00 -0.44592E-02
 0.85000002E+00 -0.64037E-02
 0.90000004E+00 -0.81553E-02
 0.94999999E+00 -0.95110E-02
 0.10000000E+01 -0.11256E-01
 0.10500001E+01 -0.11562E-01
 0.11000000E+01 -0.11923E-01
 0.11500000E+01 -0.12125E-01
 0.12000000E+01 -0.12374E-01
 0.12500000E+01 -0.13615E-01
 0.13000001E+01 -0.12509E-01
 0.13500000E+01 -0.12398E-01
 0.14000000E+01 -0.11394E-01
 0.14500000E+01 -0.99900E-02
 0.15000000E+01 -0.11222E-01
 0.15500001E+01 -0.88366E-02
 0.16000000E+01 -0.73178E-02
 0.16500000E+01 -0.72817E-02
 0.17000000E+01 -0.43215E-02
 0.17500000E+01 -0.46137E-02
 0.18000001E+01 -0.23181E-02
 0.18500000E+01 -0.40651E-03
 0.19000000E+01  0.12898E-02
 0.19500000E+01  0.40820E-02
 0.20000000E+01  0.65659E-02
 0.20500000E+01  0.71863E-02
 0.21000001E+01  0.85367E-02
 0.21500001E+01  0.10807E-01
 0.22000000E+01  0.11603E-01
 0.22500000E+01  0.13947E-01
 0.23000000E+01  0.15024E-01
 0.23500001E+01  0.15962E-01
 0.24000001E+01  0.16808E-01
 0.24500000E+01  0.17796E-01
 0.25000000E+01  0.17008E-01
 0.25500000E+01  0.19694E-01
 0.26000001E+01  0.19846E-01
 0.26500001E+01  0.18523E-01
 0.27000000E+01  0.19387E-01
 0.27500000E+01  0.16756E-01
 0.28000000E+01  0.15949E-01
 0.28500001E+01  0.14969E-01
 0.29000001E+01  0.12732E-01
 0.29500000E+01  0.11503E-01
 0.30000000E+01  0.98274E-02
 0.30500000E+01  0.75160E-02
 0.31000001E+01  0.52675E-02
 0.31500001E+01  0.34257E-02
 0.32000000E+01  0.11829E-02
 0.32500000E+01 -0.90099E-04
 0.33000000E+01 -0.23765E-02
 0.33500001E+01 -0.31144E-02
 0.34000001E+01 -0.50779E-02
 0.34500000E+01 -0.62569E-02
 0.35000000E+01 -0.65938E-02
 0.35500000E+01 -0.70281E-02
 0.36000001E+01 -0.77530E-02
 0.36500001E+01 -0.94329E-02
 0.37000000E+01 -0.82656E-02
 0.37500000E+01 -0.10221E-01
 0.38000000E+01 -0.10212E-01
 0.38500001E+01 -0.89241E-02
 0.39000001E+01 -0.98099E-02
 0.39500000E+01 -0.10674E-01
 0.40000000E+01 -0.10286E-01
 0.40500002E+01 -0.10415E-01
 0.40999999E+01 -0.11321E-01
 0.41500001E+01 -0.10795E-01
 0.42000003E+01 -0.10575E-01
 0.42500000E+01 -0.11702E-01
 0.43000002E+01 -0.11235E-01
 0.43499999E+01 -0.10169E-01
 0.44000001E+01 -0.10522E-01
 0.44500003E+01 -0.80833E-02
 0.45000000E+01 -0.87390E-02
 0.45500002E+01 -0.89498E-02
 0.45999999E+01 -0.53979E-02
 0.46500001E+01 -0.63587E-02
 0.47000003E+01 -0.58384E-02
 0.47500000E+01 -0.49900E-02
 0.48000002E+01 -0.42274E-02
 0.48499999E+01 -0.43916E-02
 0.49000001E+01 -0.21996E-02
 0.49500003E+01 -0.81441E-03
 0.50000000E+01 -0.19184E-02
 0.50500002E+01  0.10889E-02
 0.50999999E+01  0.14705E-02
 0.51500001E+01  0.26132E-02
 0.52000003E+01  0.40517E-02
 0.52500000E+01  0.57882E-02
 0.53000002E+01  0.63874E-02
 0.53499999E+01  0.73756E-02
 0.54000001E+01  0.85600E-02
 0.54500003E+01  0.93990E-02
 0.55000000E+01  0.10192E-01
 0.55500002E+01  0.10500E-01
 0.55999999E+01  0.11634E-01
 0.56500001E+01  0.12592E-01
 0.57000003E+01  0.13070E-01
 0.57500000E+01  0.12113E-01
 0.58000002E+01  0.14023E-01
 0.58499999E+01  0.13281E-01
 0.59000001E+01  0.12555E-01
 0.59500003E+01  0.13925E-01
 0.60000000E+01  0.12292E-01
 0.60500002E+01  0.11502E-01
 0.60999999E+01  0.13152E-01
 0.61500001E+01  0.11880E-01
 0.62000003E+01  0.10049E-01
 0.62500000E+01  0.11055E-01
 0.63000002E+01  0.96759E-02
 0.63499999E+01  0.61698E-02
 0.64000001E+01  0.65468E-02
 0.64500003E+01  0.57824E-02
 0.65000000E+01  0.19491E-02
 0.65500002E+01  0.27669E-02
 0.65999999E+01  0.19396E-02
 0.66500001E+01 -0.52948E-03
 0.67000003E+01 -0.13662E-02
 0.67500000E+01 -0.94484E-03
 0.68000002E+01 -0.32204E-02
 0.68499999E+01 -0.24807E-02
 0.69000001E+01 -0.71086E-03
 0.69500003E+01 -0.34022E-02
 0.70000000E+01 -0.20976E-02
 0.70500002E+01 -0.20955E-02
 0.70999999E+01 -0.17671E-02
 0.71500001E+01 -0.35475E-02
 0.72000003E+01 -0.21454E-02
 0.72500000E+01 -0.25438E-02
 0.73000002E+01 -0.45087E-02
 0.73499999E+01 -0.26364E-02
 0.74000001E+01 -0.34094E-02
 0.74500003E+01 -0.42471E-02
 0.75000000E+01 -0.32882E-02
 0.75500002E+01 -0.28544E-02
 0.75999999E+01 -0.57481E-02
 0.76500001E+01 -0.27178E-02
 0.77000003E+01 -0.28907E-02
 0.77500000E+01 -0.52102E-02
 0.78000002E+01 -0.32814E-02
 0.78499999E+01 -0.36929E-02
 0.79000001E+01 -0.60457E-02
 0.79500003E+01 -0.58040E-02
 0.80000000E+01 -0.58142E-02
 0.80500002E+01 -0.82839E-02
 0.81000004E+01 -0.62886E-02
 0.81500006E+01 -0.76064E-02
 0.81999998E+01 -0.77220E-02
 0.82500000E+01 -0.63189E-02
 0.83000002E+01 -0.69027E-02
 0.83500004E+01 -0.79162E-02
 0.84000006E+01 -0.87412E-02
 0.84499998E+01 -0.55297E-02
 0.85000000E+01 -0.74057E-02
 0.85500002E+01 -0.63479E-02
 0.86000004E+01 -0.44526E-02
 0.86500006E+01 -0.51334E-02
 0.86999998E+01 -0.55813E-02
 0.87500000E+01 -0.33109E-02
 0.88000002E+01 -0.28710E-02
 0.88500004E+01 -0.23823E-02
 0.89000006E+01 -0.15016E-03
 0.89499998E+01  0.16673E-03
 0.90000000E+01  0.13434E-02
 0.90500002E+01  0.28719E-02
 0.91000004E+01  0.38173E-02
 0.91500006E+01  0.40059E-02
 0.91999998E+01  0.52719E-02
 0.92500000E+01  0.68291E-02
 0.93000002E+01  0.80608E-02
 0.93500004E+01  0.85805E-02
 0.94000006E+01  0.10474E-01
 0.94499998E+01  0.93503E-02
 0.95000000E+01  0.93992E-02
 0.95500002E+01  0.10062E-01
 0.96000004E+01  0.10212E-01
 0.96500006E+01  0.10098E-01
 0.96999998E+01  0.98937E-02
 0.97500000E+01  0.84347E-02
 0.98000002E+01  0.79556E-02
 0.98500004E+01  0.72162E-02
 0.99000006E+01  0.75519E-02
 0.99499998E+01  0.53769E-02
 0.10000000E+02  0.58143E-02
 0.10050000E+02  0.74591E-02
 0.10100000E+02  0.41681E-02
 0.10150001E+02  0.47295E-02
 0.10200000E+02  0.58918E-02
 0.10250000E+02  0.37859E-02
 0.10300000E+02  0.31124E-02
 0.10350000E+02  0.52002E-02
 0.10400001E+02  0.33203E-02
 0.10450000E+02  0.36356E-02
 0.10500000E+02  0.37451E-02
 0.10550000E+02  0.28040E-02
 0.10600000E+02  0.30105E-02
 0.10650001E+02  0.15515E-02
 0.10700000E+02  0.19210E-02
 0.10750000E+02  0.21772E-02
 0.10800000E+02  0.12703E-02
 0.10850000E+02  0.23735E-02
 0.10900001E+02  0.51011E-03
 0.10950000E+02 -0.26665E-03
 0.11000000E+02 -0.61024E-03
 0.11050000E+02 -0.94253E-03
 0.11100000E+02 -0.20264E-02
 0.11150001E+02 -0.37428E-02
 0.11200000E+02 -0.34780E-02
 0.11250000E+02 -0.47900E-02
 0.11300000E+02 -0.65310E-02
 0.11350000E+02 -0.56979E-02
 0.11400001E+02 -0.45869E-02
 0.11450000E+02 -0.59712E-02
 0.11500000E+02 -0.65264E-02
 0.11550000E+02 -0.42600E-02
 0.11600000E+02 -0.43322E-02
 0.11650001E+02 -0.64274E-02
 0.11700000E+02 -0.27871E-02
 0.11750000E+02 -0.31419E-02
 0.11800000E+02 -0.35707E-02
 0.11850000E+02 -0.66131E-03
 0.11900001E+02 -0.19753E-02
 0.11950000E+02 -0.11179E-02
 0.12000000E+02  0.65305E-04
 0.12050000E+02 -0.31966E-03
 0.12100000E+02 -0.73516E-03
 0.12150001E+02  0.42214E-03
 0.12200000E+02  0.37139E-03
 0.12250000E+02 -0.36056E-03
 0.12300000E+02 -0.14461E-02
 0.12350000E+02 -0.17292E-02
 0.12400001E+02 -0.86412E-03
 0.12450000E+02 -0.36409E-02
 0.12500000E+02 -0.14040E-02
 0.12550000E+02 -0.34079E-02
 0.12600000E+02 -0.35984E-02
 0.12650001E+02 -0.29698E-02
 0.12700000E+02 -0.39665E-02
 0.12750000E+02 -0.37810E-02
 0.12800000E+02 -0.35566E-02
 0.12850000E+02 -0.28694E-02
 0.12900001E+02 -0.51994E-02
 0.12950000E+02 -0.26898E-02
 0.13000000E+02 -0.27151E-02
 0.13050000E+02 -0.23217E-02
 0.13100000E+02 -0.92812E-03
 0.13150001E+02 -0.46923E-04
 0.13200000E+02 -0.16974E-03
 0.13250000E+02  0.21241E-02
 0.13300000E+02  0.28134E-02
 0.13350000E+02  0.21355E-02
 0.13400001E+02  0.43181E-02
 0.13450000E+02  0.43102E-02
 0.13500000E+02  0.49692E-02
 0.13550000E+02  0.62786E-02
 0.13600000E+02  0.73298E-02
 0.13650001E+02  0.75486E-02
 0.13700000E+02  0.97668E-02
 0.13750000E+02  0.99010E-02
 0.13800000E+02  0.11568E-01
 0.13850000E+02  0.12110E-01
 0.13900001E+02  0.11812E-01
 0.13950000E+02  0.12681E-01
 0.14000000E+02  0.12026E-01
 0.14050000E+02  0.13336E-01
 0.14100000E+02  0.11014E-01
 0.14150001E+02  0.10245E-01
 0.14200000E+02  0.99149E-02
 0.14250000E+02  0.84691E-02
 0.14300000E+02  0.74499E-02
 0.14350000E+02  0.71141E-02
 0.14400001E+02  0.59757E-02
 0.14450000E+02  0.33586E-02
 0.14500000E+02  0.36316E-02
 0.14550000E+02  0.36427E-03
 0.14600000E+02 -0.85012E-03
 0.14650001E+02 -0.10615E-02
 0.14700000E+02 -0.26016E-02
 0.14750000E+02 -0.25272E-02
 0.14800000E+02 -0.33204E-02
 0.14850000E+02 -0.37440E-02
 0.14900001E+02 -0.41344E-02
 0.14950000E+02 -0.39548E-02
 0.15000000E+02 -0.45522E-02
 0.15050000E+02 -0.20634E-02
 0.15100000E+02 -0.22538E-02
 0.15150001E+02 -0.16420E-02
 0.15200000E+02 -0.14142E-02
 0.15250000E+02 -0.23503E-02
 0.15300000E+02 -0.16384E-02
 0.15350000E+02 -0.24720E-02
 0.15400001E+02 -0.95586E-03
 0.15450000E+02 -0.40953E-02
 0.15500000E+02 -0.38429E-02
 0.15550000E+02 -0.46437E-02
 0.15600000E+02 -0.71684E-02
 0.15650001E+02 -0.74631E-02
 0.15700000E+02 -0.89659E-02
 0.15750000E+02 -0.81216E-02
 0.15800000E+02 -0.10759E-01
 0.15850000E+02 -0.10196E-01
 0.15900001E+02 -0.99599E-02
 0.15950000E+02 -0.10328E-01
 0.16000000E+02 -0.90876E-02
 0.16050001E+02 -0.83966E-02
 0.16100000E+02 -0.83038E-02
 0.16150000E+02 -0.66923E-02
 0.16200001E+02 -0.46036E-02
 0.16250000E+02 -0.65893E-02
 0.16300001E+02 -0.31950E-02
 0.16350000E+02 -0.11301E-02
 0.16400000E+02 -0.11569E-02
 0.16450001E+02  0.37179E-03
 0.16500000E+02  0.21676E-02
 0.16550001E+02  0.33709E-02
 0.16600000E+02  0.25991E-02
 0.16650000E+02  0.51254E-02
 0.16700001E+02  0.51187E-02
 0.16750000E+02  0.49843E-02
 0.16800001E+02  0.76898E-02
 0.16850000E+02  0.60095E-02
 0.16900000E+02  0.77506E-02
 0.16950001E+02  0.86349E-02
 0.17000000E+02  0.81646E-02
 0.17050001E+02  0.92299E-02
 0.17100000E+02  0.80433E-02
 0.17150000E+02  0.79667E-02
 0.17200001E+02  0.69620E-02
 0.17250000E+02  0.78292E-02
 0.17300001E+02  0.65132E-02
 0.17350000E+02  0.51278E-02
 0.17400000E+02  0.60956E-02
 0.17450001E+02  0.41626E-02
 0.17500000E+02  0.36969E-02
 0.17550001E+02  0.37164E-02
 0.17600000E+02  0.26758E-02
 0.17650000E+02  0.22116E-02
 0.17700001E+02  0.15354E-02
 0.17750000E+02  0.12849E-02
 0.17800001E+02  0.35839E-03
 0.17850000E+02  0.28643E-03
 0.17900000E+02  0.10458E-02
 0.17950001E+02 -0.18260E-02
 0.18000000E+02  0.48286E-03
 0.18050001E+02  0.83965E-03
 0.18100000E+02 -0.19680E-02
 0.18150000E+02  0.92406E-04
 0.18200001E+02 -0.32327E-03
 0.18250000E+02  0.48829E-03
 0.18300001E+02  0.50084E-03
 0.18350000E+02  0.38054E-02
 0.18400000E+02  0.13886E-02
 0.18450001E+02  0.25714E-02
 0.18500000E+02  0.49085E-02
 0.18550001E+02  0.26087E-02
 0.18600000E+02  0.43732E-02
 0.18650000E+02  0.39282E-02
 0.18700001E+02  0.39946E-02
 0.18750000E+02  0.25898E-02
 0.18800001E+02  0.45994E-02
 0.18850000E+02  0.23068E-02
 0.18900000E+02  0.21479E-02
 0.18950001E+02  0.14877E-02
 0.19000000E+02  0.78669E-03
 0.19050001E+02 -0.56449E-03
 0.19100000E+02 -0.12605E-02
 0.19150000E+02 -0.92184E-03
 0.19200001E+02 -0.43225E-02
 0.19250000E+02 -0.28994E-02
 0.19300001E+02 -0.40374E-02
 0.19350000E+02 -0.52851E-02
 0.19400000E+02 -0.51801E-02
 0.19450001E+02 -0.56617E-02
 0.19500000E+02 -0.68557E-02
 0.19550001E+02 -0.62595E-02
 0.19600000E+02 -0.65349E-02
 0.19650000E+02 -0.66203E-02
 0.19700001E+02 -0.62864E-02
 0.19750000E+02 -0.64470E-02
 0.19800001E+02 -0.62295E-02
 0.19850000E+02 -0.68455E-02
 0.19900000E+02 -0.49893E-02
 0.19950001E+02 -0.65558E-02
 0.20000000E+02 -0.39487E-02
 0.20050001E+02 -0.42295E-02
 0.20100000E+02 -0.44911E-02
 0.20150000E+02 -0.12231E-02
 0.20200001E+02 -0.44526E-02
 0.20250000E+02 -0.54753E-03
 0.20300001E+02 -0.19178E-03
 0.20350000E+02  0.63214E-03
 0.20400000E+02  0.18740E-02
 0.20450001E+02  0.20449E-02
 0.20500000E+02  0.36552E-02
 0.20550001E+02  0.30746E-02
 0.20600000E+02  0.58263E-02
 0.20650000E+02  0.56492E-02
 0.20700001E+02  0.60717E-02
 0.20750000E+02  0.72575E-02
 0.20800001E+02  0.80831E-02
 0.20850000E+02  0.72045E-02
 0.20900000E+02  0.77048E-02
 0.20950001E+02  0.84676E-02
 0.21000000E+02  0.73724E-02
 0.21050001E+02  0.76580E-02
 0.21100000E+02  0.74093E-02
 0.21150000E+02  0.64084E-02
 0.21200001E+02  0.51826E-02
 0.21250000E+02  0.61883E-02
 0.21300001E+02  0.39930E-02
 0.21350000E+02  0.53335E-02
 0.21400000E+02  0.17683E-02
 0.21450001E+02  0.20719E-02
 0.21500000E+02  0.39454E-02
 0.21550001E+02  0.83433E-03
 0.21600000E+02  0.28135E-02
 0.21650000E+02  0.13553E-02
 0.21700001E+02  0.21950E-02
 0.21750000E+02  0.27280E-02
 0.21800001E+02  0.26185E-02
 0.21850000E+02  0.27212E-02
 0.21900000E+02  0.25126E-02
 0.21950001E+02  0.12327E-02
 0.22000000E+02 -0.94843E-03
 0.22050001E+02  0.39955E-03
 0.22100000E+02 -0.36744E-03
 0.22150000E+02 -0.28605E-02
 0.22200001E+02 -0.15592E-02
 0.22250000E+02 -0.43634E-02
 0.22300001E+02 -0.36754E-02
 0.22350000E+02 -0.46906E-02
 0.22400000E+02 -0.27651E-02
 0.22450001E+02 -0.30345E-02
 0.22500000E+02 -0.38892E-02
 0.22550001E+02 -0.48809E-02
 0.22600000E+02 -0.27385E-02
 0.22650000E+02 -0.66413E-03
 0.22700001E+02 -0.31424E-02
 0.22750000E+02 -0.16708E-02
 0.22800001E+02 -0.29375E-02
 0.22850000E+02 -0.22962E-02
 0.22900000E+02 -0.16608E-02
 0.22950001E+02  0.67011E-03
 0.23000000E+02 -0.19041E-02
 0.23050001E+02  0.10990E-02
 0.23100000E+02 -0.16192E-02
 0.23150000E+02 -0.32889E-02
 0.23200001E+02  0.15873E-02
 0.23250000E+02 -0.47810E-03
 0.23300001E+02  0.21147E-03
 0.23350000E+02  0.12901E-02
 0.23400000E+02 -0.94353E-03
 0.23450001E+02 -0.13162E-02
 0.23500000E+02  0.16271E-03
 0.23550001E+02 -0.38625E-03
 0.23600000E+02 -0.10415E-02
 0.23650000E+02 -0.32076E-03
 0.23700001E+02 -0.46711E-03
 0.23750000E+02 -0.41189E-02
 0.23800001E+02 -0.35709E-02
 0.23850000E+02 -0.28591E-02
 0.23900000E+02 -0.32072E-02
 0.23950001E+02 -0.37929E-02
 0.24000000E+02 -0.26672E-02
 0.24050001E+02 -0.29563E-02
 0.24100000E+02 -0.42963E-02
 0.24150000E+02 -0.21132E-02
 0.24200001E+02 -0.24729E-02
 0.24250000E+02 -0.19119E-02
 0.24300001E+02  0.12706E-03
 0.24350000E+02  0.94353E-03
 0.24400000E+02  0.35306E-03
 0.24450001E+02  0.26118E-02
 0.24500000E+02  0.24521E-02
 0.24550001E+02  0.11818E-02
 0.24600000E+02  0.40473E-02
 0.24650000E+02  0.49760E-02
 0.24700001E+02  0.53938E-02
 0.24750000E+02  0.47130E-02
 0.24800001E+02  0.66046E-02
 0.24850000E+02  0.63226E-02
 0.24900000E+02  0.53514E-02
 0.24950001E+02  0.75641E-02
 0.25000000E+02  0.82891E-02
 0.25050001E+02  0.76498E-02
 0.25100000E+02  0.81237E-02
 0.25150000E+02  0.87080E-02
 0.25200001E+02  0.57764E-02
 0.25250000E+02  0.76511E-02
 0.25300001E+02  0.71184E-02
 0.25350000E+02  0.56037E-02
 0.25400000E+02  0.57095E-02
 0.25450001E+02  0.58252E-02
 0.25500000E+02  0.53448E-02
 0.25550001E+02  0.28037E-02
 0.25600000E+02  0.46762E-02
 0.25650000E+02  0.32504E-02
 0.25700001E+02  0.26055E-02
 0.25750000E+02  0.43409E-02
 0.25800001E+02  0.25836E-02
 0.25850000E+02  0.27178E-02
 0.25900000E+02  0.99926E-03
 0.25950001E+02  0.27794E-02
 0.26000000E+02  0.22541E-03
 0.26050001E+02  0.10304E-02
 0.26100000E+02  0.29118E-02
 0.26150000E+02 -0.63969E-03
 0.26200001E+02  0.44392E-03
 0.26250000E+02  0.21499E-03
 0.26300001E+02  0.55776E-03
 0.26350000E+02 -0.12531E-02
 0.26400000E+02 -0.70659E-04
 0.26450001E+02  0.43897E-03
 0.26500000E+02 -0.18227E-02
 0.26550001E+02 -0.67535E-03
 0.26600000E+02 -0.11777E-02
 0.26650000E+02 -0.31351E-02
 0.26700001E+02 -0.26458E-02
 0.26750000E+02 -0.30480E-02
 0.26800001E+02 -0.45404E-02
 0.26850000E+02 -0.50802E-02
 0.26900000E+02 -0.55600E-02
 0.26950001E+02 -0.71491E-02
 0.27000000E+02 -0.82497E-02
 0.27050001E+02 -0.76356E-02
 0.27100000E+02 -0.94173E-02
 0.27150000E+02 -0.99411E-02
 0.27200001E+02 -0.10361E-01
 0.27250000E+02 -0.97938E-02
 0.27300001E+02 -0.10972E-01
 0.27350000E+02 -0.11727E-01
 0.27400000E+02 -0.94939E-02
 0.27450001E+02 -0.11254E-01
 0.27500000E+02 -0.96558E-02
 0.27550001E+02 -0.88641E-02
 0.27600000E+02 -0.80240E-02
 0.27650000E+02 -0.85179E-02
 0.27700001E+02 -0.69136E-02
 0.27750000E+02 -0.67459E-02
 0.27800001E+02 -0.77066E-02
 0.27850000E+02 -0.44319E-02
 0.27900000E+02 -0.48959E-02
 0.27950001E+02 -0.48296E-02
 0.28000000E+02 -0.35391E-02
 0.28050001E+02 -0.23011E-02
 0.28100000E+02 -0.14073E-02
 0.28150000E+02 -0.33771E-03
 0.28200001E+02  0.86653E-03
 0.28250000E+02  0.10839E-02
 0.28300001E+02  0.80334E-03
 0.28350000E+02  0.37537E-02
 0.28400000E+02  0.28082E-02
 0.28450001E+02  0.41532E-02
 0.28500000E+02  0.73180E-02
 0.28550001E+02  0.55943E-02
 0.28600000E+02  0.86447E-02
 0.28650000E+02  0.99563E-02
 0.28700001E+02  0.10208E-01
 0.28750000E+02  0.94232E-02
 0.28800001E+02  0.12546E-01
 0.28850000E+02  0.12609E-01
 0.28900000E+02  0.11749E-01
 0.28950001E+02  0.15277E-01
 0.29000000E+02  0.14440E-01
 0.29050001E+02  0.13509E-01
 0.29100000E+02  0.14337E-01
 0.29150000E+02  0.15356E-01
 0.29200001E+02  0.13635E-01
 0.29250000E+02  0.17040E-01
 0.29300001E+02  0.14874E-01
 0.29350000E+02  0.14173E-01
 0.29400000E+02  0.14223E-01
 0.29450001E+02  0.12800E-01
 0.29500000E+02  0.11549E-01
 0.29550001E+02  0.10792E-01
 0.29600000E+02  0.11062E-01
 0.29650000E+02  0.69210E-02
 0.29700001E+02  0.77327E-02
 0.29750000E+02  0.46007E-02
 0.29800001E+02  0.45945E-02
 0.29850000E+02  0.27424E-02
 0.29900000E+02  0.19064E-02
 0.29950001E+02  0.13648E-02
 0.30000000E+02 -0.15529E-02
 0.30050001E+02 -0.83640E-03
 0.30100000E+02 -0.19310E-02
 0.30150000E+02 -0.34835E-02
 0.30200001E+02 -0.40797E-02
 0.30250000E+02 -0.36420E-02
 0.30300001E+02 -0.59140E-02
 0.30350000E+02 -0.52963E-02
 0.30400000E+02 -0.66860E-02
 0.30450001E+02 -0.64316E-02
 0.30500000E+02 -0.80087E-02
 0.30550001E+02 -0.88959E-02
 0.30600000E+02 -0.84604E-02
 0.30650000E+02 -0.11671E-01
 0.30700001E+02 -0.98411E-02
 0.30750000E+02 -0.11126E-01
 0.30800001E+02 -0.10885E-01
 0.30850000E+02 -0.10876E-01
 0.30900000E+02 -0.86117E-02
 0.30950001E+02 -0.77896E-02
 0.31000000E+02 -0.58383E-02
 0.31050001E+02 -0.22824E-02
 0.31100000E+02 -0.12479E-02
 0.31150000E+02  0.19514E-02
 0.31200001E+02  0.20815E-02
 0.31250000E+02  0.19181E-02
 0.31300001E+02  0.17611E-02
 0.31350000E+02  0.76345E-03
 0.31400000E+02 -0.99212E-03
 0.31450001E+02 -0.30312E-02
 0.31500000E+02 -0.47788E-02
 0.31550001E+02 -0.33312E-02
 0.31600000E+02 -0.20026E-02
 0.31650000E+02 -0.23818E-02
 0.31700001E+02 -0.40435E-02
 0.31750000E+02 -0.75977E-02
 0.31800001E+02 -0.62492E-02
 0.31850000E+02 -0.15549E-02
 0.31900000E+02 -0.41644E-03
 0.31950001E+02 -0.23974E-02
 0.32000000E+02  0.41508E-02
 0.32049999E+02  0.13274E-01
 0.32100002E+02  0.20322E-01
 0.32150002E+02  0.24661E-01
 0.32200001E+02  0.23525E-01
 0.32250000E+02  0.23153E-01
 0.32299999E+02  0.26710E-01
 0.32350002E+02  0.28059E-01
 0.32400002E+02  0.21653E-01
 0.32450001E+02  0.17747E-01
 0.32500000E+02  0.71989E-02
 0.32549999E+02  0.18770E-02
 0.32600002E+02  0.27011E-02
 0.32650002E+02 -0.27861E-02
 0.32700001E+02 -0.54095E-02
 0.32750000E+02 -0.16712E-02
 0.32799999E+02  0.35068E-02
 0.32850002E+02  0.83436E-02
 0.32900002E+02  0.94225E-02
 0.32950001E+02  0.12043E-01
 0.33000000E+02  0.34788E-02
 0.33049999E+02  0.26808E-01
 0.33100002E+02  0.33132E-01
 0.33150002E+02  0.30686E-01
 0.33200001E+02  0.46255E-01
 0.33250000E+02  0.55566E-01
 0.33299999E+02  0.63749E-01
 0.33350002E+02  0.67205E-01
 0.33400002E+02  0.53369E-01
 0.33450001E+02  0.25151E-01
 0.33500000E+02  0.28147E-01
 0.33549999E+02  0.28046E-01
 0.33600002E+02  0.52607E-01
 0.33650002E+02  0.43504E-01
 0.33700001E+02  0.41752E-01
 0.33750000E+02  0.38389E-01
 0.33799999E+02  0.48270E-01
 0.33850002E+02  0.49213E-01
 0.33900002E+02  0.25969E-01
 0.33950001E+02  0.12832E-02
 0.34000000E+02 -0.52260E-01
 0.34049999E+02 -0.50645E-01
 0.34100002E+02 -0.21963E-01
 0.34150002E+02  0.35427E-03
 0.34200001E+02  0.27525E-02
 0.34250000E+02 -0.71569E-01
 0.34299999E+02 -0.19155E-01
 0.34350002E+02  0.24237E-01
 0.34400002E+02 -0.26298E-01
 0.34450001E+02 -0.84079E-02
 0.34500000E+02 -0.51638E-01
 0.34549999E+02 -0.93712E-01
 0.34600002E+02  0.24974E-01
 0.34650002E+02  0.18266E+00
 0.34700001E+02  0.56723E-01
 0.34750000E+02 -0.28109E-01
 0.34799999E+02 -0.28702E-01
 0.34850002E+02 -0.39442E-01
 0.34900002E+02 -0.66554E-01
 0.34950001E+02 -0.82998E-01
 0.35000000E+02 -0.25798E+00
 0.35049999E+02 -0.32184E+00
 0.35100002E+02 -0.11318E+00
 0.35150002E+02 -0.78815E-01
 0.35200001E+02 -0.29214E+00
 0.35250000E+02 -0.20990E+00
 0.35299999E+02 -0.18570E-01
 0.35350002E+02 -0.14210E+00
 0.35400002E+02 -0.35305E-01
 0.35450001E+02 -0.13944E+00
 0.35500000E+02 -0.14676E+00
 0.35549999E+02  0.69388E-01
 0.35600002E+02  0.11288E+00
 0.35650002E+02  0.50128E-01
 0.35700001E+02 -0.83105E-01
 0.35750000E+02 -0.48165E-01
 0.35799999E+02 -0.63206E-01
 0.35850002E+02 -0.17230E-01
 0.35900002E+02 -0.46240E-01
 0.35950001E+02  0.13422E-01
 0.36000000E+02  0.14947E+00
 0.36049999E+02  0.74385E-01
 0.36100002E+02  0.49840E-01
 0.36150002E+02 -0.53720E-02
 0.36200001E+02  0.90633E-02
 0.36250000E+02  0.73067E-01
 0.36299999E+02  0.64454E-01
 0.36350002E+02 -0.15020E-01
 0.36400002E+02 -0.95406E-01
 0.36450001E+02 -0.43642E-01
 0.36500000E+02  0.11345E+00
 0.36549999E+02  0.59652E-01
 0.36600002E+02  0.13551E-02
 0.36650002E+02  0.93990E-01
 0.36700001E+02  0.21898E+00
 0.36750000E+02  0.16815E+00
 0.36799999E+02  0.86410E-01
 0.36850002E+02  0.21043E+00
 0.36900002E+02  0.26872E+00
 0.36950001E+02  0.17935E+00
 0.37000000E+02  0.55786E-01
 0.37049999E+02 -0.29516E-01
 0.37100002E+02 -0.74154E-01
 0.37150002E+02  0.75486E-01
 0.37200001E+02  0.10196E-03
 0.37250000E+02 -0.65025E-01
 0.37299999E+02 -0.11351E+00
 0.37350002E+02 -0.10912E+00
 0.37400002E+02  0.38708E-01
 0.37450001E+02  0.29730E-01
 0.37500000E+02  0.26833E+00
 0.37549999E+02  0.30425E+00
 0.37600002E+02  0.14724E+00
 0.37650002E+02  0.20089E+00
 0.37700001E+02  0.11141E+00
 0.37750000E+02  0.52141E-01
 0.37799999E+02  0.42144E-02
 0.37850002E+02 -0.66658E-01
 0.37900002E+02 -0.32130E-01
 0.37950001E+02 -0.11413E+00
 0.38000000E+02 -0.82019E-01
 0.38049999E+02 -0.19398E+00
 0.38100002E+02 -0.23868E+00
 0.38150002E+02 -0.16463E+00
 0.38200001E+02 -0.12420E+00
 0.38250000E+02 -0.13665E+00
 0.38299999E+02 -0.15069E+00
 0.38350002E+02 -0.48664E-01
 0.38400002E+02  0.11779E-01
 0.38450001E+02  0.24792E+00
 0.38500000E+02  0.33929E+00
 0.38549999E+02  0.22893E+00
 0.38600002E+02  0.15016E+00
 0.38650002E+02 -0.12907E+00
 0.38700001E+02 -0.21798E+00
 0.38750000E+02 -0.10057E+00
 0.38799999E+02 -0.80556E-01
 0.38850002E+02  0.92691E-01
 0.38900002E+02  0.12623E+00
 0.38950001E+02  0.74486E-01
 0.39000000E+02  0.46594E-01
 0.39049999E+02 -0.78239E-01
 0.39100002E+02 -0.19861E+00
 0.39150002E+02 -0.27518E+00
 0.39200001E+02 -0.35036E+00
 0.39250000E+02 -0.31230E+00
 0.39299999E+02 -0.17637E+00
 0.39350002E+02 -0.11763E+00
 0.39400002E+02 -0.83758E-01
 0.39450001E+02  0.30525E-01
 0.39500000E+02  0.12030E+00
 0.39549999E+02  0.28951E+00
 0.39600002E+02  0.29486E+00
 0.39650002E+02  0.10955E+00
 0.39700001E+02  0.96932E-01
 0.39750000E+02  0.15010E+00
 0.39799999E+02  0.80661E-01
 0.39850002E+02 -0.13930E-01
 0.39900002E+02  0.11318E-01
 0.39950001E+02  0.16090E+00
 0.40000000E+02  0.14825E+00
 0.40049999E+02  0.25604E-01
 0.40100002E+02 -0.36942E-01
 0.40150002E+02 -0.12734E+00
 0.40200001E+02 -0.14022E+00
 0.40250000E+02  0.74437E-01
 0.40299999E+02  0.21547E+00
 0.40350002E+02  0.61568E-01
 0.40400002E+02  0.41832E-02
 0.40450001E+02 -0.14655E+00
 0.40500000E+02 -0.99460E-01
 0.40549999E+02  0.75208E-01
 0.40600002E+02  0.16778E-01
 0.40650002E+02 -0.10379E+00
 0.40700001E+02 -0.30433E-01
 0.40750000E+02  0.23832E-01
 0.40799999E+02  0.63324E-02
 0.40850002E+02  0.11413E+00
 0.40900002E+02  0.27806E-01
 0.40950001E+02 -0.12567E+00
 0.41000000E+02 -0.50943E-01
 0.41049999E+02 -0.47247E-01
 0.41100002E+02 -0.38892E+00
 0.41150002E+02 -0.48408E+00
 0.41200001E+02 -0.32943E+00
 0.41250000E+02 -0.17479E+00
 0.41299999E+02 -0.99797E-01
 0.41350002E+02 -0.99156E-01
 0.41400002E+02 -0.13428E+00
 0.41450001E+02 -0.26966E+00
 0.41500000E+02 -0.28908E+00
 0.41549999E+02 -0.31192E+00
 0.41600002E+02 -0.48520E+00
 0.41650002E+02 -0.52329E+00
 0.41700001E+02 -0.38783E+00
 0.41750000E+02 -0.35021E+00
 0.41799999E+02 -0.28091E+00
 0.41850002E+02 -0.19993E+00
 0.41900002E+02 -0.23671E+00
 0.41950001E+02 -0.16033E+00
 0.42000000E+02  0.50191E-01
 0.42049999E+02  0.33127E-01
 0.42100002E+02  0.27212E-01
 0.42150002E+02  0.22053E+00
 0.42200001E+02  0.47787E+00
 0.42250000E+02  0.74209E+00
 0.42299999E+02  0.92185E+00
 0.42350002E+02  0.10000E+01
 0.42400002E+02  0.80908E+00
 0.42450001E+02  0.63633E+00
 0.42500000E+02  0.49998E+00
 0.42549999E+02  0.32075E+00
 0.42600002E+02  0.22684E+00
 0.42650002E+02  0.18414E+00
 0.42700001E+02  0.42054E-01
 0.42750000E+02 -0.91576E-01
 0.42799999E+02 -0.13907E+00
 0.42850002E+02 -0.31913E+00
 0.42900002E+02 -0.42161E+00
 0.42950001E+02 -0.32858E+00
 0.43000000E+02 -0.29498E+00
 0.43049999E+02 -0.24281E+00
 0.43100002E+02 -0.85180E-01
 0.43150002E+02  0.30702E-01
 0.43200001E+02  0.48516E-01
 0.43250000E+02  0.18325E-01
 0.43299999E+02 -0.40211E-01
 0.43350002E+02  0.26207E-02
 0.43400002E+02  0.89975E-01
 0.43450001E+02 -0.13526E+00
 0.43500000E+02 -0.20564E+00
 0.43549999E+02 -0.19700E+00
 0.43600002E+02 -0.44913E+00
 0.43650002E+02 -0.36487E+00
 0.43700001E+02 -0.57526E-01
 0.43750000E+02  0.32196E-01
 0.43799999E+02  0.20322E-01
 0.43850002E+02 -0.88131E-01
 0.43900002E+02 -0.20372E+00
 0.43950001E+02 -0.24592E+00
 0.44000000E+02 -0.52713E-01
 0.44049999E+02  0.27849E-02
 0.44100002E+02  0.47781E-01
 0.44150002E+02  0.20608E+00
 0.44200001E+02  0.80326E-01
 0.44250000E+02  0.17751E+00
 0.44299999E+02  0.29701E+00
 0.44350002E+02  0.18706E+00
 0.44400002E+02  0.10066E+00
 0.44450001E+02  0.10499E+00
 0.44500000E+02  0.48344E-01
 0.44549999E+02 -0.42298E-01
 0.44600002E+02 -0.29232E-01
 0.44650002E+02 -0.31137E-01
 0.44700001E+02  0.36228E-01
 0.44750000E+02  0.19911E+00
 0.44799999E+02  0.19561E+00
 0.44850002E+02  0.13593E+00
 0.44900002E+02  0.14521E+00
 0.44950001E+02  0.10067E+00
 0.45000000E+02  0.11550E+00
 0.45049999E+02  0.12728E+00
 0.45100002E+02  0.90694E-01
 0.45150002E+02  0.64949E-01
 0.45200001E+02  0.25802E-03
 0.45250000E+02  0.63231E-01
 0.45299999E+02  0.21930E+00
 0.45350002E+02  0.22444E+00
 0.45400002E+02  0.16438E+00
 0.45450001E+02  0.13382E+00
 0.45500000E+02  0.97758E-01
 0.45549999E+02  0.17847E+00
 0.45600002E+02  0.23094E+00
 0.45650002E+02  0.13184E+00
 0.45700001E+02 -0.87505E-01
 0.45750000E+02 -0.37185E+00
 0.45799999E+02 -0.35953E+00
 0.45850002E+02 -0.13516E+00
 0.45900002E+02 -0.32758E-01
 0.45950001E+02  0.10834E+00
 0.46000000E+02  0.20710E+00
 0.46049999E+02  0.11187E+00
 0.46100002E+02  0.10993E+00
 0.46150002E+02  0.13241E+00
 0.46200001E+02 -0.21319E-01
 0.46250000E+02 -0.69186E-01
 0.46299999E+02  0.28724E-02
 0.46350002E+02 -0.23657E-01
 0.46400002E+02 -0.13982E+00
 0.46450001E+02 -0.20130E+00
 0.46500000E+02 -0.11649E+00
 0.46549999E+02 -0.11142E+00
 0.46600002E+02 -0.16175E-01
 0.46650002E+02  0.63637E-01
 0.46700001E+02 -0.70872E-01
 0.46750000E+02 -0.59710E-01
 0.46799999E+02 -0.59787E-01
 0.46850002E+02 -0.21676E+00
 0.46900002E+02 -0.25692E+00
 0.46950001E+02 -0.24611E+00
 0.47000000E+02 -0.25525E+00
 0.47049999E+02 -0.21583E+00
 0.47100002E+02 -0.86403E-01
 0.47150002E+02 -0.26695E-01
 0.47200001E+02 -0.21875E-01
 0.47250000E+02  0.78562E-01
 0.47299999E+02  0.50623E-01
 0.47350002E+02  0.47961E-01
 0.47400002E+02  0.12424E+00
 0.47450001E+02  0.18116E+00
 0.47500000E+02  0.24552E+00
 0.47549999E+02  0.21045E+00
 0.47600002E+02  0.64240E-01
 0.47650002E+02 -0.98456E-01
 0.47700001E+02 -0.11561E+00
 0.47750000E+02 -0.68281E-01
 0.47799999E+02 -0.21234E-01
 0.47850002E+02 -0.16883E-01
 0.47900002E+02 -0.15269E+00
 0.47950001E+02 -0.18283E+00
 0.48000000E+02 -0.24460E-01
 0.48049999E+02  0.80933E-01
 0.48100002E+02  0.22508E+00
 0.48150002E+02  0.32970E+00
 0.48200001E+02  0.25156E+00
 0.48250000E+02  0.23024E+00
 0.48299999E+02  0.20709E+00
 0.48350002E+02  0.29978E-01
 0.48400002E+02  0.21504E-01
 0.48450001E+02  0.80122E-02
 0.48500000E+02 -0.18625E+00
 0.48549999E+02 -0.20115E+00
 0.48600002E+02 -0.86170E-01
 0.48650002E+02 -0.52847E-01
 0.48700001E+02 -0.23976E+00
 0.48750000E+02 -0.31614E+00
 0.48799999E+02 -0.24182E+00
 0.48850002E+02 -0.24812E+00
 0.48900002E+02 -0.91639E-01
 0.48950001E+02 -0.24723E-01
 0.49000000E+02 -0.92485E-01
 0.49049999E+02 -0.29082E-01
 0.49100002E+02 -0.55099E-01
 0.49150002E+02 -0.10331E+00
 0.49200001E+02 -0.80757E-01
 0.49250000E+02 -0.40464E-01
 0.49299999E+02 -0.29933E-01
 0.49350002E+02 -0.23155E-01
 0.49400002E+02  0.51575E-01
 0.49450001E+02  0.53671E-01
 0.49500000E+02  0.32796E-01
 0.49549999E+02  0.12866E+00
 0.49600002E+02  0.12353E+00
 0.49650002E+02  0.10125E+00
 0.49700001E+02  0.16085E+00
 0.49750000E+02  0.96363E-01
 0.49799999E+02  0.80994E-02
 0.49850002E+02 -0.10952E-01
 0.49900002E+02  0.54692E-02
 0.49950001E+02 -0.10749E+00
 0.50000000E+02 -0.10462E+00
 0.50049999E+02  0.86134E-01
 0.50100002E+02  0.56971E-01
 0.50150002E+02  0.34204E-01
 0.50200001E+02  0.11570E+00
 0.50250000E+02  0.55708E-01
 0.50299999E+02  0.38332E-01
 0.50350002E+02  0.17534E+00
 0.50400002E+02  0.17424E+00
 0.50450001E+02  0.18505E+00
 0.50500000E+02  0.26271E+00
 0.50549999E+02  0.85888E-01
 0.50600002E+02 -0.39168E-01
 0.50650002E+02  0.10275E+00
 0.50700001E+02  0.11245E+00
 0.50750000E+02 -0.91209E-02
 0.50799999E+02 -0.11892E+00
 0.50850002E+02 -0.99566E-01
 0.50900002E+02 -0.76441E-01
 0.50950001E+02 -0.11992E+00
 0.51000000E+02 -0.11502E+00
 0.51049999E+02 -0.18377E+00
 0.51100002E+02 -0.91055E-01
 0.51150002E+02  0.96377E-01
 0.51200001E+02  0.18387E+00
 0.51250000E+02  0.13006E+00
 0.51299999E+02  0.36705E-01
 0.51350002E+02  0.99810E-02
 0.51400002E+02 -0.92236E-01
 0.51450001E+02 -0.18447E+00
 0.51500000E+02 -0.16825E+00
 0.51549999E+02 -0.19291E+00
 0.51600002E+02 -0.10139E+00
 0.51650002E+02 -0.14454E-03
 0.51700001E+02  0.28971E-01
 0.51750000E+02  0.36373E-01
 0.51799999E+02  0.11737E-01
 0.51850002E+02  0.91958E-01
 0.51900002E+02  0.13473E+00
 0.51950001E+02  0.11725E+00
 0.52000000E+02 -0.48429E-01
 0.52049999E+02 -0.22646E+00
 0.52100002E+02 -0.23159E+00
 0.52150002E+02 -0.16709E+00
 0.52200001E+02 -0.26545E-01
 0.52250000E+02  0.64747E-01
 0.52299999E+02  0.11164E+00
 0.52350002E+02  0.21546E+00
 0.52400002E+02  0.15357E+00
 0.52450001E+02  0.12594E+00
 0.52500000E+02  0.97431E-01
 0.52549999E+02 -0.72787E-01
 0.52600002E+02 -0.12505E+00
 0.52650002E+02 -0.10024E+00
 0.52700001E+02 -0.96546E-01
 0.52750000E+02 -0.93374E-01
 0.52799999E+02 -0.21567E+00
 0.52850002E+02 -0.34847E+00
 0.52900002E+02 -0.29628E+00
 0.52950001E+02 -0.14411E+00
 0.53000000E+02 -0.68590E-02
 0.53049999E+02 -0.12030E-01
 0.53100002E+02  0.52279E-01
 0.53150002E+02  0.20611E+00
 0.53200001E+02  0.34302E+00
 0.53250000E+02  0.30234E+00
 0.53299999E+02  0.20944E+00
 0.53350002E+02  0.17611E+00
 0.53400002E+02  0.89112E-01
 0.53450001E+02  0.57666E-01
 0.53500000E+02  0.40770E-01
 0.53549999E+02 -0.29062E-01
 0.53600002E+02 -0.11412E+00
 0.53650002E+02 -0.90760E-01
 0.53700001E+02 -0.13369E+00
 0.53750000E+02 -0.15202E+00
 0.53799999E+02 -0.21766E+00
 0.53850002E+02 -0.31908E+00
 0.53900002E+02 -0.24670E+00
 0.53950001E+02 -0.11289E+00
 0.54000000E+02  0.63635E-01
 0.54049999E+02  0.83499E-01
 0.54100002E+02  0.14726E+00
 0.54150002E+02  0.21054E+00
 0.54200001E+02  0.15301E+00
 0.54250000E+02  0.71381E-01
 0.54299999E+02  0.21683E-01
 0.54350002E+02  0.79486E-01
 0.54400002E+02  0.36710E-01
 0.54450001E+02  0.26084E-01
 0.54500000E+02  0.77323E-01
 0.54549999E+02  0.11878E+00
 0.54600002E+02  0.25855E+00
 0.54650002E+02  0.29001E+00
 0.54700001E+02  0.13491E+00
 0.54750000E+02  0.83456E-01
 0.54799999E+02 -0.24840E-01
 0.54850002E+02 -0.15986E+00
 0.54900002E+02 -0.77873E-01
 0.54950001E+02 -0.73037E-01
 0.55000000E+02 -0.19816E+00
 0.55049999E+02 -0.18663E+00
 0.55100002E+02 -0.11132E+00
 0.55150002E+02 -0.11281E+00
 0.55200001E+02 -0.75582E-01
 0.55250000E+02 -0.66729E-01
 0.55299999E+02 -0.43818E-01
 0.55350002E+02  0.16502E-01
 0.55400002E+02  0.10744E+00
 0.55450001E+02  0.18471E+00
 0.55500000E+02  0.19549E+00
 0.55549999E+02  0.21892E+00
 0.55600002E+02  0.28485E+00
 0.55650002E+02  0.28494E+00
 0.55700001E+02  0.24695E+00
 0.55750000E+02  0.24872E+00
 0.55799999E+02  0.51687E-01
 0.55850002E+02 -0.43500E-01
 0.55900002E+02 -0.83908E-01
 0.55950001E+02 -0.72466E-01
 0.56000000E+02  0.70375E-02
 0.56049999E+02  0.65036E-02
 0.56100002E+02  0.11600E+00
 0.56150002E+02  0.18151E+00
 0.56200001E+02  0.21228E+00
 0.56250000E+02  0.28313E+00
 0.56299999E+02  0.37772E+00
 0.56350002E+02  0.29198E+00
 0.56400002E+02  0.13574E+00
 0.56450001E+02  0.90841E-01
 0.56500000E+02  0.76630E-01
 0.56549999E+02  0.54318E-01
 0.56600002E+02  0.34438E-01
 0.56650002E+02 -0.10684E+00
 0.56700001E+02 -0.19848E+00
 0.56750000E+02 -0.83822E-01
 0.56799999E+02 -0.51541E-01
 0.56850002E+02 -0.31107E-01
 0.56900002E+02  0.51728E-01
 0.56950001E+02  0.54042E-01
 0.57000000E+02  0.45992E-01
 0.57049999E+02  0.96323E-01
 0.57100002E+02  0.35405E-01
 0.57150002E+02 -0.10888E+00
 0.57200001E+02 -0.20877E+00
 0.57250000E+02 -0.33920E+00
 0.57299999E+02 -0.34465E+00
 0.57350002E+02 -0.34762E+00
 0.57400002E+02 -0.44608E+00
 0.57450001E+02 -0.43147E+00
 0.57500000E+02 -0.41896E+00
 0.57549999E+02 -0.35247E+00
 0.57600002E+02 -0.17870E+00
 0.57650002E+02  0.14060E-01
 0.57700001E+02  0.10761E+00
 0.57750000E+02  0.96354E-01
 0.57799999E+02  0.40490E-01
 0.57850002E+02 -0.18231E-02
 0.57900002E+02 -0.37811E-02
 0.57950001E+02 -0.22490E-01
 0.58000000E+02 -0.72003E-01
 0.58049999E+02 -0.16867E-01
 0.58100002E+02  0.38773E-01
 0.58150002E+02  0.40381E-01
 0.58200001E+02  0.63105E-01
 0.58250000E+02 -0.90170E-01
 0.58299999E+02 -0.27733E+00
 0.58350002E+02 -0.19993E+00
 0.58400002E+02 -0.11862E+00
 0.58450001E+02 -0.15276E+00
 0.58500000E+02 -0.55438E-02
 0.58549999E+02  0.66740E-01
 0.58600002E+02  0.11250E+00
 0.58650002E+02  0.42006E+00
 0.58700001E+02  0.66135E+00
 0.58750000E+02  0.60223E+00
 0.58799999E+02  0.51076E+00
 0.58850002E+02  0.34685E+00
 0.58900002E+02 -0.15960E-01
 0.58950001E+02 -0.30440E+00
 0.59000000E+02 -0.21183E+00
 0.59049999E+02 -0.26853E-01
 0.59100002E+02 -0.38134E-01
 0.59150002E+02  0.28612E-01
 0.59200001E+02 -0.99594E-02
 0.59250000E+02 -0.40251E-01
 0.59299999E+02  0.15193E+00
 0.59350002E+02  0.37027E-01
 0.59400002E+02 -0.30597E+00
 0.59450001E+02 -0.40343E+00
 0.59500000E+02 -0.29749E+00
 0.59549999E+02 -0.16850E+00
 0.59600002E+02 -0.74249E-02
 0.59650002E+02  0.12333E+00
 0.59700001E+02  0.46761E-01
 0.59750000E+02  0.26273E-01
 0.59799999E+02  0.15030E+00
 0.59850002E+02  0.99695E-01
 0.59900002E+02 -0.40492E-01
 0.59950001E+02 -0.21185E+00
 0.60000000E+02 -0.34529E+00
 0.60049999E+02 -0.38918E+00
 0.60100002E+02 -0.51862E+00
 0.60150002E+02 -0.63999E+00
 0.60200001E+02 -0.60703E+00
 0.60250000E+02 -0.32945E+00
 0.60299999E+02 -0.13259E+00
 0.60350002E+02 -0.86574E-01
 0.60400002E+02  0.17575E-01
 0.60450001E+02  0.18436E+00
 0.60500000E+02  0.39643E+00
 0.60549999E+02  0.62612E+00
 0.60600002E+02  0.60264E+00
 0.60650002E+02  0.32098E+00
 0.60700001E+02  0.63200E-01
 0.60750000E+02 -0.24107E+00
 0.60799999E+02 -0.44773E+00
 0.60850002E+02 -0.45251E+00
 0.60900002E+02 -0.34978E+00
 0.60950001E+02 -0.23815E+00
 0.61000000E+02 -0.12529E+00
 0.61049999E+02 -0.11347E-01
 0.61100002E+02  0.23148E+00
 0.61150002E+02  0.49819E+00
 0.61200001E+02  0.64029E+00
 0.61250000E+02  0.59250E+00
 0.61299999E+02  0.48294E+00
 0.61350002E+02  0.39229E+00
 0.61400002E+02  0.29063E+00
 0.61450001E+02  0.27319E+00
 0.61500000E+02  0.15946E+00
 0.61549999E+02 -0.86958E-01
 0.61600002E+02 -0.29697E+00
 0.61650002E+02 -0.23566E+00
 0.61700001E+02 -0.11509E-01
 0.61750000E+02  0.83708E-01
 0.61799999E+02 -0.36979E-01
 0.61850002E+02 -0.38144E-01
 0.61900002E+02 -0.32458E-01
 0.61950001E+02 -0.19671E+00
 0.62000000E+02 -0.45303E+00
 0.62049999E+02 -0.66562E+00
 0.62100002E+02 -0.61418E+00
 0.62150002E+02 -0.42007E+00
 0.62200001E+02 -0.22154E+00
 0.62250000E+02 -0.28456E-01
 0.62299999E+02  0.30688E+00
 0.62350002E+02  0.52225E+00
 0.62400002E+02  0.53789E+00
 0.62450001E+02  0.60542E+00
 0.62500000E+02  0.68202E+00
 0.62549999E+02  0.64425E+00
 0.62600002E+02  0.47035E+00
 0.62650002E+02  0.23698E+00
 0.62700001E+02  0.17675E+00
 0.62750000E+02  0.24432E+00
 0.62799999E+02  0.91539E-01
 0.62850002E+02  0.40551E-01
 0.62900002E+02  0.14967E+00
 0.62950001E+02  0.83828E-01
 0.63000000E+02  0.61531E-01
 0.63049999E+02  0.15626E+00
 0.63100002E+02  0.12508E+00
 0.63150002E+02  0.15553E-01
 0.63200001E+02 -0.39128E-01
 0.63250000E+02 -0.62673E-01
 0.63299999E+02  0.13861E-01
 0.63350002E+02 -0.14389E-01
 0.63400002E+02 -0.22092E+00
 0.63450001E+02 -0.25948E+00
 0.63500000E+02  0.12871E-01
 0.63549999E+02  0.12966E+00
 0.63600002E+02 -0.30887E-01
 0.63650002E+02 -0.16286E+00
 0.63700001E+02 -0.23817E+00
 0.63750000E+02 -0.11515E+00
 0.63799999E+02 -0.22534E-01
 0.63850002E+02 -0.80099E-01
 0.63900002E+02 -0.28496E-01
 0.63950001E+02 -0.94225E-01
 0.64000000E+02 -0.26251E+00
 0.64050003E+02 -0.31422E+00
 0.64099998E+02 -0.36866E+00
 0.64150002E+02 -0.39965E+00
 0.64200005E+02 -0.43697E+00
 0.64250000E+02 -0.58753E+00
 0.64300003E+02 -0.64838E+00
 0.64349998E+02 -0.42372E+00
 0.64400002E+02 -0.99789E-01
 0.64450005E+02  0.57499E-01
 0.64500000E+02 -0.48024E-01
 0.64550003E+02 -0.23945E+00
 0.64599998E+02 -0.28717E+00
 0.64650002E+02 -0.20806E+00
 0.64700005E+02 -0.10976E+00
 0.64750000E+02 -0.43956E-01
 0.64800003E+02 -0.93712E-01
 0.64849998E+02 -0.83126E-01
 0.64900002E+02  0.99843E-01
 0.64950005E+02  0.26103E+00
 0.65000000E+02  0.33962E+00
 0.65050003E+02  0.35298E+00
 0.65099998E+02  0.37039E+00
 0.65150002E+02  0.40058E+00
 0.65200005E+02  0.31540E+00
 0.65250000E+02  0.23225E+00
 0.65300003E+02  0.32891E+00
 0.65349998E+02  0.33064E+00
 0.65400002E+02  0.14760E+00
 0.65450005E+02 -0.69047E-02
 0.65500000E+02  0.48199E-02
 0.65550003E+02  0.17086E+00
 0.65599998E+02  0.43733E+00
 0.65650002E+02  0.53387E+00
 0.65700005E+02  0.46698E+00
 0.65750000E+02  0.56404E+00
 0.65800003E+02  0.71198E+00
 0.65849998E+02  0.72346E+00
 0.65900002E+02  0.69908E+00
 0.65950005E+02  0.65040E+00
 0.66000000E+02  0.43666E+00
 0.66050003E+02  0.20348E+00
 0.66099998E+02  0.67551E-01
 0.66150002E+02 -0.42209E-01
 0.66200005E+02 -0.10338E+00
 0.66250000E+02 -0.14880E+00
 0.66300003E+02 -0.22932E+00
 0.66349998E+02 -0.21046E+00
 0.66400002E+02 -0.16026E+00
 0.66450005E+02 -0.29966E+00
 0.66500000E+02 -0.51555E+00
 0.66550003E+02 -0.56503E+00
 0.66599998E+02 -0.52607E+00
 0.66650002E+02 -0.55843E+00
 0.66700005E+02 -0.60229E+00
 0.66750000E+02 -0.50705E+00
 0.66800003E+02 -0.41100E+00
 0.66849998E+02 -0.33129E+00
 0.66900002E+02 -0.20599E+00
 0.66950005E+02 -0.14241E+00
 0.67000000E+02 -0.32042E-01
 0.67050003E+02  0.47467E-01
 0.67099998E+02 -0.36455E-01
 0.67150002E+02 -0.12490E+00
 0.67200005E+02 -0.85254E-01
 0.67250000E+02 -0.11443E-01
 0.67300003E+02 -0.38017E-01
 0.67349998E+02 -0.83747E-01
 0.67400002E+02 -0.11141E+00
 0.67450005E+02 -0.13563E+00
 0.67500000E+02 -0.62974E-01
 0.67550003E+02 -0.54836E-02
 0.67599998E+02 -0.19995E-01
 0.67650002E+02 -0.29228E-01
 0.67700005E+02 -0.78940E-01
 0.67750000E+02 -0.12687E+00
 0.67800003E+02 -0.11707E+00
 0.67849998E+02 -0.15308E+00
 0.67900002E+02 -0.19936E+00
 0.67950005E+02 -0.13023E+00
 0.68000000E+02 -0.16004E-01
 0.68050003E+02  0.49075E-01
 0.68099998E+02  0.87268E-01
 0.68150002E+02  0.13299E+00
 0.68200005E+02  0.13869E+00
 0.68250000E+02  0.78596E-01
 0.68300003E+02  0.59362E-01
 0.68349998E+02  0.56169E-01
 0.68400002E+02  0.50444E-01
 0.68450005E+02  0.12427E+00
 0.68500000E+02  0.20431E+00
 0.68550003E+02  0.26149E+00
 0.68599998E+02  0.29533E+00
 0.68650002E+02  0.26397E+00
 0.68700005E+02  0.19079E+00
 0.68750000E+02  0.52677E-01
 0.68800003E+02 -0.18011E+00
 0.68849998E+02 -0.36682E+00
 0.68900002E+02 -0.44503E+00
 0.68950005E+02 -0.44717E+00
 0.69000000E+02 -0.35393E+00
 0.69050003E+02 -0.27441E+00
 0.69099998E+02 -0.21244E+00
 0.69150002E+02 -0.10778E+00
 0.69200005E+02 -0.68401E-01
 0.69250000E+02 -0.88004E-01
 0.69300003E+02 -0.10051E+00
 0.69349998E+02 -0.80885E-01
 0.69400002E+02 -0.50978E-01
 0.69450005E+02 -0.44000E-01
 0.69500000E+02 -0.17975E-01
 0.69550003E+02  0.45778E-01
 0.69599998E+02  0.10589E+00
 0.69650002E+02  0.14641E+00
 0.69700005E+02  0.20815E+00
 0.69750000E+02  0.27283E+00
 0.69800003E+02  0.29822E+00
 0.69849998E+02  0.29890E+00
 0.69900002E+02  0.22200E+00
 0.69950005E+02  0.65351E-01
 0.70000000E+02  0.16519E-02
 0.70050003E+02 -0.65122E-04
 0.70099998E+02  0.15638E-01
 0.70150002E+02 -0.46390E-02
 0.70200005E+02 -0.66206E-01
 0.70250000E+02 -0.98584E-01
 0.70300003E+02 -0.13375E+00
 0.70349998E+02 -0.13747E+00
 0.70400002E+02 -0.14427E+00
 0.70450005E+02 -0.14651E+00
 0.70500000E+02 -0.10727E+00
 0.70550003E+02 -0.39863E-01
 0.70599998E+02  0.45986E-01
 0.70650002E+02  0.20756E+00
 0.70700005E+02  0.36126E+00
 0.70750000E+02  0.39258E+00
 0.70800003E+02  0.33473E+00
 0.70849998E+02  0.25790E+00
 0.70900002E+02  0.12876E+00
 0.70950005E+02 -0.20809E-01
 0.71000000E+02 -0.15052E+00
 0.71050003E+02 -0.27869E+00
 0.71099998E+02 -0.33843E+00
 0.71150002E+02 -0.34530E+00
 0.71200005E+02 -0.34653E+00
 0.71250000E+02 -0.32763E+00
 0.71300003E+02 -0.22486E+00
 0.71349998E+02 -0.14733E+00
 0.71400002E+02 -0.13851E+00
 0.71450005E+02 -0.17252E+00
 0.71500000E+02 -0.23742E+00
 0.71550003E+02 -0.28537E+00
 0.71599998E+02 -0.27138E+00
 0.71650002E+02 -0.93636E-01
 0.71700005E+02  0.15740E+00
 0.71750000E+02  0.36702E+00
 0.71800003E+02  0.47783E+00
 0.71849998E+02  0.45167E+00
 0.71900002E+02  0.37439E+00
 0.71950005E+02  0.28030E+00
 0.72000000E+02  0.13754E+00
 0.72050003E+02 -0.37777E-01
 0.72099998E+02 -0.20759E+00
 0.72150002E+02 -0.41354E+00
 0.72200005E+02 -0.61329E+00
 0.72250000E+02 -0.70015E+00
 0.72300003E+02 -0.62102E+00
 0.72349998E+02 -0.46515E+00
 0.72400002E+02 -0.31075E+00
 0.72450005E+02 -0.99444E-01
 0.72500000E+02  0.10066E+00
 0.72550003E+02  0.27582E+00
 0.72599998E+02  0.47915E+00
 0.72650002E+02  0.62323E+00
 0.72700005E+02  0.61515E+00
 0.72750000E+02  0.54486E+00
 0.72800003E+02  0.45317E+00
 0.72849998E+02  0.30254E+00
 0.72900002E+02  0.15178E+00
 0.72950005E+02  0.19849E-01
 0.73000000E+02 -0.60531E-01
 0.73050003E+02 -0.46085E-01
 0.73099998E+02 -0.13250E-01
 0.73150002E+02  0.11306E-01
 0.73200005E+02  0.88761E-01
 0.73250000E+02  0.16068E+00
 0.73300003E+02  0.23258E+00
 0.73349998E+02  0.28747E+00
 0.73400002E+02  0.19360E+00
 0.73450005E+02  0.52388E-01
 0.73500000E+02 -0.56578E-01
 0.73550003E+02 -0.13713E+00
 0.73599998E+02 -0.16245E+00
 0.73650002E+02 -0.17578E+00
 0.73700005E+02 -0.20039E+00
 0.73750000E+02 -0.20140E+00
 0.73800003E+02 -0.13635E+00
 0.73849998E+02 -0.69711E-01
 0.73900002E+02 -0.53685E-01
 0.73950005E+02 -0.18361E-01
 0.74000000E+02  0.57069E-01
 0.74050003E+02  0.13007E+00
 0.74099998E+02  0.18184E+00
 0.74150002E+02  0.16793E+00
 0.74200005E+02  0.10603E+00
 0.74250000E+02  0.19046E-01
 0.74300003E+02 -0.58295E-01
 0.74349998E+02 -0.11166E+00
 0.74400002E+02 -0.14954E+00
 0.74450005E+02 -0.12670E+00
 0.74500000E+02 -0.94145E-01
 0.74550003E+02 -0.11720E+00
 0.74599998E+02 -0.16731E+00
 0.74650002E+02 -0.20377E+00
 0.74700005E+02 -0.23410E+00
 0.74750000E+02 -0.23497E+00
 0.74800003E+02 -0.17116E+00
 0.74849998E+02 -0.50022E-01
 0.74900002E+02  0.67635E-01
 0.74950005E+02  0.15300E+00
 0.75000000E+02  0.24195E+00
 0.75050003E+02  0.32049E+00
 0.75099998E+02  0.40249E+00
 0.75150002E+02  0.46251E+00
 0.75200005E+02  0.44619E+00
 0.75250000E+02  0.40414E+00
 0.75300003E+02  0.39872E+00
 0.75349998E+02  0.39234E+00
 0.75400002E+02  0.32359E+00
 0.75450005E+02  0.20882E+00
 0.75500000E+02  0.68191E-01
 0.75550003E+02 -0.52198E-01
 0.75599998E+02 -0.13745E+00
 0.75650002E+02 -0.21802E+00
 0.75700005E+02 -0.27204E+00
 0.75750000E+02 -0.29983E+00
 0.75800003E+02 -0.30271E+00
 0.75849998E+02 -0.27722E+00
 0.75900002E+02 -0.26206E+00
 0.75950005E+02 -0.24263E+00
 0.76000000E+02 -0.22479E+00
 0.76050003E+02 -0.23241E+00
 0.76099998E+02 -0.24195E+00
 0.76150002E+02 -0.22506E+00
 0.76200005E+02 -0.16198E+00
 0.76250000E+02 -0.10086E+00
 0.76300003E+02 -0.85769E-01
 0.76349998E+02 -0.83714E-01
 0.76400002E+02 -0.61915E-01
 0.76450005E+02 -0.15667E-01
 0.76500000E+02  0.48350E-01
 0.76550003E+02  0.83620E-01
 0.76599998E+02  0.96129E-01
 0.76650002E+02  0.13698E+00
 0.76700005E+02  0.15176E+00
 0.76750000E+02  0.10760E+00
 0.76800003E+02  0.79711E-01
 0.76849998E+02  0.72952E-01
 0.76900002E+02  0.48504E-01
 0.76950005E+02  0.24464E-01
 0.77000000E+02 -0.37792E-02
 0.77050003E+02 -0.30601E-01
 0.77099998E+02 -0.56137E-01
 0.77150002E+02 -0.82572E-01
 0.77200005E+02 -0.63627E-01
 0.77250000E+02 -0.22848E-01
 0.77300003E+02 -0.52011E-02
 0.77349998E+02 -0.20616E-01
 0.77400002E+02 -0.37639E-01
 0.77450005E+02 -0.17055E-01
 0.77500000E+02  0.57823E-02
 0.77550003E+02  0.30601E-01
 0.77599998E+02  0.10335E+00
 0.77650002E+02  0.16826E+00
 0.77700005E+02  0.20619E+00
 0.77750000E+02  0.23537E+00
 0.77800003E+02  0.21244E+00
 0.77849998E+02  0.16189E+00
 0.77900002E+02  0.11931E+00
 0.77950005E+02  0.67141E-01
 0.78000000E+02  0.14847E-01
 0.78050003E+02 -0.28216E-01
 0.78099998E+02 -0.10190E+00
 0.78150002E+02 -0.13739E+00
 0.78200005E+02 -0.11472E+00
 0.78250000E+02 -0.93460E-01
 0.78300003E+02 -0.48198E-01
 0.78349998E+02  0.23786E-01
 0.78400002E+02  0.85740E-01
 0.78450005E+02  0.14754E+00
 0.78500000E+02  0.20315E+00
 0.78550003E+02  0.22932E+00
 0.78599998E+02  0.23394E+00
 0.78650002E+02  0.21078E+00
 0.78700005E+02  0.17786E+00
 0.78750000E+02  0.13636E+00
 0.78800003E+02  0.10683E+00
 0.78849998E+02  0.78084E-01
 0.78900002E+02  0.17531E-01
 0.78950005E+02 -0.20204E-01
 0.79000000E+02 -0.35945E-02
 0.79050003E+02  0.40324E-01
 0.79099998E+02  0.11247E+00
 0.79150002E+02  0.19770E+00
 0.79200005E+02  0.24041E+00
 0.79250000E+02  0.21165E+00
 0.79300003E+02  0.13656E+00
 0.79349998E+02  0.42653E-01
 0.79400002E+02 -0.35541E-01
 0.79450005E+02 -0.93954E-01
 0.79500000E+02 -0.16107E+00
 0.79550003E+02 -0.20616E+00
 0.79599998E+02 -0.23311E+00
 0.79650002E+02 -0.25345E+00
 0.79700005E+02 -0.24421E+00
 0.79750000E+02 -0.23237E+00
 0.79800003E+02 -0.23144E+00
 0.79849998E+02 -0.25971E+00
 0.79900002E+02 -0.32152E+00
 0.79950005E+02 -0.38149E+00
 0.80000000E+02 -0.40412E+00
 0.80050003E+02 -0.39651E+00
 0.80099998E+02 -0.40559E+00
 0.80150002E+02 -0.39582E+00
 0.80200005E+02 -0.36649E+00
 0.80250000E+02 -0.35440E+00
 0.80300003E+02 -0.35384E+00
 0.80349998E+02 -0.31085E+00
 0.80400002E+02 -0.20338E+00
 0.80450005E+02 -0.49901E-01
 0.80500000E+02  0.15516E+00
 0.80550003E+02  0.34982E+00
 0.80599998E+02  0.47019E+00
 0.80650002E+02  0.52655E+00
 0.80700005E+02  0.51338E+00
 0.80750000E+02  0.44291E+00
 0.80800003E+02  0.35558E+00
 0.80849998E+02  0.26730E+00
 0.80900002E+02  0.17969E+00
 0.80950005E+02  0.88050E-01
 0.81000000E+02 -0.16086E-02
 0.81050003E+02 -0.56226E-01
 0.81099998E+02 -0.71055E-01
 0.81150002E+02 -0.88750E-01
 0.81200005E+02 -0.87833E-01
 0.81250000E+02 -0.68473E-01
 0.81300003E+02 -0.43142E-01
 0.81349998E+02  0.20023E-01
 0.81400002E+02  0.13142E+00
 0.81450005E+02  0.26335E+00
 0.81500000E+02  0.35352E+00
 0.81550003E+02  0.36983E+00
 0.81599998E+02  0.35705E+00
 0.81650002E+02  0.29886E+00
 0.81700005E+02  0.19093E+00
 0.81750000E+02  0.72887E-01
 0.81800003E+02 -0.33274E-01
 0.81849998E+02 -0.10505E+00
 0.81900002E+02 -0.15270E+00
 0.81950005E+02 -0.17792E+00
 0.82000000E+02 -0.19844E+00
 0.82050003E+02 -0.23945E+00
 0.82099998E+02 -0.31774E+00
 0.82150002E+02 -0.42094E+00
 0.82200005E+02 -0.54373E+00
 0.82250000E+02 -0.65536E+00
 0.82300003E+02 -0.68618E+00
 0.82349998E+02 -0.64073E+00
 0.82400002E+02 -0.55962E+00
 0.82450005E+02 -0.45318E+00
 0.82500000E+02 -0.29634E+00
 0.82550003E+02 -0.10675E+00
 0.82599998E+02  0.62316E-01
 0.82650002E+02  0.17588E+00
 0.82700005E+02  0.22730E+00
 0.82750000E+02  0.23553E+00
 0.82800003E+02  0.21277E+00
 0.82849998E+02  0.16237E+00
 0.82900002E+02  0.89831E-01
 0.82950005E+02  0.64957E-02
 0.83000000E+02 -0.77249E-01
 0.83050003E+02 -0.14872E+00
 0.83099998E+02 -0.19044E+00
 0.83150002E+02 -0.17548E+00
 0.83200005E+02 -0.11677E+00
 0.83250000E+02 -0.66814E-01
 0.83300003E+02 -0.51610E-01
 0.83349998E+02 -0.57303E-01
 0.83400002E+02 -0.51892E-01
 0.83450005E+02 -0.13488E-01
 0.83500000E+02  0.29379E-01
 0.83550003E+02  0.63033E-01
 0.83599998E+02  0.12616E+00
 0.83650002E+02  0.21287E+00
 0.83700005E+02  0.28529E+00
 0.83750000E+02  0.34175E+00
 0.83800003E+02  0.36718E+00
 0.83849998E+02  0.35239E+00
 0.83900002E+02  0.32189E+00
 0.83950005E+02  0.29716E+00
 0.84000000E+02  0.27685E+00
 0.84050003E+02  0.25160E+00
 0.84099998E+02  0.21881E+00
 0.84150002E+02  0.18131E+00
 0.84200005E+02  0.14354E+00
 0.84250000E+02  0.10431E+00
 0.84300003E+02  0.59487E-01
 0.84349998E+02  0.41691E-01
 0.84400002E+02  0.73101E-01
 0.84450005E+02  0.12708E+00
 0.84500000E+02  0.16796E+00
 0.84550003E+02  0.18414E+00
 0.84599998E+02  0.17712E+00
 0.84650002E+02  0.15705E+00
 0.84700005E+02  0.14358E+00
 0.84750000E+02  0.11755E+00
 0.84800003E+02  0.70853E-01
 0.84849998E+02  0.15748E-01
 0.84900002E+02 -0.32029E-01
 0.84950005E+02 -0.89823E-01
 0.85000000E+02 -0.13387E+00
 0.85050003E+02 -0.17217E+00
 0.85099998E+02 -0.19788E+00
 0.85150002E+02 -0.17946E+00
 0.85200005E+02 -0.14065E+00
 0.85250000E+02 -0.89525E-01
 0.85300003E+02 -0.54329E-01
 0.85349998E+02 -0.29127E-01
 0.85400002E+02 -0.72260E-02
 0.85450005E+02  0.14267E-01
 0.85500000E+02 -0.28065E-02
 0.85550003E+02 -0.57963E-01
 0.85599998E+02 -0.12100E+00
 0.85650002E+02 -0.18395E+00
 0.85700005E+02 -0.22395E+00
 0.85750000E+02 -0.24164E+00
 0.85800003E+02 -0.25159E+00
 0.85849998E+02 -0.24939E+00
 0.85900002E+02 -0.22384E+00
 0.85950005E+02 -0.18880E+00
 0.86000000E+02 -0.14492E+00
 0.86050003E+02 -0.10899E+00
 0.86099998E+02 -0.72696E-01
 0.86150002E+02 -0.58229E-01
 0.86200005E+02 -0.83397E-01
 0.86250000E+02 -0.11483E+00
 0.86300003E+02 -0.14055E+00
 0.86349998E+02 -0.14509E+00
 0.86400002E+02 -0.13638E+00
 0.86450005E+02 -0.10932E+00
 0.86500000E+02 -0.52340E-01
 0.86550003E+02  0.54793E-02
 0.86599998E+02  0.30684E-01
 0.86650002E+02  0.47151E-01
 0.86700005E+02  0.64951E-01
 0.86750000E+02  0.63384E-01
 0.86800003E+02  0.57382E-01
 0.86849998E+02  0.65384E-01
 0.86900002E+02  0.72496E-01
 0.86950005E+02  0.77699E-01
 0.87000000E+02  0.10102E+00
 0.87050003E+02  0.14525E+00
 0.87099998E+02  0.20565E+00
 0.87150002E+02  0.26872E+00
 0.87200005E+02  0.31029E+00
 0.87250000E+02  0.31423E+00
 0.87300003E+02  0.27790E+00
 0.87349998E+02  0.21858E+00
 0.87400002E+02  0.14081E+00
 0.87450005E+02  0.67311E-01
 0.87500000E+02  0.19057E-01
 0.87550003E+02 -0.19841E-01
 0.87599998E+02 -0.56549E-01
 0.87650002E+02 -0.80480E-01
 0.87700005E+02 -0.84660E-01
 0.87750000E+02 -0.99077E-01
 0.87800003E+02 -0.11942E+00
 0.87849998E+02 -0.11874E+00
 0.87900002E+02 -0.95824E-01
 0.87950005E+02 -0.66499E-01
 0.88000000E+02 -0.39994E-01
 0.88050003E+02 -0.10003E-01
 0.88099998E+02  0.27026E-01
 0.88150002E+02  0.64173E-01
 0.88200005E+02  0.10710E+00
 0.88250000E+02  0.14927E+00
 0.88300003E+02  0.17516E+00
 0.88349998E+02  0.16813E+00
 0.88400002E+02  0.12612E+00
 0.88450005E+02  0.49072E-01
 0.88500000E+02 -0.40623E-01
 0.88550003E+02 -0.10391E+00
 0.88599998E+02 -0.13883E+00
 0.88650002E+02 -0.14427E+00
 0.88700005E+02 -0.12525E+00
 0.88750000E+02 -0.91042E-01
 0.88800003E+02 -0.63733E-01
 0.88849998E+02 -0.49799E-01
 0.88900002E+02 -0.43450E-01
 0.88950005E+02 -0.47333E-01
 0.89000000E+02 -0.65214E-01
 0.89050003E+02 -0.95773E-01
 0.89099998E+02 -0.12342E+00
 0.89150002E+02 -0.12709E+00
 0.89200005E+02 -0.94893E-01
 0.89250000E+02 -0.33611E-01
 0.89300003E+02  0.34150E-01
 0.89349998E+02  0.98204E-01
 0.89400002E+02  0.15003E+00
 0.89450005E+02  0.16094E+00
 0.89500000E+02  0.12575E+00
 0.89550003E+02  0.75149E-01
 0.89599998E+02  0.46510E-01
 0.89650002E+02  0.48059E-01
 0.89700005E+02  0.46697E-01
 0.89750000E+02  0.17885E-01
 0.89800003E+02 -0.23688E-01
 0.89849998E+02 -0.50585E-01
 0.89900002E+02 -0.69290E-01
 0.89950005E+02 -0.73488E-01
 0.90000000E+02 -0.47069E-01
 0.90050003E+02 -0.16607E-01
 0.90099998E+02  0.18931E-01
 0.90150002E+02  0.49865E-01
 0.90200005E+02  0.69282E-01
 0.90250000E+02  0.77870E-01
 0.90300003E+02  0.75294E-01
 0.90349998E+02  0.58900E-01
 0.90400002E+02  0.38090E-01
 0.90450005E+02  0.26325E-01
 0.90500000E+02  0.27798E-01
 0.90550003E+02  0.49222E-01
 0.90599998E+02  0.61489E-01
 0.90650002E+02  0.64866E-01
 0.90700005E+02  0.82778E-01
 0.90750000E+02  0.11965E+00
 0.90800003E+02  0.16174E+00
 0.90849998E+02  0.20182E+00
 0.90900002E+02  0.21195E+00
 0.90950005E+02  0.18670E+00
 0.91000000E+02  0.15842E+00
 0.91050003E+02  0.11507E+00
 0.91099998E+02  0.48093E-01
 0.91150002E+02 -0.23463E-01
 0.91200005E+02 -0.84808E-01
 0.91250000E+02 -0.11615E+00
 0.91300003E+02 -0.12585E+00
 0.91349998E+02 -0.13289E+00
 0.91400002E+02 -0.12031E+00
 0.91450005E+02 -0.90411E-01
 0.91500000E+02 -0.66952E-01
 0.91550003E+02 -0.46227E-01
 0.91599998E+02 -0.26490E-01
 0.91650002E+02 -0.30789E-01
 0.91700005E+02 -0.39924E-01
 0.91750000E+02 -0.38216E-01
 0.91800003E+02 -0.39943E-01
 0.91849998E+02 -0.31554E-01
 0.91900002E+02 -0.19536E-01
 0.91950005E+02 -0.32995E-01
 0.92000000E+02 -0.46383E-01
 0.92050003E+02 -0.39833E-01
 0.92099998E+02 -0.41225E-01
 0.92150002E+02 -0.49466E-01
 0.92200005E+02 -0.67266E-01
 0.92250000E+02 -0.91229E-01
 0.92300003E+02 -0.12456E+00
 0.92349998E+02 -0.16710E+00
 0.92400002E+02 -0.20430E+00
 0.92450005E+02 -0.23171E+00
 0.92500000E+02 -0.24338E+00
 0.92550003E+02 -0.24951E+00
 0.92599998E+02 -0.24365E+00
 0.92650002E+02 -0.22161E+00
 0.92700005E+02 -0.18415E+00
 0.92750000E+02 -0.14401E+00
 0.92800003E+02 -0.98887E-01
 0.92849998E+02 -0.36961E-01
 0.92900002E+02  0.32126E-01
 0.92950005E+02  0.10501E+00
 0.93000000E+02  0.16728E+00
 0.93050003E+02  0.21091E+00
 0.93099998E+02  0.23884E+00
 0.93150002E+02  0.24795E+00
 0.93200005E+02  0.24490E+00
 0.93250000E+02  0.24848E+00
 0.93300003E+02  0.25896E+00
 0.93349998E+02  0.26954E+00
 0.93400002E+02  0.26319E+00
 0.93450005E+02  0.24894E+00
 0.93500000E+02  0.20907E+00
 0.93550003E+02  0.13395E+00
 0.93599998E+02  0.57115E-01
 0.93650002E+02 -0.11029E-01
 0.93700005E+02 -0.47081E-01
 0.93750000E+02 -0.68190E-01
 0.93800003E+02 -0.89315E-01
 0.93849998E+02 -0.95165E-01
 0.93900002E+02 -0.82624E-01
 0.93950005E+02 -0.62946E-01
 0.94000000E+02 -0.45122E-01
 0.94050003E+02 -0.25037E-01
 0.94099998E+02  0.42510E-02
 0.94150002E+02  0.41121E-01
 0.94200005E+02  0.63952E-01
 0.94250000E+02  0.69295E-01
 0.94300003E+02  0.60197E-01
 0.94349998E+02  0.56316E-01
 0.94400002E+02  0.76004E-01
 0.94450005E+02  0.92712E-01
 0.94500000E+02  0.92309E-01
 0.94550003E+02  0.69240E-01
 0.94599998E+02  0.28797E-01
 0.94650002E+02 -0.27186E-01
 0.94700005E+02 -0.82896E-01
 0.94750000E+02 -0.13284E+00
 0.94800003E+02 -0.18857E+00
 0.94849998E+02 -0.23929E+00
 0.94900002E+02 -0.27773E+00
 0.94950005E+02 -0.29824E+00
 0.95000000E+02 -0.28398E+00
 0.95050003E+02 -0.24144E+00
 0.95099998E+02 -0.19664E+00
 0.95150002E+02 -0.14017E+00
 0.95200005E+02 -0.81972E-01
 0.95250000E+02 -0.36134E-01
 0.95300003E+02 -0.58534E-02
 0.95349998E+02  0.14901E-01
 0.95400002E+02  0.34827E-01
 0.95450005E+02  0.42558E-01
 0.95500000E+02  0.31470E-01
 0.95550003E+02 -0.19029E-02
 0.95599998E+02 -0.40312E-01
 0.95650002E+02 -0.72248E-01
 0.95700005E+02 -0.94545E-01
 0.95750000E+02 -0.93316E-01
 0.95800003E+02 -0.86049E-01
 0.95849998E+02 -0.73120E-01
 0.95900002E+02 -0.45026E-01
 0.95950005E+02 -0.18205E-01
 0.96000000E+02  0.94871E-02
 0.96050003E+02  0.50706E-01
 0.96099998E+02  0.10520E+00
 0.96150002E+02  0.15581E+00
 0.96200005E+02  0.19247E+00
 0.96250000E+02  0.20466E+00
 0.96300003E+02  0.18273E+00
 0.96349998E+02  0.14920E+00
 0.96400002E+02  0.12813E+00
 0.96450005E+02  0.11739E+00
 0.96500000E+02  0.10619E+00
 0.96550003E+02  0.10061E+00
 0.96599998E+02  0.11319E+00
 0.96650002E+02  0.12265E+00
 0.96700005E+02  0.11432E+00
 0.96750000E+02  0.99420E-01
 0.96800003E+02  0.80317E-01
 0.96849998E+02  0.68478E-01
 0.96900002E+02  0.58563E-01
 0.96950005E+02  0.38262E-01
 0.97000000E+02  0.36722E-02
 0.97050003E+02 -0.29752E-01
 0.97099998E+02 -0.55268E-01
 0.97150002E+02 -0.87720E-01
 0.97200005E+02 -0.11383E+00
 0.97250000E+02 -0.11573E+00
 0.97300003E+02 -0.98574E-01
 0.97349998E+02 -0.80942E-01
 0.97400002E+02 -0.71493E-01
 0.97450005E+02 -0.69425E-01
 0.97500000E+02 -0.60535E-01
 0.97550003E+02 -0.49004E-01
 0.97599998E+02 -0.36260E-01
 0.97650002E+02 -0.24158E-01
 0.97700005E+02 -0.86634E-02
 0.97750000E+02  0.77543E-02
 0.97800003E+02  0.12240E-01
 0.97849998E+02  0.12139E-02
 0.97900002E+02 -0.22481E-01
 0.97950005E+02 -0.48547E-01
 0.98000000E+02 -0.76315E-01
 0.98050003E+02 -0.87348E-01
 0.98099998E+02 -0.73551E-01
 0.98150002E+02 -0.50119E-01
 0.98200005E+02 -0.27636E-01
 0.98250000E+02 -0.26706E-02
 0.98300003E+02  0.79503E-02
 0.98349998E+02  0.66144E-02
 0.98400002E+02  0.24686E-02
 0.98450005E+02 -0.12366E-01
 0.98500000E+02 -0.19253E-01
 0.98550003E+02 -0.87787E-02
 0.98599998E+02  0.30801E-02
 0.98650002E+02  0.25710E-02
 0.98700005E+02  0.27232E-02
 0.98750000E+02 -0.19899E-02
 0.98800003E+02 -0.76963E-02
 0.98849998E+02  0.12429E-02
 0.98900002E+02  0.88923E-02
 0.98950005E+02  0.16144E-01
 0.99000000E+02  0.29446E-01
 0.99050003E+02  0.50735E-01
 0.99099998E+02  0.70269E-01
 0.99150002E+02  0.93664E-01
 0.99200005E+02  0.10792E+00
 0.99250000E+02  0.88213E-01
 0.99300003E+02  0.54108E-01
 0.99349998E+02  0.21444E-01
 0.99400002E+02 -0.27691E-02
 0.99450005E+02 -0.15870E-01
 0.99500000E+02 -0.23356E-01
 0.99550003E+02 -0.34010E-01
 0.99599998E+02 -0.39955E-01
 0.99650002E+02 -0.43471E-01
 0.99700005E+02 -0.50589E-01
 0.99750000E+02 -0.52992E-01
 0.99800003E+02 -0.42321E-01
 0.99849998E+02 -0.26689E-01
 0.99900002E+02 -0.10985E-01
 0.99950005E+02  0.28208E-02
 0.10000000E+03  0.81251E-02
 0.10005000E+03  0.12623E-01
 0.10010000E+03  0.11403E-01
 0.10015000E+03  0.12031E-02
 0.10020000E+03 -0.17934E-01
 0.10025000E+03 -0.36086E-01
 0.10030000E+03 -0.54540E-01
 0.10035000E+03 -0.66353E-01
 0.10040000E+03 -0.80275E-01
 0.10045000E+03 -0.10291E+00
 0.10050000E+03 -0.10719E+00
 0.10055000E+03 -0.93042E-01
 0.10060000E+03 -0.70635E-01
 0.10065000E+03 -0.45149E-01
 0.10070000E+03 -0.19323E-01
 0.10075000E+03  0.11352E-01
 0.10080000E+03  0.51750E-01
 0.10085000E+03  0.96980E-01
 0.10090000E+03  0.13804E+00
 0.10095000E+03  0.15251E+00
 0.10100000E+03  0.15214E+00
 0.10105000E+03  0.16168E+00
 0.10110000E+03  0.16425E+00
 0.10115000E+03  0.16005E+00
 0.10120000E+03  0.15615E+00
 0.10125000E+03  0.13252E+00
 0.10130000E+03  0.10085E+00
 0.10135000E+03  0.71247E-01
 0.10140000E+03  0.31187E-01
 0.10145000E+03 -0.11016E-01
 0.10150000E+03 -0.40635E-01
 0.10155000E+03 -0.53447E-01
 0.10160000E+03 -0.47507E-01
 0.10165000E+03 -0.26670E-01
 0.10170000E+03 -0.74728E-02
 0.10175000E+03  0.23400E-02
 0.10180000E+03 -0.27984E-02
 0.10185000E+03 -0.21455E-01
 0.10190000E+03 -0.48877E-01
 0.10195000E+03 -0.69280E-01
 0.10200000E+03 -0.81665E-01
 0.10205000E+03 -0.99687E-01
 0.10210000E+03 -0.11280E+00
 0.10215000E+03 -0.12014E+00
 0.10220000E+03 -0.11748E+00
 0.10225000E+03 -0.99157E-01
 0.10230000E+03 -0.67079E-01
 0.10235000E+03 -0.30129E-01
 0.10240000E+03  0.81201E-02
 0.10245000E+03  0.47371E-01
 0.10250000E+03  0.73740E-01
 0.10255000E+03  0.91740E-01
 0.10260000E+03  0.10769E+00
 0.10265000E+03  0.11868E+00
 0.10270000E+03  0.12221E+00
 0.10275000E+03  0.11577E+00
 0.10280000E+03  0.10537E+00
 0.10285000E+03  0.78958E-01
 0.10290000E+03  0.48980E-01
 0.10295000E+03  0.31737E-01
 0.10300000E+03  0.24206E-01
 0.10305000E+03  0.29577E-01
 0.10310000E+03  0.45943E-01
 0.10315000E+03  0.79104E-01
 0.10320000E+03  0.10894E+00
 0.10325000E+03  0.12543E+00
 0.10330000E+03  0.12190E+00
 0.10335000E+03  0.10618E+00
 0.10340000E+03  0.92570E-01
 0.10345000E+03  0.73957E-01
 0.10350000E+03  0.57426E-01
 0.10355000E+03  0.41688E-01
 0.10360000E+03  0.25500E-01
 0.10365000E+03  0.14425E-01
 0.10370000E+03  0.88068E-02
 0.10375000E+03 -0.46603E-03
 0.10380000E+03 -0.18064E-01
 0.10385000E+03 -0.36036E-01
 0.10390000E+03 -0.44979E-01
 0.10395000E+03 -0.46801E-01
 0.10400000E+03 -0.52529E-01
 0.10405000E+03 -0.61918E-01
 0.10410000E+03 -0.65994E-01
 0.10415000E+03 -0.64247E-01
 0.10420000E+03 -0.61919E-01
 0.10425000E+03 -0.72468E-01
 0.10430000E+03 -0.91621E-01
 0.10435000E+03 -0.99186E-01
 0.10440000E+03 -0.10932E+00
 0.10445000E+03 -0.12513E+00
 0.10450000E+03 -0.13993E+00
 0.10455000E+03 -0.14807E+00
 0.10460000E+03 -0.14671E+00
 0.10465000E+03 -0.13410E+00
 0.10470000E+03 -0.11486E+00
 0.10475000E+03 -0.10847E+00
 0.10480000E+03 -0.11049E+00
 0.10485000E+03 -0.12403E+00
 0.10490000E+03 -0.14523E+00
 0.10495000E+03 -0.16254E+00
 0.10500000E+03 -0.16986E+00
 0.10505000E+03 -0.15836E+00
 0.10510000E+03 -0.14099E+00
 0.10515000E+03 -0.12736E+00
 0.10520000E+03 -0.11807E+00
 0.10525000E+03 -0.11008E+00
 0.10530000E+03 -0.95950E-01
 0.10535000E+03 -0.76108E-01
 0.10540000E+03 -0.60765E-01
 0.10545000E+03 -0.50770E-01
 0.10550000E+03 -0.42026E-01
 0.10555000E+03 -0.35051E-01
 0.10560000E+03 -0.24495E-01
 0.10565000E+03 -0.19529E-02
 0.10570000E+03  0.22042E-01
 0.10575000E+03  0.45336E-01
 0.10580000E+03  0.62590E-01
 0.10585000E+03  0.64651E-01
 0.10590000E+03  0.72542E-01
 0.10595000E+03  0.83386E-01
 0.10600000E+03  0.93423E-01
 0.10605000E+03  0.10246E+00
 0.10610000E+03  0.10852E+00
 0.10615000E+03  0.11337E+00
 0.10620000E+03  0.11947E+00
 0.10625000E+03  0.12600E+00
 0.10630000E+03  0.12738E+00
 0.10635000E+03  0.13353E+00
 0.10640000E+03  0.14201E+00
 0.10645000E+03  0.15778E+00
 0.10650000E+03  0.17480E+00
 0.10655000E+03  0.18141E+00
 0.10660000E+03  0.18830E+00
 0.10665000E+03  0.18779E+00
 0.10670000E+03  0.18460E+00
 0.10675000E+03  0.17848E+00
 0.10680000E+03  0.16430E+00
 0.10685000E+03  0.14507E+00
 0.10690000E+03  0.11280E+00
 0.10695000E+03  0.63721E-01
 0.10700000E+03  0.11907E-01
 0.10705000E+03 -0.32419E-01
 0.10710000E+03 -0.69065E-01
 0.10715000E+03 -0.89196E-01
 0.10720000E+03 -0.95416E-01
 0.10725000E+03 -0.90553E-01
 0.10730000E+03 -0.87573E-01
 0.10735000E+03 -0.90748E-01
 0.10740000E+03 -0.89688E-01
 0.10745000E+03 -0.88131E-01
 0.10750000E+03 -0.91119E-01
 0.10755000E+03 -0.10175E+00
 0.10760000E+03 -0.11234E+00
 0.10765000E+03 -0.11379E+00
 0.10770000E+03 -0.10145E+00
 0.10775000E+03 -0.84049E-01
 0.10780000E+03 -0.66605E-01
 0.10785000E+03 -0.37390E-01
 0.10790000E+03 -0.65332E-02
 0.10795000E+03  0.13295E-01
 0.10800000E+03  0.27535E-01
 0.10805000E+03  0.27537E-01
 0.10810000E+03  0.17473E-01
 0.10815000E+03  0.32329E-02
 0.10820000E+03 -0.83037E-02
 0.10825000E+03 -0.17758E-01
 0.10830000E+03 -0.37931E-01
 0.10835000E+03 -0.53376E-01
 0.10840000E+03 -0.62651E-01
 0.10845000E+03 -0.65983E-01
 0.10850000E+03 -0.67566E-01
 0.10855000E+03 -0.63763E-01
 0.10860000E+03 -0.52806E-01
 0.10865000E+03 -0.35947E-01
 0.10870000E+03 -0.66502E-02
 0.10875000E+03  0.21756E-01
 0.10880000E+03  0.39625E-01
 0.10885000E+03  0.46706E-01
 0.10890000E+03  0.50364E-01
 0.10895000E+03  0.46408E-01
 0.10900000E+03  0.39448E-01
 0.10905000E+03  0.32538E-01
 0.10910000E+03  0.15483E-01
 0.10915000E+03 -0.25650E-02
 0.10920000E+03 -0.17459E-01
 0.10925000E+03 -0.20193E-01
 0.10930000E+03 -0.62914E-02
 0.10935000E+03  0.14729E-01
 0.10940000E+03  0.33423E-01
 0.10945000E+03  0.52689E-01
 0.10950000E+03  0.77511E-01
 0.10955000E+03  0.98670E-01
 0.10960000E+03  0.11158E+00
 0.10965000E+03  0.11463E+00
 0.10970000E+03  0.99638E-01
 0.10975000E+03  0.70914E-01
 0.10980000E+03  0.39585E-01
 0.10985000E+03 -0.41452E-02
 0.10990000E+03 -0.41670E-01
 0.10995000E+03 -0.62051E-01
 0.11000000E+03 -0.74613E-01
 0.11005000E+03 -0.77288E-01
 0.11010000E+03 -0.71708E-01
 0.11015000E+03 -0.60149E-01
 0.11020000E+03 -0.46392E-01
 0.11025000E+03 -0.24553E-01
 0.11030000E+03  0.15165E-02
 0.11035000E+03  0.19277E-01
 0.11040000E+03  0.26873E-01
 0.11045000E+03  0.27693E-01
 0.11050000E+03  0.24423E-01
 0.11055000E+03  0.21713E-01
 0.11060000E+03  0.17776E-01
 0.11065000E+03  0.55915E-02
 0.11070000E+03 -0.56793E-02
 0.11075000E+03 -0.16660E-01
 0.11080000E+03 -0.24973E-01
 0.11085000E+03 -0.28532E-01
 0.11090000E+03 -0.24946E-01
 0.11095000E+03 -0.16118E-01
 0.11100000E+03 -0.74371E-02
 0.11105000E+03  0.76238E-02
 0.11110000E+03  0.23372E-01
 0.11115000E+03  0.37888E-01
 0.11120000E+03  0.38927E-01
 0.11125000E+03  0.25379E-01
 0.11130000E+03  0.12805E-01
 0.11135000E+03  0.64626E-02
 0.11140000E+03  0.38328E-02
 0.11145000E+03  0.67374E-02
 0.11150000E+03  0.11432E-01
 0.11155000E+03  0.14959E-01
 0.11160000E+03  0.18165E-01
 0.11165000E+03  0.96494E-02
 0.11170000E+03 -0.98099E-02
 0.11175000E+03 -0.31589E-01
 0.11180000E+03 -0.47173E-01
 0.11185000E+03 -0.55909E-01
 0.11190000E+03 -0.61810E-01
 0.11195000E+03 -0.62109E-01
 0.11200000E+03 -0.54592E-01
 0.11205000E+03 -0.44102E-01
 0.11210000E+03 -0.38348E-01
 0.11215000E+03 -0.39538E-01
 0.11220000E+03 -0.47384E-01
 0.11225000E+03 -0.58197E-01
 0.11230000E+03 -0.71601E-01
 0.11235000E+03 -0.83260E-01
 0.11240000E+03 -0.95670E-01
 0.11245000E+03 -0.99010E-01
 0.11250000E+03 -0.89741E-01
 0.11255000E+03 -0.70150E-01
 0.11260000E+03 -0.40209E-01
 0.11265000E+03 -0.17581E-01
 0.11270000E+03  0.14491E-02
 0.11275000E+03  0.14388E-01
 0.11280000E+03  0.18812E-01
 0.11285000E+03  0.17255E-01
 0.11290000E+03  0.10206E-01
 0.11295000E+03  0.14095E-02
 0.11300000E+03 -0.67315E-02
 0.11305000E+03 -0.15059E-01
 0.11310000E+03 -0.37462E-01
 0.11315000E+03 -0.61100E-01
 0.11320000E+03 -0.78244E-01
 0.11325000E+03 -0.88676E-01
 0.11330000E+03 -0.84108E-01
 0.11335000E+03 -0.69385E-01
 0.11340000E+03 -0.57172E-01
 0.11345000E+03 -0.48784E-01
 0.11350000E+03 -0.41117E-01
 0.11355000E+03 -0.36363E-01
 0.11360000E+03 -0.33193E-01
 0.11365000E+03 -0.36446E-01
 0.11370000E+03 -0.35911E-01
 0.11375000E+03 -0.35004E-01
 0.11380000E+03 -0.30439E-01
 0.11385000E+03 -0.20459E-01
 0.11390000E+03 -0.13785E-01
 0.11395000E+03 -0.88220E-02
 0.11400000E+03  0.68520E-02
 0.11405000E+03  0.34208E-01
 0.11410000E+03  0.69976E-01
 0.11415000E+03  0.10861E+00
 0.11420000E+03  0.14038E+00
 0.11425000E+03  0.16785E+00
 0.11430000E+03  0.18072E+00
 0.11435000E+03  0.18254E+00
 0.11440000E+03  0.17522E+00
 0.11445000E+03  0.16224E+00
 0.11450000E+03  0.14474E+00
 0.11455000E+03  0.12130E+00
 0.11460000E+03  0.98224E-01
 0.11465000E+03  0.83752E-01
 0.11470000E+03  0.81371E-01
 0.11475000E+03  0.88494E-01
 0.11480000E+03  0.10803E+00
 0.11485000E+03  0.13276E+00
 0.11490000E+03  0.15364E+00
 0.11495000E+03  0.17362E+00
 0.11500000E+03  0.18067E+00
 0.11505000E+03  0.17072E+00
 0.11510000E+03  0.14916E+00
 0.11515000E+03  0.11340E+00
 0.11520000E+03  0.68538E-01
 0.11525000E+03  0.33453E-01
 0.11530000E+03  0.15178E-01
 0.11535000E+03  0.36020E-02
 0.11540000E+03 -0.35656E-02
 0.11545000E+03 -0.58687E-02
 0.11550000E+03 -0.44977E-02
 0.11555000E+03 -0.91779E-02
 0.11560000E+03 -0.14636E-01
 0.11565000E+03 -0.27586E-01
 0.11570000E+03 -0.43449E-01
 0.11575000E+03 -0.52143E-01
 0.11580000E+03 -0.61497E-01
 0.11585000E+03 -0.65381E-01
 0.11590000E+03 -0.62435E-01
 0.11595000E+03 -0.62187E-01
 0.11600000E+03 -0.64317E-01
 0.11605000E+03 -0.63554E-01
 0.11610000E+03 -0.58838E-01
 0.11615000E+03 -0.48369E-01
 0.11620000E+03 -0.38223E-01
 0.11625000E+03 -0.26396E-01
 0.11630000E+03 -0.18297E-01
 0.11635000E+03 -0.10102E-01
 0.11640000E+03 -0.30621E-02
 0.11645000E+03 -0.76919E-02
 0.11650000E+03 -0.13927E-01
 0.11655000E+03 -0.18089E-01
 0.11660000E+03 -0.26356E-01
 0.11665000E+03 -0.40529E-01
 0.11670000E+03 -0.52550E-01
 0.11675000E+03 -0.69083E-01
 0.11680000E+03 -0.85850E-01
 0.11685000E+03 -0.94801E-01
 0.11690000E+03 -0.10196E+00
 0.11695000E+03 -0.10579E+00
 0.11700000E+03 -0.98886E-01
 0.11705000E+03 -0.81610E-01
 0.11710000E+03 -0.62288E-01
 0.11715000E+03 -0.39596E-01
 0.11720000E+03 -0.24755E-01
 0.11725000E+03 -0.20979E-01
 0.11730000E+03 -0.20308E-01
 0.11735000E+03 -0.24436E-01
 0.11740000E+03 -0.32654E-01
 0.11745000E+03 -0.38775E-01
 0.11750000E+03 -0.38067E-01
 0.11755000E+03 -0.35728E-01
 0.11760000E+03 -0.32592E-01
 0.11765000E+03 -0.24768E-01
 0.11770000E+03 -0.15110E-01
 0.11775000E+03 -0.76424E-03
 0.11780000E+03  0.11877E-01
 0.11785000E+03  0.21550E-01
 0.11790000E+03  0.35235E-01
 0.11795000E+03  0.46646E-01
 0.11800000E+03  0.54230E-01
 0.11805000E+03  0.56121E-01
 0.11810000E+03  0.50881E-01
 0.11815000E+03  0.38432E-01
 0.11820000E+03  0.30308E-01
 0.11825000E+03  0.26386E-01
 0.11830000E+03  0.23967E-01
 0.11835000E+03  0.30866E-01
 0.11840000E+03  0.38906E-01
 0.11845000E+03  0.40337E-01
 0.11850000E+03  0.27587E-01
 0.11855000E+03  0.66342E-02
 0.11860000E+03 -0.18730E-01
 0.11865000E+03 -0.40847E-01
 0.11870000E+03 -0.58173E-01
 0.11875000E+03 -0.65806E-01
 0.11880000E+03 -0.55410E-01
 0.11885000E+03 -0.30440E-01
 0.11890000E+03  0.20443E-02
 0.11895000E+03  0.27363E-01
 0.11900000E+03  0.48285E-01
 0.11905000E+03  0.65113E-01
 0.11910000E+03  0.79018E-01
 0.11915000E+03  0.84877E-01
 0.11920000E+03  0.84860E-01
 0.11925000E+03  0.76609E-01
 0.11930000E+03  0.65079E-01
 0.11935000E+03  0.54891E-01
 0.11940000E+03  0.41240E-01
 0.11945000E+03  0.30538E-01
 0.11950000E+03  0.19261E-01
 0.11955000E+03  0.52691E-02
 0.11960000E+03 -0.20251E-02
 0.11965000E+03  0.16330E-02
 0.11970000E+03  0.10966E-01
 0.11975000E+03  0.25134E-01
 0.11980000E+03  0.34721E-01
 0.11985000E+03  0.39266E-01
 0.11990000E+03  0.37942E-01
 0.11995000E+03  0.35155E-01
 0.12000000E+03  0.13333E-01
