 0.00000000E+00 -0.35571E-03
 0.50000001E-01 -0.45240E-03
 0.10000000E+00 -0.45185E-03
 0.15000001E+00 -0.44389E-03
 0.20000000E+00 -0.45898E-03
 0.25000000E+00 -0.45682E-03
 0.30000001E+00 -0.45361E-03
 0.34999999E+00 -0.45134E-03
 0.40000001E+00 -0.40391E-03
 0.45000002E+00 -0.36411E-03
 0.50000000E+00 -0.29231E-03
 0.55000001E+00 -0.25374E-03
 0.60000002E+00 -0.18206E-03
 0.65000004E+00 -0.12647E-03
 0.69999999E+00 -0.57073E-04
 0.75000000E+00  0.35221E-04
 0.80000001E+00  0.89134E-04
 0.85000002E+00  0.17850E-03
 0.90000004E+00  0.24388E-03
 0.94999999E+00  0.29798E-03
 0.10000000E+01  0.35644E-03
 0.10500001E+01  0.39919E-03
 0.11000000E+01  0.44804E-03
 0.11500000E+01  0.48658E-03
 0.12000000E+01  0.52091E-03
 0.12500000E+01  0.54941E-03
 0.13000001E+01  0.55318E-03
 0.13500000E+01  0.56793E-03
 0.14000000E+01  0.53799E-03
 0.14500000E+01  0.50150E-03
 0.15000000E+01  0.46441E-03
 0.15500001E+01  0.40357E-03
 0.16000000E+01  0.35532E-03
 0.16500000E+01  0.31705E-03
 0.17000000E+01  0.26561E-03
 0.17500000E+01  0.19175E-03
 0.18000001E+01  0.12836E-03
 0.18500000E+01  0.51816E-04
 0.19000000E+01 -0.20598E-04
 0.19500000E+01 -0.57266E-04
 0.20000000E+01 -0.99736E-04
 0.20500000E+01 -0.13221E-03
 0.21000001E+01 -0.14893E-03
 0.21500001E+01 -0.15822E-03
 0.22000000E+01 -0.14405E-03
 0.22500000E+01 -0.15293E-03
 0.23000000E+01 -0.13044E-03
 0.23500001E+01 -0.86597E-04
 0.24000001E+01 -0.52680E-04
 0.24500000E+01 -0.52313E-05
 0.25000000E+01  0.21920E-04
 0.25500000E+01  0.59448E-04
 0.26000001E+01  0.71711E-04
 0.26500001E+01  0.11417E-03
 0.27000000E+01  0.15049E-03
 0.27500000E+01  0.16461E-03
 0.28000000E+01  0.19458E-03
 0.28500001E+01  0.18674E-03
 0.29000001E+01  0.17934E-03
 0.29500000E+01  0.15481E-03
 0.30000000E+01  0.14633E-03
 0.30500000E+01  0.12870E-03
 0.31000001E+01  0.12108E-03
 0.31500001E+01  0.10734E-03
 0.32000000E+01  0.99094E-04
 0.32500000E+01  0.97760E-04
 0.33000000E+01  0.86348E-04
 0.33500001E+01  0.10081E-03
 0.34000001E+01  0.79532E-04
 0.34500000E+01  0.85533E-04
 0.35000000E+01  0.76062E-04
 0.35500000E+01  0.61533E-04
 0.36000001E+01  0.56141E-04
 0.36500001E+01  0.45798E-04
 0.37000000E+01  0.21671E-04
 0.37500000E+01  0.13952E-04
 0.38000000E+01  0.15580E-05
 0.38500001E+01 -0.23096E-04
 0.39000001E+01 -0.38912E-04
 0.39500000E+01 -0.79278E-04
 0.40000000E+01 -0.85844E-04
 0.40500002E+01 -0.10144E-03
 0.40999999E+01 -0.11541E-03
 0.41500001E+01 -0.14404E-03
 0.42000003E+01 -0.16554E-03
 0.42500000E+01 -0.20225E-03
 0.43000002E+01 -0.22477E-03
 0.43499999E+01 -0.26408E-03
 0.44000001E+01 -0.29729E-03
 0.44500003E+01 -0.31093E-03
 0.45000000E+01 -0.32280E-03
 0.45500002E+01 -0.33333E-03
 0.45999999E+01 -0.34711E-03
 0.46500001E+01 -0.36094E-03
 0.47000003E+01 -0.37205E-03
 0.47500000E+01 -0.36556E-03
 0.48000002E+01 -0.35880E-03
 0.48499999E+01 -0.32227E-03
 0.49000001E+01 -0.31304E-03
 0.49500003E+01 -0.28323E-03
 0.50000000E+01 -0.26670E-03
 0.50500002E+01 -0.26530E-03
 0.50999999E+01 -0.21701E-03
 0.51500001E+01 -0.20893E-03
 0.52000003E+01 -0.17415E-03
 0.52500000E+01 -0.14120E-03
 0.53000002E+01 -0.11709E-03
 0.53499999E+01 -0.64817E-04
 0.54000001E+01 -0.37791E-04
 0.54500003E+01  0.86387E-05
 0.55000000E+01  0.56963E-04
 0.55500002E+01  0.67471E-04
 0.55999999E+01  0.90285E-04
 0.56500001E+01  0.12839E-03
 0.57000003E+01  0.14547E-03
 0.57500000E+01  0.19082E-03
 0.58000002E+01  0.24115E-03
 0.58499999E+01  0.29024E-03
 0.59000001E+01  0.33047E-03
 0.59500003E+01  0.38785E-03
 0.60000000E+01  0.40082E-03
 0.60500002E+01  0.43381E-03
 0.60999999E+01  0.45873E-03
 0.61500001E+01  0.44887E-03
 0.62000003E+01  0.46149E-03
 0.62500000E+01  0.45126E-03
 0.63000002E+01  0.45714E-03
 0.63499999E+01  0.43266E-03
 0.64000001E+01  0.43774E-03
 0.64500003E+01  0.43440E-03
 0.65000000E+01  0.41044E-03
 0.65500002E+01  0.39172E-03
 0.65999999E+01  0.37710E-03
 0.66500001E+01  0.37511E-03
 0.67000003E+01  0.34450E-03
 0.67500000E+01  0.33123E-03
 0.68000002E+01  0.32021E-03
 0.68499999E+01  0.29223E-03
 0.69000001E+01  0.28483E-03
 0.69500003E+01  0.29187E-03
 0.70000000E+01  0.25747E-03
 0.70500002E+01  0.24475E-03
 0.70999999E+01  0.20626E-03
 0.71500001E+01  0.17367E-03
 0.72000003E+01  0.17159E-03
 0.72500000E+01  0.13869E-03
 0.73000002E+01  0.10644E-03
 0.73499999E+01  0.46684E-04
 0.74000001E+01  0.26743E-04
 0.74500003E+01 -0.89894E-05
 0.75000000E+01 -0.30812E-04
 0.75500002E+01 -0.79496E-04
 0.75999999E+01 -0.11377E-03
 0.76500001E+01 -0.13584E-03
 0.77000003E+01 -0.18824E-03
 0.77500000E+01 -0.22315E-03
 0.78000002E+01 -0.29040E-03
 0.78499999E+01 -0.32836E-03
 0.79000001E+01 -0.36366E-03
 0.79500003E+01 -0.43352E-03
 0.80000000E+01 -0.52208E-03
 0.80500002E+01 -0.60005E-03
 0.81000004E+01 -0.68084E-03
 0.81500006E+01 -0.75401E-03
 0.81999998E+01 -0.80882E-03
 0.82500000E+01 -0.85760E-03
 0.83000002E+01 -0.88389E-03
 0.83500004E+01 -0.90093E-03
 0.84000006E+01 -0.94139E-03
 0.84499998E+01 -0.93733E-03
 0.85000000E+01 -0.92131E-03
 0.85500002E+01 -0.90335E-03
 0.86000004E+01 -0.84513E-03
 0.86500006E+01 -0.79998E-03
 0.86999998E+01 -0.73929E-03
 0.87500000E+01 -0.66015E-03
 0.88000002E+01 -0.56964E-03
 0.88500004E+01 -0.47100E-03
 0.89000006E+01 -0.38825E-03
 0.89499998E+01 -0.29497E-03
 0.90000000E+01 -0.19359E-03
 0.90500002E+01 -0.10421E-03
 0.91000004E+01  0.20892E-05
 0.91500006E+01  0.77244E-04
 0.91999998E+01  0.17269E-03
 0.92500000E+01  0.27257E-03
 0.93000002E+01  0.34380E-03
 0.93500004E+01  0.47246E-03
 0.94000006E+01  0.56220E-03
 0.94499998E+01  0.66900E-03
 0.95000000E+01  0.77595E-03
 0.95500002E+01  0.88982E-03
 0.96000004E+01  0.10014E-02
 0.96500006E+01  0.10935E-02
 0.96999998E+01  0.11679E-02
 0.97500000E+01  0.12170E-02
 0.98000002E+01  0.12494E-02
 0.98500004E+01  0.12778E-02
 0.99000006E+01  0.12682E-02
 0.99499998E+01  0.12758E-02
 0.10000000E+02  0.12859E-02
 0.10050000E+02  0.12735E-02
 0.10100000E+02  0.12614E-02
 0.10150001E+02  0.12004E-02
 0.10200000E+02  0.11635E-02
 0.10250000E+02  0.11003E-02
 0.10300000E+02  0.10520E-02
 0.10350000E+02  0.98339E-03
 0.10400001E+02  0.88610E-03
 0.10450000E+02  0.76957E-03
 0.10500000E+02  0.66159E-03
 0.10550000E+02  0.53547E-03
 0.10600000E+02  0.44056E-03
 0.10650001E+02  0.33299E-03
 0.10700000E+02  0.20971E-03
 0.10750000E+02  0.11764E-03
 0.10800000E+02  0.63368E-05
 0.10850000E+02 -0.88977E-04
 0.10900001E+02 -0.17532E-03
 0.10950000E+02 -0.24745E-03
 0.11000000E+02 -0.31104E-03
 0.11050000E+02 -0.36188E-03
 0.11100000E+02 -0.42180E-03
 0.11150001E+02 -0.47464E-03
 0.11200000E+02 -0.49989E-03
 0.11250000E+02 -0.49117E-03
 0.11300000E+02 -0.48783E-03
 0.11350000E+02 -0.47331E-03
 0.11400001E+02 -0.45652E-03
 0.11450000E+02 -0.45369E-03
 0.11500000E+02 -0.44289E-03
 0.11550000E+02 -0.43590E-03
 0.11600000E+02 -0.42567E-03
 0.11650001E+02 -0.41361E-03
 0.11700000E+02 -0.42035E-03
 0.11750000E+02 -0.41066E-03
 0.11800000E+02 -0.39241E-03
 0.11850000E+02 -0.38523E-03
 0.11900001E+02 -0.36003E-03
 0.11950000E+02 -0.36579E-03
 0.12000000E+02 -0.37651E-03
 0.12050000E+02 -0.38598E-03
 0.12100000E+02 -0.39424E-03
 0.12150001E+02 -0.39660E-03
 0.12200000E+02 -0.39749E-03
 0.12250000E+02 -0.41613E-03
 0.12300000E+02 -0.42493E-03
 0.12350000E+02 -0.43056E-03
 0.12400001E+02 -0.43286E-03
 0.12450000E+02 -0.42458E-03
 0.12500000E+02 -0.42104E-03
 0.12550000E+02 -0.39508E-03
 0.12600000E+02 -0.36221E-03
 0.12650001E+02 -0.32512E-03
 0.12700000E+02 -0.28828E-03
 0.12750000E+02 -0.26035E-03
 0.12800000E+02 -0.24109E-03
 0.12850000E+02 -0.20392E-03
 0.12900001E+02 -0.17247E-03
 0.12950000E+02 -0.14130E-03
 0.13000000E+02 -0.87217E-04
 0.13050000E+02 -0.36525E-04
 0.13100000E+02  0.44833E-04
 0.13150001E+02  0.10933E-03
 0.13200000E+02  0.16655E-03
 0.13250000E+02  0.23264E-03
 0.13300000E+02  0.27134E-03
 0.13350000E+02  0.32858E-03
 0.13400001E+02  0.38029E-03
 0.13450000E+02  0.43631E-03
 0.13500000E+02  0.46764E-03
 0.13550000E+02  0.50288E-03
 0.13600000E+02  0.53953E-03
 0.13650001E+02  0.56888E-03
 0.13700000E+02  0.60426E-03
 0.13750000E+02  0.61604E-03
 0.13800000E+02  0.63511E-03
 0.13850000E+02  0.62283E-03
 0.13900001E+02  0.61009E-03
 0.13950000E+02  0.59906E-03
 0.14000000E+02  0.57757E-03
 0.14050000E+02  0.54462E-03
 0.14100000E+02  0.52296E-03
 0.14150001E+02  0.49267E-03
 0.14200000E+02  0.47230E-03
 0.14250000E+02  0.45175E-03
 0.14300000E+02  0.40490E-03
 0.14350000E+02  0.36911E-03
 0.14400001E+02  0.32926E-03
 0.14450000E+02  0.30930E-03
 0.14500000E+02  0.29934E-03
 0.14550000E+02  0.28388E-03
 0.14600000E+02  0.27566E-03
 0.14650001E+02  0.27355E-03
 0.14700000E+02  0.22785E-03
 0.14750000E+02  0.18727E-03
 0.14800000E+02  0.18414E-03
 0.14850000E+02  0.19628E-03
 0.14900001E+02  0.20087E-03
 0.14950000E+02  0.19798E-03
 0.15000000E+02  0.18261E-03
 0.15050000E+02  0.17794E-03
 0.15100000E+02  0.15451E-03
 0.15150001E+02  0.13590E-03
 0.15200000E+02  0.13829E-03
 0.15250000E+02  0.11925E-03
 0.15300000E+02  0.12079E-03
 0.15350000E+02  0.10774E-03
 0.15400001E+02  0.11419E-03
 0.15450000E+02  0.11412E-03
 0.15500000E+02  0.85550E-04
 0.15550000E+02  0.79033E-04
 0.15600000E+02  0.58024E-04
 0.15650001E+02  0.42430E-04
 0.15700000E+02  0.34387E-04
 0.15750000E+02  0.22102E-04
 0.15800000E+02  0.16577E-04
 0.15850000E+02  0.22986E-04
 0.15900001E+02  0.49873E-05
 0.15950000E+02 -0.38973E-05
 0.16000000E+02 -0.11595E-04
 0.16050001E+02 -0.26232E-04
 0.16100000E+02 -0.21136E-04
 0.16150000E+02 -0.19115E-04
 0.16200001E+02 -0.21247E-04
 0.16250000E+02 -0.39085E-04
 0.16300001E+02 -0.33267E-04
 0.16350000E+02 -0.49803E-04
 0.16400000E+02 -0.86242E-04
 0.16450001E+02 -0.13121E-03
 0.16500000E+02 -0.16725E-03
 0.16550001E+02 -0.21131E-03
 0.16600000E+02 -0.25330E-03
 0.16650000E+02 -0.30211E-03
 0.16700001E+02 -0.35811E-03
 0.16750000E+02 -0.39676E-03
 0.16800001E+02 -0.47897E-03
 0.16850000E+02 -0.52676E-03
 0.16900000E+02 -0.60445E-03
 0.16950001E+02 -0.67261E-03
 0.17000000E+02 -0.72927E-03
 0.17050001E+02 -0.79517E-03
 0.17100000E+02 -0.83028E-03
 0.17150000E+02 -0.87256E-03
 0.17200001E+02 -0.87839E-03
 0.17250000E+02 -0.87064E-03
 0.17300001E+02 -0.82060E-03
 0.17350000E+02 -0.77256E-03
 0.17400000E+02 -0.73165E-03
 0.17450001E+02 -0.63739E-03
 0.17500000E+02 -0.55582E-03
 0.17550001E+02 -0.45103E-03
 0.17600000E+02 -0.33819E-03
 0.17650000E+02 -0.21682E-03
 0.17700001E+02 -0.86985E-04
 0.17750000E+02  0.57392E-04
 0.17800001E+02  0.21553E-03
 0.17850000E+02  0.32649E-03
 0.17900000E+02  0.45903E-03
 0.17950001E+02  0.58155E-03
 0.18000000E+02  0.69924E-03
 0.18050001E+02  0.84297E-03
 0.18100000E+02  0.10024E-02
 0.18150000E+02  0.11234E-02
 0.18200001E+02  0.13781E-02
 0.18250000E+02  0.19290E-02
 0.18300001E+02  0.22395E-02
 0.18350000E+02  0.21806E-02
 0.18400000E+02  0.16297E-02
 0.18450001E+02  0.97678E-03
 0.18500000E+02  0.14698E-02
 0.18550001E+02  0.14505E-02
 0.18600000E+02  0.15540E-02
 0.18650000E+02  0.11430E-02
 0.18700001E+02  0.15443E-02
 0.18750000E+02  0.11349E-02
 0.18800001E+02  0.53334E-03
 0.18850000E+02 -0.10227E-02
 0.18900000E+02 -0.38224E-02
 0.18950001E+02 -0.99058E-02
 0.19000000E+02 -0.20610E-01
 0.19050001E+02 -0.39061E-01
 0.19100000E+02 -0.64979E-01
 0.19150000E+02 -0.94388E-01
 0.19200001E+02 -0.12460E+00
 0.19250000E+02 -0.16497E+00
 0.19300001E+02 -0.17456E+00
 0.19350000E+02 -0.89417E-01
 0.19400000E+02  0.50864E-02
 0.19450001E+02  0.62906E-01
 0.19500000E+02  0.20106E-02
 0.19550001E+02 -0.11006E+00
 0.19600000E+02 -0.61428E-01
 0.19650000E+02 -0.11988E-01
 0.19700001E+02 -0.13351E-01
 0.19750000E+02 -0.51152E-02
 0.19800001E+02  0.49375E-01
 0.19850000E+02  0.11614E+00
 0.19900000E+02  0.82950E-01
 0.19950001E+02  0.79120E-01
 0.20000000E+02  0.23988E-01
 0.20050001E+02  0.36681E-01
 0.20100000E+02  0.10024E+00
 0.20150000E+02  0.53837E-01
 0.20200001E+02  0.39407E-01
 0.20250000E+02 -0.26046E-02
 0.20300001E+02 -0.68016E-01
 0.20350000E+02 -0.93160E-01
 0.20400000E+02  0.19606E-01
 0.20450001E+02  0.79929E-01
 0.20500000E+02  0.69017E-01
 0.20550001E+02 -0.96495E-02
 0.20600000E+02 -0.17166E+00
 0.20650000E+02 -0.17131E+00
 0.20700001E+02 -0.52083E-01
 0.20750000E+02 -0.23085E-01
 0.20800001E+02 -0.64708E-01
 0.20850000E+02  0.17880E-01
 0.20900000E+02  0.45876E-01
 0.20950001E+02  0.42287E-01
 0.21000000E+02  0.51473E-01
 0.21050001E+02  0.20234E-01
 0.21100000E+02  0.19203E-01
 0.21150000E+02  0.15945E+00
 0.21200001E+02  0.25849E+00
 0.21250000E+02  0.16736E+00
 0.21300001E+02  0.13745E+00
 0.21350000E+02  0.89560E-01
 0.21400000E+02  0.86147E-01
 0.21450001E+02  0.15597E+00
 0.21500000E+02  0.69953E-01
 0.21550001E+02  0.38750E-01
 0.21600000E+02  0.76140E-01
 0.21650000E+02  0.86514E-02
 0.21700001E+02 -0.41845E-01
 0.21750000E+02 -0.67445E-01
 0.21800001E+02 -0.50611E-01
 0.21850000E+02 -0.25636E-01
 0.21900000E+02 -0.35395E-01
 0.21950001E+02 -0.25140E-01
 0.22000000E+02  0.74551E-01
 0.22050001E+02  0.69840E-01
 0.22100000E+02  0.16405E-01
 0.22150000E+02  0.14870E-01
 0.22200001E+02  0.34718E-01
 0.22250000E+02  0.74057E-01
 0.22300001E+02  0.17744E-01
 0.22350000E+02 -0.24383E-01
 0.22400000E+02 -0.51520E-01
 0.22450001E+02 -0.18739E-01
 0.22500000E+02  0.34589E-01
 0.22550001E+02  0.94808E-02
 0.22600000E+02 -0.12518E-01
 0.22650000E+02 -0.20475E-01
 0.22700001E+02 -0.90786E-01
 0.22750000E+02 -0.13024E+00
 0.22800001E+02 -0.60160E-01
 0.22850000E+02  0.50922E-01
 0.22900000E+02  0.87782E-01
 0.22950001E+02  0.10555E+00
 0.23000000E+02  0.17574E+00
 0.23050001E+02  0.16722E+00
 0.23100000E+02  0.10136E+00
 0.23150000E+02  0.13329E-01
 0.23200001E+02 -0.63309E-01
 0.23250000E+02 -0.20945E-01
 0.23300001E+02  0.51076E-01
 0.23350000E+02  0.39221E-01
 0.23400000E+02 -0.24464E-01
 0.23450001E+02 -0.91253E-01
 0.23500000E+02 -0.13403E+00
 0.23550001E+02 -0.14010E+00
 0.23600000E+02 -0.11565E+00
 0.23650000E+02 -0.88537E-01
 0.23700001E+02 -0.43359E-02
 0.23750000E+02  0.16212E-02
 0.23800001E+02 -0.78677E-01
 0.23850000E+02 -0.82496E-01
 0.23900000E+02 -0.50508E-01
 0.23950001E+02 -0.61021E-01
 0.24000000E+02 -0.73335E-01
 0.24050001E+02 -0.24163E-02
 0.24100000E+02  0.92917E-01
 0.24150000E+02  0.15182E+00
 0.24200001E+02  0.69551E-01
 0.24250000E+02  0.24850E-01
 0.24300001E+02  0.43951E-01
 0.24350000E+02 -0.23571E-01
 0.24400000E+02  0.33486E-01
 0.24450001E+02  0.11033E+00
 0.24500000E+02  0.72115E-01
 0.24550001E+02  0.52998E-01
 0.24600000E+02  0.58197E-01
 0.24650000E+02 -0.43254E-02
 0.24700001E+02 -0.13497E+00
 0.24750000E+02 -0.20821E+00
 0.24800001E+02 -0.13368E+00
 0.24850000E+02  0.50696E-02
 0.24900000E+02 -0.22137E-01
 0.24950001E+02 -0.55893E-01
 0.25000000E+02 -0.34055E-01
 0.25050001E+02 -0.12495E+00
 0.25100000E+02 -0.23415E+00
 0.25150000E+02 -0.23167E+00
 0.25200001E+02 -0.30846E-01
 0.25250000E+02  0.12769E+00
 0.25300001E+02  0.12301E+00
 0.25350000E+02  0.70025E-01
 0.25400000E+02  0.44469E-02
 0.25450001E+02  0.50202E-01
 0.25500000E+02  0.13929E+00
 0.25550001E+02  0.10403E+00
 0.25600000E+02  0.66296E-01
 0.25650000E+02  0.62778E-01
 0.25700001E+02  0.92264E-02
 0.25750000E+02 -0.76260E-01
 0.25800001E+02 -0.13238E+00
 0.25850000E+02 -0.97079E-01
 0.25900000E+02 -0.48975E-02
 0.25950001E+02 -0.30406E-01
 0.26000000E+02 -0.10460E+00
 0.26050001E+02 -0.11284E+00
 0.26100000E+02 -0.74857E-01
 0.26150000E+02 -0.28855E-01
 0.26200001E+02 -0.67511E-01
 0.26250000E+02 -0.37033E-01
 0.26300001E+02  0.59061E-01
 0.26350000E+02  0.10788E+00
 0.26400000E+02  0.14048E+00
 0.26450001E+02  0.11647E+00
 0.26500000E+02  0.20844E-01
 0.26550001E+02 -0.56130E-03
 0.26600000E+02  0.12256E-01
 0.26650000E+02  0.65689E-01
 0.26700001E+02  0.88563E-01
 0.26750000E+02 -0.10587E-03
 0.26800001E+02 -0.58623E-01
 0.26850000E+02 -0.10554E+00
 0.26900000E+02 -0.90623E-01
 0.26950001E+02 -0.58052E-01
 0.27000000E+02 -0.39556E-01
 0.27050001E+02 -0.10805E-02
 0.27100000E+02  0.18944E-01
 0.27150000E+02 -0.16426E-01
 0.27200001E+02 -0.10623E-01
 0.27250000E+02 -0.24266E-02
 0.27300001E+02  0.48338E-02
 0.27350000E+02  0.83215E-01
 0.27400000E+02  0.11075E+00
 0.27450001E+02  0.91984E-01
 0.27500000E+02  0.81076E-01
 0.27550001E+02  0.54791E-01
 0.27600000E+02  0.33537E-01
 0.27650000E+02  0.72590E-01
 0.27700001E+02  0.62955E-01
 0.27750000E+02  0.28499E-01
 0.27800001E+02  0.23422E-01
 0.27850000E+02  0.37619E-01
 0.27900000E+02  0.62654E-01
 0.27950001E+02  0.47301E-01
 0.28000000E+02  0.39717E-01
 0.28050001E+02 -0.33342E-01
 0.28100000E+02 -0.13098E+00
 0.28150000E+02 -0.11280E+00
 0.28200001E+02 -0.65609E-01
 0.28250000E+02 -0.59162E-01
 0.28300001E+02 -0.60064E-01
 0.28350000E+02 -0.34434E-01
 0.28400000E+02 -0.57815E-01
 0.28450001E+02 -0.96573E-01
 0.28500000E+02 -0.11131E+00
 0.28550001E+02 -0.25355E-01
 0.28600000E+02  0.75553E-01
 0.28650000E+02  0.57637E-01
 0.28700001E+02  0.66913E-01
 0.28750000E+02  0.81986E-01
 0.28800001E+02  0.11432E+00
 0.28850000E+02  0.74869E-01
 0.28900000E+02 -0.17133E-01
 0.28950001E+02 -0.31969E-01
 0.29000000E+02  0.92009E-02
 0.29050001E+02  0.14984E-01
 0.29100000E+02 -0.63499E-01
 0.29150000E+02 -0.91308E-01
 0.29200001E+02 -0.90170E-01
 0.29250000E+02 -0.11550E+00
 0.29300001E+02 -0.13555E+00
 0.29350000E+02 -0.15864E+00
 0.29400000E+02 -0.12917E+00
 0.29450001E+02 -0.12515E+00
 0.29500000E+02 -0.16280E+00
 0.29550001E+02 -0.14383E+00
 0.29600000E+02 -0.62970E-01
 0.29650000E+02  0.44186E-01
 0.29700001E+02  0.13042E+00
 0.29750000E+02  0.14004E+00
 0.29800001E+02  0.12442E+00
 0.29850000E+02  0.96241E-01
 0.29900000E+02  0.41388E-01
 0.29950001E+02  0.24147E-01
 0.30000000E+02  0.18181E-01
 0.30050001E+02  0.66147E-01
 0.30100000E+02  0.54832E-01
 0.30150000E+02 -0.51858E-02
 0.30200001E+02 -0.32384E-01
 0.30250000E+02 -0.16726E-01
 0.30300001E+02 -0.30289E-01
 0.30350000E+02 -0.89550E-01
 0.30400000E+02 -0.10624E+00
 0.30450001E+02 -0.10211E+00
 0.30500000E+02 -0.69744E-01
 0.30550001E+02 -0.63791E-01
 0.30600000E+02 -0.10719E+00
 0.30650000E+02 -0.11077E+00
 0.30700001E+02 -0.44797E-01
 0.30750000E+02  0.34916E-01
 0.30800001E+02  0.90318E-01
 0.30850000E+02  0.11999E+00
 0.30900000E+02  0.74552E-01
 0.30950001E+02  0.91562E-02
 0.31000000E+02  0.34257E-01
 0.31050001E+02  0.90914E-01
 0.31100000E+02  0.11832E+00
 0.31150000E+02  0.40990E-01
 0.31200001E+02 -0.26892E-01
 0.31250000E+02 -0.61626E-01
 0.31300001E+02 -0.89048E-01
 0.31350000E+02 -0.29915E-01
 0.31400000E+02  0.33042E-01
 0.31450001E+02  0.64277E-01
 0.31500000E+02 -0.27197E-02
 0.31550001E+02 -0.95674E-01
 0.31600000E+02 -0.99638E-01
 0.31650000E+02 -0.11122E+00
 0.31700001E+02 -0.12365E+00
 0.31750000E+02 -0.91192E-01
 0.31800001E+02 -0.46858E-01
 0.31850000E+02 -0.64418E-02
 0.31900000E+02 -0.12506E-01
 0.31950001E+02 -0.58120E-01
 0.32000000E+02 -0.11915E+00
 0.32049999E+02 -0.12796E+00
 0.32100002E+02 -0.92054E-01
 0.32150002E+02 -0.62762E-01
 0.32200001E+02 -0.17609E-01
 0.32250000E+02  0.27499E-01
 0.32299999E+02  0.72786E-01
 0.32350002E+02  0.87435E-01
 0.32400002E+02 -0.21799E-01
 0.32450001E+02 -0.23410E+00
 0.32500000E+02 -0.29241E+00
 0.32549999E+02 -0.17398E+00
 0.32600002E+02 -0.48633E-01
 0.32650002E+02  0.59206E-01
 0.32700001E+02  0.37847E-01
 0.32750000E+02 -0.60800E-01
 0.32799999E+02 -0.93423E-01
 0.32850002E+02 -0.10844E+00
 0.32900002E+02 -0.77934E-01
 0.32950001E+02 -0.47736E-01
 0.33000000E+02 -0.29098E-01
 0.33049999E+02 -0.56502E-01
 0.33100002E+02 -0.15272E+00
 0.33150002E+02 -0.17825E+00
 0.33200001E+02 -0.13830E+00
 0.33250000E+02 -0.55595E-02
 0.33299999E+02  0.18531E+00
 0.33350002E+02  0.30017E+00
 0.33400002E+02  0.20498E+00
 0.33450001E+02 -0.85014E-01
 0.33500000E+02 -0.32717E+00
 0.33549999E+02 -0.26954E+00
 0.33600002E+02 -0.38321E-02
 0.33650002E+02  0.27731E+00
 0.33700001E+02  0.48481E+00
 0.33750000E+02  0.55934E+00
 0.33799999E+02  0.49757E+00
 0.33850002E+02  0.27604E+00
 0.33900002E+02  0.32153E-01
 0.33950001E+02 -0.12424E+00
 0.34000000E+02 -0.22932E+00
 0.34049999E+02 -0.20010E+00
 0.34100002E+02 -0.12949E+00
 0.34150002E+02 -0.10380E+00
 0.34200001E+02  0.10301E+00
 0.34250000E+02  0.24547E+00
 0.34299999E+02  0.11884E+00
 0.34350002E+02 -0.14002E+00
 0.34400002E+02 -0.15206E+00
 0.34450001E+02  0.16691E+00
 0.34500000E+02  0.42193E+00
 0.34549999E+02  0.39446E+00
 0.34600002E+02  0.13415E+00
 0.34650002E+02 -0.94783E-01
 0.34700001E+02 -0.13685E+00
 0.34750000E+02 -0.10532E+00
 0.34799999E+02 -0.15599E+00
 0.34850002E+02 -0.69557E-01
 0.34900002E+02  0.24632E+00
 0.34950001E+02  0.71258E+00
 0.35000000E+02  0.10000E+01
 0.35049999E+02  0.85030E+00
 0.35100002E+02  0.56075E+00
 0.35150002E+02  0.20610E+00
 0.35200001E+02 -0.19663E+00
 0.35250000E+02 -0.63991E+00
 0.35299999E+02 -0.76521E+00
 0.35350002E+02 -0.26597E+00
 0.35400002E+02  0.34895E+00
 0.35450001E+02  0.53767E+00
 0.35500000E+02  0.17165E+00
 0.35549999E+02 -0.16691E+00
 0.35600002E+02 -0.11935E+00
 0.35650002E+02 -0.10576E+00
 0.35700001E+02 -0.25620E+00
 0.35750000E+02 -0.30906E+00
 0.35799999E+02 -0.24073E+00
 0.35850002E+02 -0.11829E+00
 0.35900002E+02  0.76284E-02
 0.35950001E+02 -0.62543E-02
 0.36000000E+02 -0.38579E-01
 0.36049999E+02  0.12091E+00
 0.36100002E+02  0.31462E+00
 0.36150002E+02  0.35862E+00
 0.36200001E+02  0.32930E+00
 0.36250000E+02  0.22409E+00
 0.36299999E+02  0.14902E+00
 0.36350002E+02  0.20947E+00
 0.36400002E+02  0.22169E+00
 0.36450001E+02  0.23424E+00
 0.36500000E+02  0.18971E+00
 0.36549999E+02 -0.14292E+00
 0.36600002E+02 -0.57828E+00
 0.36650002E+02 -0.78519E+00
 0.36700001E+02 -0.78200E+00
 0.36750000E+02 -0.67384E+00
 0.36799999E+02 -0.51549E+00
 0.36850002E+02 -0.32743E+00
 0.36900002E+02 -0.13815E+00
 0.36950001E+02 -0.12470E+00
 0.37000000E+02 -0.13887E+00
 0.37049999E+02 -0.47932E-01
 0.37100002E+02  0.83029E-01
 0.37150002E+02  0.21417E+00
 0.37200001E+02  0.29957E+00
 0.37250000E+02  0.28541E+00
 0.37299999E+02  0.31863E-01
 0.37350002E+02 -0.24137E+00
 0.37400002E+02 -0.32404E+00
 0.37450001E+02 -0.18861E+00
 0.37500000E+02  0.17185E+00
 0.37549999E+02  0.48328E+00
 0.37600002E+02  0.48756E+00
 0.37650002E+02  0.17725E+00
 0.37700001E+02 -0.14834E-01
 0.37750000E+02  0.19957E+00
 0.37799999E+02  0.50199E+00
 0.37850002E+02  0.48057E+00
 0.37900002E+02  0.11530E+00
 0.37950001E+02 -0.18580E+00
 0.38000000E+02 -0.30617E+00
 0.38049999E+02 -0.37170E+00
 0.38100002E+02 -0.27638E+00
 0.38150002E+02 -0.89277E-01
 0.38200001E+02 -0.39545E-01
 0.38250000E+02 -0.17891E+00
 0.38299999E+02 -0.33173E+00
 0.38350002E+02 -0.28352E+00
 0.38400002E+02 -0.17023E+00
 0.38450001E+02 -0.54737E-01
 0.38500000E+02  0.98796E-01
 0.38549999E+02  0.21061E+00
 0.38600002E+02  0.22185E+00
 0.38650002E+02  0.26254E+00
 0.38700001E+02  0.41046E+00
 0.38750000E+02  0.37889E+00
 0.38799999E+02  0.19929E+00
 0.38850002E+02  0.16591E+00
 0.38900002E+02  0.39225E+00
 0.38950001E+02  0.63832E+00
 0.39000000E+02  0.75717E+00
 0.39049999E+02  0.70730E+00
 0.39100002E+02  0.43446E+00
 0.39150002E+02  0.11174E+00
 0.39200001E+02 -0.72178E-01
 0.39250000E+02 -0.41990E-01
 0.39299999E+02 -0.38949E-02
 0.39350002E+02 -0.14237E+00
 0.39400002E+02 -0.39407E+00
 0.39450001E+02 -0.47606E+00
 0.39500000E+02 -0.46925E+00
 0.39549999E+02 -0.46605E+00
 0.39600002E+02 -0.37879E+00
 0.39650002E+02 -0.23663E+00
 0.39700001E+02 -0.18671E-01
 0.39750000E+02  0.63135E-01
 0.39799999E+02  0.33262E-01
 0.39850002E+02  0.14456E+00
 0.39900002E+02  0.29275E+00
 0.39950001E+02  0.29283E+00
 0.40000000E+02  0.28044E+00
 0.40049999E+02  0.40917E+00
 0.40100002E+02  0.47713E+00
 0.40150002E+02  0.33385E+00
 0.40200001E+02  0.16567E+00
 0.40250000E+02  0.23064E-01
 0.40299999E+02 -0.16638E+00
 0.40350002E+02 -0.37439E+00
 0.40400002E+02 -0.52077E+00
 0.40450001E+02 -0.39395E+00
 0.40500000E+02 -0.21822E+00
 0.40549999E+02 -0.17931E+00
 0.40600002E+02 -0.18951E+00
 0.40650002E+02 -0.26901E+00
 0.40700001E+02 -0.30845E+00
 0.40750000E+02 -0.28399E+00
 0.40799999E+02 -0.14699E+00
 0.40850002E+02 -0.10410E+00
 0.40900002E+02 -0.15212E+00
 0.40950001E+02 -0.13072E+00
 0.41000000E+02 -0.79415E-01
 0.41049999E+02  0.24956E-01
 0.41100002E+02  0.10159E+00
 0.41150002E+02  0.13781E+00
 0.41200001E+02  0.13429E+00
 0.41250000E+02  0.11592E+00
 0.41299999E+02  0.65673E-01
 0.41350002E+02  0.76793E-02
 0.41400002E+02  0.19214E-02
 0.41450001E+02 -0.14083E-01
 0.41500000E+02 -0.96952E-01
 0.41549999E+02 -0.30508E+00
 0.41600002E+02 -0.46946E+00
 0.41650002E+02 -0.40012E+00
 0.41700001E+02 -0.32193E+00
 0.41750000E+02 -0.26216E+00
 0.41799999E+02 -0.13715E+00
 0.41850002E+02 -0.28051E-01
 0.41900002E+02  0.69032E-01
 0.41950001E+02  0.55820E-01
 0.42000000E+02 -0.30202E-01
 0.42049999E+02 -0.10882E+00
 0.42100002E+02 -0.15474E+00
 0.42150002E+02 -0.15291E+00
 0.42200001E+02 -0.10368E+00
 0.42250000E+02 -0.19180E-02
 0.42299999E+02  0.86248E-01
 0.42350002E+02  0.17093E+00
 0.42400002E+02  0.28572E+00
 0.42450001E+02  0.35905E+00
 0.42500000E+02  0.28495E+00
 0.42549999E+02  0.12099E+00
 0.42600002E+02 -0.24467E-01
 0.42650002E+02 -0.98864E-01
 0.42700001E+02 -0.10531E+00
 0.42750000E+02 -0.10390E+00
 0.42799999E+02 -0.12061E+00
 0.42850002E+02 -0.13354E+00
 0.42900002E+02 -0.10932E+00
 0.42950001E+02 -0.50873E-01
 0.43000000E+02 -0.99005E-02
 0.43049999E+02 -0.48986E-01
 0.43100002E+02 -0.13091E+00
 0.43150002E+02 -0.13011E+00
 0.43200001E+02 -0.22189E-01
 0.43250000E+02  0.13037E+00
 0.43299999E+02  0.24592E+00
 0.43350002E+02  0.26986E+00
 0.43400002E+02  0.28212E+00
 0.43450001E+02  0.27147E+00
 0.43500000E+02  0.24087E+00
 0.43549999E+02  0.15314E+00
 0.43600002E+02  0.84869E-02
 0.43650002E+02 -0.55590E-01
 0.43700001E+02 -0.71804E-01
 0.43750000E+02 -0.13296E+00
 0.43799999E+02 -0.20603E+00
 0.43850002E+02 -0.25367E+00
 0.43900002E+02 -0.28305E+00
 0.43950001E+02 -0.24638E+00
 0.44000000E+02 -0.18579E+00
 0.44049999E+02 -0.14752E+00
 0.44100002E+02 -0.11441E+00
 0.44150002E+02 -0.87624E-01
 0.44200001E+02 -0.29359E-01
 0.44250000E+02  0.72078E-01
 0.44299999E+02  0.14521E+00
 0.44350002E+02  0.17573E+00
 0.44400002E+02  0.15937E+00
 0.44450001E+02  0.12106E+00
 0.44500000E+02  0.95385E-01
 0.44549999E+02  0.10921E+00
 0.44600002E+02  0.15043E+00
 0.44650002E+02  0.13096E+00
 0.44700001E+02  0.40045E-01
 0.44750000E+02 -0.29664E-01
 0.44799999E+02 -0.54185E-01
 0.44850002E+02 -0.88765E-01
 0.44900002E+02 -0.98327E-01
 0.44950001E+02 -0.80176E-01
 0.45000000E+02 -0.78432E-01
 0.45049999E+02 -0.85083E-01
 0.45100002E+02 -0.53584E-01
 0.45150002E+02 -0.37547E-01
 0.45200001E+02 -0.78853E-01
 0.45250000E+02 -0.12103E+00
 0.45299999E+02 -0.11125E+00
 0.45350002E+02 -0.70922E-02
 0.45400002E+02  0.15508E+00
 0.45450001E+02  0.28848E+00
 0.45500000E+02  0.34052E+00
 0.45549999E+02  0.31809E+00
 0.45600002E+02  0.25664E+00
 0.45650002E+02  0.21033E+00
 0.45700001E+02  0.19316E+00
 0.45750000E+02  0.15664E+00
 0.45799999E+02  0.46517E-01
 0.45850002E+02 -0.48752E-01
 0.45900002E+02 -0.64717E-01
 0.45950001E+02 -0.10620E+00
 0.46000000E+02 -0.19923E+00
 0.46049999E+02 -0.28857E+00
 0.46100002E+02 -0.33319E+00
 0.46150002E+02 -0.31362E+00
 0.46200001E+02 -0.24721E+00
 0.46250000E+02 -0.15014E+00
 0.46299999E+02  0.20944E-01
 0.46350002E+02  0.20115E+00
 0.46400002E+02  0.29685E+00
 0.46450001E+02  0.32830E+00
 0.46500000E+02  0.33775E+00
 0.46549999E+02  0.37570E+00
 0.46600002E+02  0.40940E+00
 0.46650002E+02  0.36191E+00
 0.46700001E+02  0.27680E+00
 0.46750000E+02  0.21425E+00
 0.46799999E+02  0.17234E+00
 0.46850002E+02  0.12112E+00
 0.46900002E+02  0.28244E-01
 0.46950001E+02 -0.73163E-01
 0.47000000E+02 -0.18555E+00
 0.47049999E+02 -0.26357E+00
 0.47100002E+02 -0.26086E+00
 0.47150002E+02 -0.20404E+00
 0.47200001E+02 -0.14041E+00
 0.47250000E+02 -0.96992E-01
 0.47299999E+02 -0.57310E-01
 0.47350002E+02 -0.27210E-01
 0.47400002E+02 -0.45542E-01
 0.47450001E+02 -0.78559E-01
 0.47500000E+02 -0.26772E-01
 0.47549999E+02  0.11024E+00
 0.47600002E+02  0.24859E+00
 0.47650002E+02  0.30856E+00
 0.47700001E+02  0.30754E+00
 0.47750000E+02  0.29729E+00
 0.47799999E+02  0.28068E+00
 0.47850002E+02  0.22052E+00
 0.47900002E+02  0.13901E+00
 0.47950001E+02  0.78260E-01
 0.48000000E+02  0.28733E-01
 0.48049999E+02 -0.26427E-01
 0.48100002E+02 -0.85867E-01
 0.48150002E+02 -0.15605E+00
 0.48200001E+02 -0.22109E+00
 0.48250000E+02 -0.26889E+00
 0.48299999E+02 -0.29939E+00
 0.48350002E+02 -0.30812E+00
 0.48400002E+02 -0.28832E+00
 0.48450001E+02 -0.23765E+00
 0.48500000E+02 -0.17864E+00
 0.48549999E+02 -0.95663E-01
 0.48600002E+02 -0.29214E-01
 0.48650002E+02  0.26280E-02
 0.48700001E+02  0.28679E-01
 0.48750000E+02  0.71799E-01
 0.48799999E+02  0.12347E+00
 0.48850002E+02  0.14702E+00
 0.48900002E+02  0.15281E+00
 0.48950001E+02  0.12221E+00
 0.49000000E+02  0.83309E-01
 0.49049999E+02  0.10886E+00
 0.49100002E+02  0.13085E+00
 0.49150002E+02  0.10161E+00
 0.49200001E+02  0.17215E-01
 0.49250000E+02 -0.10987E+00
 0.49299999E+02 -0.17693E+00
 0.49350002E+02 -0.15787E+00
 0.49400002E+02 -0.10867E+00
 0.49450001E+02 -0.76107E-01
 0.49500000E+02 -0.34185E-01
 0.49549999E+02  0.84457E-02
 0.49600002E+02 -0.17687E-02
 0.49650002E+02 -0.80500E-01
 0.49700001E+02 -0.19238E+00
 0.49750000E+02 -0.26245E+00
 0.49799999E+02 -0.25696E+00
 0.49850002E+02 -0.18362E+00
 0.49900002E+02 -0.90481E-01
 0.49950001E+02 -0.30597E-01
 0.50000000E+02 -0.58876E-02
 0.50049999E+02 -0.16317E-01
 0.50100002E+02 -0.70903E-01
 0.50150002E+02 -0.11327E+00
 0.50200001E+02 -0.10862E+00
 0.50250000E+02 -0.77799E-01
 0.50299999E+02 -0.38551E-01
 0.50350002E+02  0.11066E-01
 0.50400002E+02  0.61353E-01
 0.50450001E+02  0.11616E+00
 0.50500000E+02  0.15699E+00
 0.50549999E+02  0.14718E+00
 0.50600002E+02  0.10374E+00
 0.50650002E+02  0.42532E-01
 0.50700001E+02  0.11108E-01
 0.50750000E+02  0.50408E-03
 0.50799999E+02 -0.22691E-01
 0.50850002E+02 -0.68125E-01
 0.50900002E+02 -0.11845E+00
 0.50950001E+02 -0.13455E+00
 0.51000000E+02 -0.12159E+00
 0.51049999E+02 -0.83394E-01
 0.51100002E+02 -0.16579E-01
 0.51150002E+02  0.63458E-01
 0.51200001E+02  0.10213E+00
 0.51250000E+02  0.11602E+00
 0.51299999E+02  0.12313E+00
 0.51350002E+02  0.11741E+00
 0.51400002E+02  0.10436E+00
 0.51450001E+02  0.51100E-01
 0.51500000E+02 -0.54545E-01
 0.51549999E+02 -0.12169E+00
 0.51600002E+02 -0.92105E-01
 0.51650002E+02 -0.28583E-01
 0.51700001E+02  0.16580E-01
 0.51750000E+02  0.18853E-01
 0.51799999E+02  0.31349E-01
 0.51850002E+02  0.44627E-01
 0.51900002E+02  0.34617E-01
 0.51950001E+02  0.38874E-01
 0.52000000E+02  0.36485E-01
 0.52049999E+02  0.26579E-01
 0.52100002E+02  0.19193E-01
 0.52150002E+02  0.18376E-01
 0.52200001E+02  0.24471E-01
 0.52250000E+02  0.17780E-01
 0.52299999E+02  0.57986E-02
 0.52350002E+02  0.11617E-01
 0.52400002E+02  0.43357E-01
 0.52450001E+02  0.71686E-01
 0.52500000E+02  0.83535E-01
 0.52549999E+02  0.10327E+00
 0.52600002E+02  0.92987E-01
 0.52650002E+02  0.34153E-01
 0.52700001E+02 -0.33736E-01
 0.52750000E+02 -0.75134E-01
 0.52799999E+02 -0.80807E-01
 0.52850002E+02 -0.80036E-01
 0.52900002E+02 -0.59227E-01
 0.52950001E+02 -0.12024E-01
 0.53000000E+02  0.11879E-01
 0.53049999E+02  0.13562E-01
 0.53100002E+02  0.18085E-01
 0.53150002E+02  0.45603E-01
 0.53200001E+02  0.74191E-01
 0.53250000E+02  0.67606E-01
 0.53299999E+02  0.38774E-01
 0.53350002E+02 -0.32653E-01
 0.53400002E+02 -0.11279E+00
 0.53450001E+02 -0.17399E+00
 0.53500000E+02 -0.23296E+00
 0.53549999E+02 -0.25998E+00
 0.53600002E+02 -0.25260E+00
 0.53650002E+02 -0.24603E+00
 0.53700001E+02 -0.27097E+00
 0.53750000E+02 -0.28693E+00
 0.53799999E+02 -0.24225E+00
 0.53850002E+02 -0.16421E+00
 0.53900002E+02 -0.99524E-01
 0.53950001E+02 -0.71811E-01
 0.54000000E+02 -0.46116E-01
 0.54049999E+02 -0.16254E-01
 0.54100002E+02  0.16222E-01
 0.54150002E+02  0.70243E-01
 0.54200001E+02  0.12963E+00
 0.54250000E+02  0.18862E+00
 0.54299999E+02  0.23224E+00
 0.54350002E+02  0.23585E+00
 0.54400002E+02  0.20034E+00
 0.54450001E+02  0.16088E+00
 0.54500000E+02  0.12032E+00
 0.54549999E+02  0.80996E-01
 0.54600002E+02  0.36715E-01
 0.54650002E+02 -0.37958E-02
 0.54700001E+02 -0.28324E-01
 0.54750000E+02 -0.46442E-01
 0.54799999E+02 -0.55250E-01
 0.54850002E+02 -0.61481E-01
 0.54900002E+02 -0.67597E-01
 0.54950001E+02 -0.75796E-01
 0.55000000E+02 -0.76947E-01
 0.55049999E+02 -0.79597E-01
 0.55100002E+02 -0.94589E-01
 0.55150002E+02 -0.81554E-01
 0.55200001E+02 -0.28098E-01
 0.55250000E+02  0.17161E-01
 0.55299999E+02  0.31713E-01
 0.55350002E+02  0.28632E-01
 0.55400002E+02  0.34969E-01
 0.55450001E+02  0.60883E-01
 0.55500000E+02  0.79908E-01
 0.55549999E+02  0.10586E+00
 0.55600002E+02  0.14337E+00
 0.55650002E+02  0.17091E+00
 0.55700001E+02  0.18859E+00
 0.55750000E+02  0.18724E+00
 0.55799999E+02  0.16842E+00
 0.55850002E+02  0.13645E+00
 0.55900002E+02  0.12936E+00
 0.55950001E+02  0.14452E+00
 0.56000000E+02  0.14817E+00
 0.56049999E+02  0.13340E+00
 0.56100002E+02  0.87584E-01
 0.56150002E+02  0.11599E-01
 0.56200001E+02 -0.69360E-01
 0.56250000E+02 -0.11328E+00
 0.56299999E+02 -0.12077E+00
 0.56350002E+02 -0.11034E+00
 0.56400002E+02 -0.84946E-01
 0.56450001E+02 -0.56194E-01
 0.56500000E+02 -0.36815E-01
 0.56549999E+02 -0.36133E-01
 0.56600002E+02 -0.75373E-01
 0.56650002E+02 -0.12783E+00
 0.56700001E+02 -0.15038E+00
 0.56750000E+02 -0.16264E+00
 0.56799999E+02 -0.15579E+00
 0.56850002E+02 -0.10027E+00
 0.56900002E+02 -0.24451E-01
 0.56950001E+02  0.31863E-01
 0.57000000E+02  0.61183E-01
 0.57049999E+02  0.76584E-01
 0.57100002E+02  0.88671E-01
 0.57150002E+02  0.96246E-01
 0.57200001E+02  0.86547E-01
 0.57250000E+02  0.55253E-01
 0.57299999E+02  0.16160E-01
 0.57350002E+02 -0.19397E-01
 0.57400002E+02 -0.37436E-01
 0.57450001E+02 -0.32178E-01
 0.57500000E+02 -0.22409E-01
 0.57549999E+02 -0.22390E-01
 0.57600002E+02 -0.22362E-01
 0.57650002E+02 -0.18474E-01
 0.57700001E+02 -0.81979E-02
 0.57750000E+02  0.73987E-02
 0.57799999E+02  0.92673E-02
 0.57850002E+02 -0.11268E-01
 0.57900002E+02 -0.38241E-01
 0.57950001E+02 -0.43226E-01
 0.58000000E+02 -0.29115E-01
 0.58049999E+02 -0.27668E-01
 0.58100002E+02 -0.40636E-01
 0.58150002E+02 -0.42619E-01
 0.58200001E+02 -0.22437E-01
 0.58250000E+02  0.64906E-02
 0.58299999E+02  0.36080E-01
 0.58350002E+02  0.60799E-01
 0.58400002E+02  0.68048E-01
 0.58450001E+02  0.71983E-01
 0.58500000E+02  0.81854E-01
 0.58549999E+02  0.86533E-01
 0.58600002E+02  0.74225E-01
 0.58650002E+02  0.45819E-01
 0.58700001E+02  0.88677E-02
 0.58750000E+02 -0.29768E-01
 0.58799999E+02 -0.56937E-01
 0.58850002E+02 -0.59312E-01
 0.58900002E+02 -0.33684E-01
 0.58950001E+02  0.16876E-01
 0.59000000E+02  0.59484E-01
 0.59049999E+02  0.69431E-01
 0.59100002E+02  0.56531E-01
 0.59150002E+02  0.37860E-01
 0.59200001E+02  0.27917E-01
 0.59250000E+02  0.21299E-01
 0.59299999E+02  0.72282E-02
 0.59350002E+02 -0.21316E-01
 0.59400002E+02 -0.56299E-01
 0.59450001E+02 -0.69907E-01
 0.59500000E+02 -0.54114E-01
 0.59549999E+02 -0.27661E-01
 0.59600002E+02 -0.74402E-02
 0.59650002E+02 -0.88131E-02
 0.59700001E+02 -0.14429E-01
 0.59750000E+02 -0.21881E-01
 0.59799999E+02 -0.45488E-01
 0.59850002E+02 -0.70120E-01
 0.59900002E+02 -0.73870E-01
 0.59950001E+02 -0.60016E-01
 0.60000000E+02 -0.45577E-01
 0.60049999E+02 -0.33930E-01
 0.60100002E+02 -0.22317E-01
 0.60150002E+02  0.53709E-02
 0.60200001E+02  0.45519E-01
 0.60250000E+02  0.77347E-01
 0.60299999E+02  0.96447E-01
 0.60350002E+02  0.10516E+00
 0.60400002E+02  0.10067E+00
 0.60450001E+02  0.73603E-01
 0.60500000E+02  0.32176E-01
 0.60549999E+02 -0.32648E-02
 0.60600002E+02 -0.24491E-01
 0.60650002E+02 -0.40397E-01
 0.60700001E+02 -0.52896E-01
 0.60750000E+02 -0.63268E-01
 0.60799999E+02 -0.65274E-01
 0.60850002E+02 -0.45601E-01
 0.60900002E+02 -0.87542E-02
 0.60950001E+02  0.30952E-01
 0.61000000E+02  0.54897E-01
 0.61049999E+02  0.65815E-01
 0.61100002E+02  0.77351E-01
 0.61150002E+02  0.88401E-01
 0.61200001E+02  0.77703E-01
 0.61250000E+02  0.42571E-01
 0.61299999E+02  0.42336E-02
 0.61350002E+02 -0.21381E-01
 0.61400002E+02 -0.28914E-01
 0.61450001E+02 -0.19008E-01
 0.61500000E+02 -0.70881E-02
 0.61549999E+02 -0.11482E-01
 0.61600002E+02 -0.31053E-01
 0.61650002E+02 -0.52809E-01
 0.61700001E+02 -0.59767E-01
 0.61750000E+02 -0.40211E-01
 0.61799999E+02 -0.46244E-02
 0.61850002E+02  0.86931E-02
 0.61900002E+02  0.16781E-02
 0.61950001E+02  0.48052E-02
 0.62000000E+02  0.20077E-01
 0.62049999E+02  0.42494E-01
 0.62100002E+02  0.69425E-01
 0.62150002E+02  0.83467E-01
 0.62200001E+02  0.71737E-01
 0.62250000E+02  0.54092E-01
 0.62299999E+02  0.38784E-01
 0.62350002E+02  0.25878E-01
 0.62400002E+02  0.19752E-01
 0.62450001E+02  0.17022E-01
 0.62500000E+02  0.23231E-01
 0.62549999E+02  0.27753E-01
 0.62600002E+02  0.25781E-01
 0.62650002E+02  0.15878E-01
 0.62700001E+02 -0.90516E-02
 0.62750000E+02 -0.39667E-01
 0.62799999E+02 -0.68980E-01
 0.62850002E+02 -0.92829E-01
 0.62900002E+02 -0.10996E+00
 0.62950001E+02 -0.11547E+00
 0.63000000E+02 -0.92908E-01
 0.63049999E+02 -0.61246E-01
 0.63100002E+02 -0.37682E-01
 0.63150002E+02 -0.57858E-02
 0.63200001E+02  0.19060E-01
 0.63250000E+02  0.37420E-01
 0.63299999E+02  0.48983E-01
 0.63350002E+02  0.47485E-01
 0.63400002E+02  0.49738E-01
 0.63450001E+02  0.52064E-01
 0.63500000E+02  0.58068E-01
 0.63549999E+02  0.66274E-01
 0.63600002E+02  0.68381E-01
 0.63650002E+02  0.66554E-01
 0.63700001E+02  0.60990E-01
 0.63750000E+02  0.44695E-01
 0.63799999E+02  0.48595E-02
 0.63850002E+02 -0.51004E-01
 0.63900002E+02 -0.92461E-01
 0.63950001E+02 -0.11066E+00
 0.64000000E+02 -0.11201E+00
 0.64050003E+02 -0.92517E-01
 0.64099998E+02 -0.58787E-01
 0.64150002E+02 -0.24079E-01
 0.64200005E+02  0.59840E-02
 0.64250000E+02  0.22767E-01
 0.64300003E+02  0.23462E-01
 0.64349998E+02  0.15372E-01
 0.64400002E+02  0.48383E-02
 0.64450005E+02  0.12157E-01
 0.64500000E+02  0.26635E-01
 0.64550003E+02  0.36918E-01
 0.64599998E+02  0.51088E-01
 0.64650002E+02  0.60704E-01
 0.64700005E+02  0.64833E-01
 0.64750000E+02  0.53749E-01
 0.64800003E+02  0.33183E-01
 0.64849998E+02  0.24436E-01
 0.64900002E+02  0.21029E-01
 0.64950005E+02  0.54888E-02
 0.65000000E+02 -0.16437E-01
 0.65050003E+02 -0.43587E-01
 0.65099998E+02 -0.70433E-01
 0.65150002E+02 -0.84255E-01
 0.65200005E+02 -0.79464E-01
 0.65250000E+02 -0.55188E-01
 0.65300003E+02 -0.32739E-01
 0.65349998E+02 -0.21217E-01
 0.65400002E+02 -0.18287E-01
 0.65450005E+02 -0.16815E-01
 0.65500000E+02 -0.20109E-01
 0.65550003E+02 -0.25024E-01
 0.65599998E+02 -0.16452E-01
 0.65650002E+02 -0.17562E-02
 0.65700005E+02  0.84592E-02
 0.65750000E+02  0.16224E-01
 0.65800003E+02  0.18816E-01
 0.65849998E+02  0.56653E-02
 0.65900002E+02 -0.12394E-01
 0.65950005E+02 -0.18492E-01
 0.66000000E+02 -0.20472E-01
 0.66050003E+02 -0.33509E-01
 0.66099998E+02 -0.47910E-01
 0.66150002E+02 -0.53524E-01
 0.66200005E+02 -0.55574E-01
 0.66250000E+02 -0.59623E-01
 0.66300003E+02 -0.65910E-01
 0.66349998E+02 -0.62227E-01
 0.66400002E+02 -0.50159E-01
 0.66450005E+02 -0.38583E-01
 0.66500000E+02 -0.24064E-01
 0.66550003E+02 -0.94366E-02
 0.66599998E+02 -0.13628E-02
 0.66650002E+02  0.25400E-03
 0.66700005E+02  0.45614E-02
 0.66750000E+02  0.15386E-01
 0.66800003E+02  0.19534E-01
 0.66849998E+02  0.85383E-02
 0.66900002E+02 -0.15253E-02
 0.66950005E+02  0.49253E-03
 0.67000000E+02  0.17974E-01
 0.67050003E+02  0.44524E-01
 0.67099998E+02  0.67239E-01
 0.67150002E+02  0.87006E-01
 0.67200005E+02  0.99849E-01
 0.67250000E+02  0.10627E+00
 0.67300003E+02  0.10435E+00
 0.67349998E+02  0.92644E-01
 0.67400002E+02  0.73086E-01
 0.67450005E+02  0.50944E-01
 0.67500000E+02  0.33461E-01
 0.67550003E+02  0.16306E-01
 0.67599998E+02 -0.41353E-02
 0.67650002E+02 -0.26955E-01
 0.67700005E+02 -0.40163E-01
 0.67750000E+02 -0.39017E-01
 0.67800003E+02 -0.28742E-01
 0.67849998E+02 -0.16215E-01
 0.67900002E+02 -0.11900E-01
 0.67950005E+02 -0.88980E-02
 0.68000000E+02  0.30236E-02
 0.68050003E+02  0.15170E-01
 0.68099998E+02  0.28927E-01
 0.68150002E+02  0.50341E-01
 0.68200005E+02  0.69963E-01
 0.68250000E+02  0.78113E-01
 0.68300003E+02  0.69443E-01
 0.68349998E+02  0.51152E-01
 0.68400002E+02  0.32191E-01
 0.68450005E+02  0.11656E-01
 0.68500000E+02 -0.94243E-02
 0.68550003E+02 -0.28452E-01
 0.68599998E+02 -0.46222E-01
 0.68650002E+02 -0.53856E-01
 0.68700005E+02 -0.46855E-01
 0.68750000E+02 -0.28416E-01
 0.68800003E+02  0.34870E-03
 0.68849998E+02  0.21419E-01
 0.68900002E+02  0.28125E-01
 0.68950005E+02  0.32843E-01
 0.69000000E+02  0.36026E-01
 0.69050003E+02  0.34928E-01
 0.69099998E+02  0.27828E-01
 0.69150002E+02  0.12589E-01
 0.69200005E+02  0.23226E-02
 0.69250000E+02  0.12267E-02
 0.69300003E+02  0.83562E-03
 0.69349998E+02 -0.76836E-02
 0.69400002E+02 -0.25838E-01
 0.69450005E+02 -0.45782E-01
 0.69500000E+02 -0.63978E-01
 0.69550003E+02 -0.77824E-01
 0.69599998E+02 -0.80799E-01
 0.69650002E+02 -0.63635E-01
 0.69700005E+02 -0.35906E-01
 0.69750000E+02 -0.60006E-02
 0.69800003E+02  0.22373E-01
 0.69849998E+02  0.39634E-01
 0.69900002E+02  0.48658E-01
 0.69950005E+02  0.54245E-01
 0.70000000E+02  0.60240E-01
 0.70050003E+02  0.69520E-01
 0.70099998E+02  0.69757E-01
 0.70150002E+02  0.52793E-01
 0.70200005E+02  0.25161E-01
 0.70250000E+02 -0.35359E-03
 0.70300003E+02 -0.13914E-01
 0.70349998E+02 -0.20524E-01
 0.70400002E+02 -0.23714E-01
 0.70450005E+02 -0.24248E-01
 0.70500000E+02 -0.19089E-01
 0.70550003E+02 -0.13015E-01
 0.70599998E+02 -0.18664E-01
 0.70650002E+02 -0.35594E-01
 0.70700005E+02 -0.58203E-01
 0.70750000E+02 -0.77547E-01
 0.70800003E+02 -0.84421E-01
 0.70849998E+02 -0.70561E-01
 0.70900002E+02 -0.42785E-01
 0.70950005E+02 -0.14709E-01
 0.71000000E+02  0.10938E-01
 0.71050003E+02  0.29003E-01
 0.71099998E+02  0.44697E-01
 0.71150002E+02  0.64967E-01
 0.71200005E+02  0.76496E-01
 0.71250000E+02  0.76544E-01
 0.71300003E+02  0.69143E-01
 0.71349998E+02  0.56103E-01
 0.71400002E+02  0.40152E-01
 0.71450005E+02  0.23531E-01
 0.71500000E+02  0.12814E-01
 0.71550003E+02  0.93407E-02
 0.71599998E+02  0.10126E-01
 0.71650002E+02  0.15728E-01
 0.71700005E+02  0.18712E-01
 0.71750000E+02  0.10842E-01
 0.71800003E+02  0.33821E-02
 0.71849998E+02 -0.13247E-03
 0.71900002E+02 -0.32029E-02
 0.71950005E+02 -0.31641E-02
 0.72000000E+02 -0.60829E-02
 0.72050003E+02 -0.12137E-01
 0.72099998E+02 -0.84061E-02
 0.72150002E+02 -0.23022E-03
 0.72200005E+02  0.20142E-02
 0.72250000E+02  0.68733E-04
 0.72300003E+02  0.15511E-02
 0.72349998E+02  0.10100E-01
 0.72400002E+02  0.21975E-01
 0.72450005E+02  0.32356E-01
 0.72500000E+02  0.29522E-01
 0.72550003E+02  0.13800E-01
 0.72599998E+02 -0.21940E-02
 0.72650002E+02 -0.18063E-01
 0.72700005E+02 -0.32134E-01
 0.72750000E+02 -0.42672E-01
 0.72800003E+02 -0.47708E-01
 0.72849998E+02 -0.48103E-01
 0.72900002E+02 -0.53665E-01
 0.72950005E+02 -0.61162E-01
 0.73000000E+02 -0.61752E-01
 0.73050003E+02 -0.53335E-01
 0.73099998E+02 -0.38398E-01
 0.73150002E+02 -0.21235E-01
 0.73200005E+02 -0.46325E-02
 0.73250000E+02  0.15054E-01
 0.73300003E+02  0.34807E-01
 0.73349998E+02  0.55129E-01
 0.73400002E+02  0.74973E-01
 0.73450005E+02  0.80684E-01
 0.73500000E+02  0.72160E-01
 0.73550003E+02  0.56760E-01
 0.73599998E+02  0.38390E-01
 0.73650002E+02  0.24739E-01
 0.73700005E+02  0.17571E-01
 0.73750000E+02  0.13229E-01
 0.73800003E+02  0.55470E-02
 0.73849998E+02 -0.56050E-02
 0.73900002E+02 -0.16906E-01
 0.73950005E+02 -0.27033E-01
 0.74000000E+02 -0.34317E-01
 0.74050003E+02 -0.42236E-01
 0.74099998E+02 -0.50064E-01
 0.74150002E+02 -0.56748E-01
 0.74200005E+02 -0.58470E-01
 0.74250000E+02 -0.53033E-01
 0.74300003E+02 -0.43065E-01
 0.74349998E+02 -0.26882E-01
 0.74400002E+02 -0.62287E-02
 0.74450005E+02  0.13524E-01
 0.74500000E+02  0.29518E-01
 0.74550003E+02  0.40257E-01
 0.74599998E+02  0.44710E-01
 0.74650002E+02  0.39119E-01
 0.74700005E+02  0.27251E-01
 0.74750000E+02  0.14437E-01
 0.74800003E+02  0.47693E-02
 0.74849998E+02 -0.30737E-02
 0.74900002E+02 -0.10985E-01
 0.74950005E+02 -0.20041E-01
 0.75000000E+02 -0.30930E-01
 0.75050003E+02 -0.38943E-01
 0.75099998E+02 -0.46510E-01
 0.75150002E+02 -0.52690E-01
 0.75200005E+02 -0.53677E-01
 0.75250000E+02 -0.49492E-01
 0.75300003E+02 -0.45076E-01
 0.75349998E+02 -0.43042E-01
 0.75400002E+02 -0.37962E-01
 0.75450005E+02 -0.27305E-01
 0.75500000E+02 -0.14019E-01
 0.75550003E+02 -0.30574E-02
 0.75599998E+02 -0.18186E-03
 0.75650002E+02 -0.20450E-03
 0.75700005E+02 -0.86703E-03
 0.75750000E+02 -0.27147E-02
 0.75800003E+02 -0.13985E-02
 0.75849998E+02 -0.20631E-02
 0.75900002E+02 -0.61167E-02
 0.75950005E+02 -0.98524E-02
 0.76000000E+02 -0.78519E-02
 0.76050003E+02  0.49376E-02
 0.76099998E+02  0.25196E-01
 0.76150002E+02  0.43508E-01
 0.76200005E+02  0.51676E-01
 0.76250000E+02  0.47990E-01
 0.76300003E+02  0.33797E-01
 0.76349998E+02  0.16593E-01
 0.76400002E+02  0.34266E-02
 0.76450005E+02 -0.11928E-02
 0.76500000E+02  0.27828E-02
 0.76550003E+02  0.10489E-01
 0.76599998E+02  0.21722E-01
 0.76650002E+02  0.32087E-01
 0.76700005E+02  0.38666E-01
 0.76750000E+02  0.39014E-01
 0.76800003E+02  0.34351E-01
 0.76849998E+02  0.28521E-01
 0.76900002E+02  0.20689E-01
 0.76950005E+02  0.11314E-01
 0.77000000E+02  0.45300E-02
 0.77050003E+02  0.30991E-02
 0.77099998E+02  0.20557E-02
 0.77150002E+02 -0.31322E-02
 0.77200005E+02 -0.66307E-02
 0.77250000E+02 -0.65131E-02
 0.77300003E+02 -0.86829E-02
 0.77349998E+02 -0.11438E-01
 0.77400002E+02 -0.12894E-01
 0.77450005E+02 -0.10749E-01
 0.77500000E+02 -0.70170E-02
 0.77550003E+02 -0.42668E-02
 0.77599998E+02 -0.29059E-02
 0.77650002E+02 -0.32085E-02
 0.77700005E+02 -0.36264E-02
 0.77750000E+02 -0.78956E-02
 0.77800003E+02 -0.17399E-01
 0.77849998E+02 -0.28841E-01
 0.77900002E+02 -0.40865E-01
 0.77950005E+02 -0.54708E-01
 0.78000000E+02 -0.67120E-01
 0.78050003E+02 -0.74016E-01
 0.78099998E+02 -0.75257E-01
 0.78150002E+02 -0.69714E-01
 0.78200005E+02 -0.58261E-01
 0.78250000E+02 -0.50520E-01
 0.78300003E+02 -0.48964E-01
 0.78349998E+02 -0.48825E-01
 0.78400002E+02 -0.50626E-01
 0.78450005E+02 -0.47143E-01
 0.78500000E+02 -0.35587E-01
 0.78550003E+02 -0.21360E-01
 0.78599998E+02 -0.18375E-02
 0.78650002E+02  0.18384E-01
 0.78700005E+02  0.30124E-01
 0.78750000E+02  0.36551E-01
 0.78800003E+02  0.36211E-01
 0.78849998E+02  0.26645E-01
 0.78900002E+02  0.94471E-02
 0.78950005E+02 -0.10380E-01
 0.79000000E+02 -0.30810E-01
 0.79050003E+02 -0.54660E-01
 0.79099998E+02 -0.78538E-01
 0.79150002E+02 -0.94661E-01
 0.79200005E+02 -0.10069E+00
 0.79250000E+02 -0.10282E+00
 0.79300003E+02 -0.98227E-01
 0.79349998E+02 -0.82698E-01
 0.79400002E+02 -0.59734E-01
 0.79450005E+02 -0.33839E-01
 0.79500000E+02 -0.57798E-02
 0.79550003E+02  0.18171E-01
 0.79599998E+02  0.35862E-01
 0.79650002E+02  0.48246E-01
 0.79700005E+02  0.54449E-01
 0.79750000E+02  0.58836E-01
 0.79800003E+02  0.60175E-01
 0.79849998E+02  0.60901E-01
 0.79900002E+02  0.63425E-01
 0.79950005E+02  0.65841E-01
 0.80000000E+02  0.65389E-01
 0.80050003E+02  0.62831E-01
 0.80099998E+02  0.57392E-01
 0.80150002E+02  0.48427E-01
 0.80200005E+02  0.40880E-01
 0.80250000E+02  0.31739E-01
 0.80300003E+02  0.21424E-01
 0.80349998E+02  0.18569E-01
 0.80400002E+02  0.22683E-01
 0.80450005E+02  0.28454E-01
 0.80500000E+02  0.35177E-01
 0.80550003E+02  0.42046E-01
 0.80599998E+02  0.49049E-01
 0.80650002E+02  0.53547E-01
 0.80700005E+02  0.56383E-01
 0.80750000E+02  0.58984E-01
 0.80800003E+02  0.60419E-01
 0.80849998E+02  0.62092E-01
 0.80900002E+02  0.59611E-01
 0.80950005E+02  0.54549E-01
 0.81000000E+02  0.48923E-01
 0.81050003E+02  0.43793E-01
 0.81099998E+02  0.38011E-01
 0.81150002E+02  0.28326E-01
 0.81200005E+02  0.16634E-01
 0.81250000E+02  0.11580E-02
 0.81300003E+02 -0.15393E-01
 0.81349998E+02 -0.30041E-01
 0.81400002E+02 -0.36202E-01
 0.81450005E+02 -0.29877E-01
 0.81500000E+02 -0.17866E-01
 0.81550003E+02 -0.67575E-02
 0.81599998E+02 -0.19059E-03
 0.81650002E+02 -0.11712E-03
 0.81700005E+02 -0.79545E-02
 0.81750000E+02 -0.20951E-01
 0.81800003E+02 -0.36908E-01
 0.81849998E+02 -0.51639E-01
 0.81900002E+02 -0.63951E-01
 0.81950005E+02 -0.75570E-01
 0.82000000E+02 -0.84245E-01
 0.82050003E+02 -0.88795E-01
 0.82099998E+02 -0.87835E-01
 0.82150002E+02 -0.80184E-01
 0.82200005E+02 -0.67016E-01
 0.82250000E+02 -0.55312E-01
 0.82300003E+02 -0.48914E-01
 0.82349998E+02 -0.42143E-01
 0.82400002E+02 -0.31318E-01
 0.82450005E+02 -0.16740E-01
 0.82500000E+02 -0.11809E-02
 0.82550003E+02  0.10170E-01
 0.82599998E+02  0.16854E-01
 0.82650002E+02  0.20305E-01
 0.82700005E+02  0.23031E-01
 0.82750000E+02  0.27967E-01
 0.82800003E+02  0.34151E-01
 0.82849998E+02  0.40531E-01
 0.82900002E+02  0.45042E-01
 0.82950005E+02  0.46140E-01
 0.83000000E+02  0.44301E-01
 0.83050003E+02  0.42283E-01
 0.83099998E+02  0.41635E-01
 0.83150002E+02  0.39945E-01
 0.83200005E+02  0.38993E-01
 0.83250000E+02  0.37260E-01
 0.83300003E+02  0.33876E-01
 0.83349998E+02  0.31472E-01
 0.83400002E+02  0.28047E-01
 0.83450005E+02  0.25873E-01
 0.83500000E+02  0.23727E-01
 0.83550003E+02  0.15851E-01
 0.83599998E+02  0.43923E-02
 0.83650002E+02 -0.49121E-02
 0.83700005E+02 -0.92284E-02
 0.83750000E+02 -0.95109E-02
 0.83800003E+02 -0.63404E-02
 0.83849998E+02  0.20220E-02
 0.83900002E+02  0.11232E-01
 0.83950005E+02  0.18129E-01
 0.84000000E+02  0.25380E-01
 0.84050003E+02  0.32340E-01
 0.84099998E+02  0.39464E-01
 0.84150002E+02  0.44832E-01
 0.84200005E+02  0.46765E-01
 0.84250000E+02  0.46337E-01
 0.84300003E+02  0.44213E-01
 0.84349998E+02  0.39030E-01
 0.84400002E+02  0.30041E-01
 0.84450005E+02  0.21786E-01
 0.84500000E+02  0.13364E-01
 0.84550003E+02  0.39779E-02
 0.84599998E+02 -0.62961E-02
 0.84650002E+02 -0.19245E-01
 0.84700005E+02 -0.32875E-01
 0.84750000E+02 -0.43543E-01
 0.84800003E+02 -0.50362E-01
 0.84849998E+02 -0.51193E-01
 0.84900002E+02 -0.45504E-01
 0.84950005E+02 -0.37055E-01
 0.85000000E+02 -0.27977E-01
 0.85050003E+02 -0.18505E-01
 0.85099998E+02 -0.97503E-02
 0.85150002E+02 -0.55525E-02
 0.85200005E+02 -0.25327E-02
 0.85250000E+02 -0.62364E-03
 0.85300003E+02 -0.10376E-02
 0.85349998E+02  0.61383E-03
 0.85400002E+02  0.30610E-02
 0.85450005E+02  0.31877E-02
 0.85500000E+02 -0.97620E-04
 0.85550003E+02 -0.67907E-02
 0.85599998E+02 -0.14453E-01
 0.85650002E+02 -0.18065E-01
 0.85700005E+02 -0.15974E-01
 0.85750000E+02 -0.10128E-01
 0.85800003E+02 -0.26492E-02
 0.85849998E+02  0.69788E-02
 0.85900002E+02  0.15439E-01
 0.85950005E+02  0.18003E-01
 0.86000000E+02  0.13956E-01
 0.86050003E+02  0.49456E-02
 0.86099998E+02 -0.18349E-02
 0.86150002E+02 -0.24260E-02
 0.86200005E+02  0.15201E-02
 0.86250000E+02  0.92535E-02
 0.86300003E+02  0.16473E-01
 0.86349998E+02  0.21536E-01
 0.86400002E+02  0.25394E-01
 0.86450005E+02  0.25023E-01
 0.86500000E+02  0.18901E-01
 0.86550003E+02  0.75323E-02
 0.86599998E+02 -0.52057E-02
 0.86650002E+02 -0.13504E-01
 0.86700005E+02 -0.14601E-01
 0.86750000E+02 -0.11390E-01
 0.86800003E+02 -0.81080E-02
 0.86849998E+02 -0.52001E-02
 0.86900002E+02 -0.40364E-02
 0.86950005E+02 -0.60689E-02
 0.87000000E+02 -0.10498E-01
 0.87050003E+02 -0.17705E-01
 0.87099998E+02 -0.25349E-01
 0.87150002E+02 -0.30614E-01
 0.87200005E+02 -0.35163E-01
 0.87250000E+02 -0.41570E-01
 0.87300003E+02 -0.46969E-01
 0.87349998E+02 -0.50712E-01
 0.87400002E+02 -0.53117E-01
 0.87450005E+02 -0.53649E-01
 0.87500000E+02 -0.51899E-01
 0.87550003E+02 -0.45630E-01
 0.87599998E+02 -0.38535E-01
 0.87650002E+02 -0.31215E-01
 0.87700005E+02 -0.23846E-01
 0.87750000E+02 -0.16326E-01
 0.87800003E+02 -0.11063E-01
 0.87849998E+02 -0.13195E-01
 0.87900002E+02 -0.17599E-01
 0.87950005E+02 -0.17507E-01
 0.88000000E+02 -0.11872E-01
 0.88050003E+02 -0.19203E-03
 0.88099998E+02  0.14586E-01
 0.88150002E+02  0.25517E-01
 0.88200005E+02  0.31120E-01
 0.88250000E+02  0.29217E-01
 0.88300003E+02  0.19592E-01
 0.88349998E+02  0.94292E-02
 0.88400002E+02  0.12467E-02
 0.88450005E+02 -0.52085E-02
 0.88500000E+02 -0.75366E-02
 0.88550003E+02 -0.44639E-02
 0.88599998E+02  0.17853E-02
 0.88650002E+02  0.85553E-02
 0.88700005E+02  0.15054E-01
 0.88750000E+02  0.24560E-01
 0.88800003E+02  0.36957E-01
 0.88849998E+02  0.45994E-01
 0.88900002E+02  0.50341E-01
 0.88950005E+02  0.51685E-01
 0.89000000E+02  0.52957E-01
 0.89050003E+02  0.54222E-01
 0.89099998E+02  0.52415E-01
 0.89150002E+02  0.47701E-01
 0.89200005E+02  0.42351E-01
 0.89250000E+02  0.34684E-01
 0.89300003E+02  0.21413E-01
 0.89349998E+02  0.41368E-02
 0.89400002E+02 -0.13108E-01
 0.89450005E+02 -0.29708E-01
 0.89500000E+02 -0.44282E-01
 0.89550003E+02 -0.55298E-01
 0.89599998E+02 -0.60653E-01
 0.89650002E+02 -0.58625E-01
 0.89700005E+02 -0.52195E-01
 0.89750000E+02 -0.42277E-01
 0.89800003E+02 -0.29860E-01
 0.89849998E+02 -0.18788E-01
 0.89900002E+02 -0.11220E-01
 0.89950005E+02 -0.66377E-02
 0.90000000E+02 -0.39276E-02
 0.90050003E+02 -0.38714E-02
 0.90099998E+02 -0.42687E-02
 0.90150002E+02 -0.26682E-02
 0.90200005E+02 -0.21776E-02
 0.90250000E+02 -0.15762E-02
 0.90300003E+02  0.16958E-02
 0.90349998E+02  0.88967E-02
 0.90400002E+02  0.18947E-01
 0.90450005E+02  0.30127E-01
 0.90500000E+02  0.40203E-01
 0.90550003E+02  0.45192E-01
 0.90599998E+02  0.44884E-01
 0.90650002E+02  0.39852E-01
 0.90700005E+02  0.30791E-01
 0.90750000E+02  0.19805E-01
 0.90800003E+02  0.83369E-02
 0.90849998E+02 -0.23000E-02
 0.90900002E+02 -0.11653E-01
 0.90950005E+02 -0.18276E-01
 0.91000000E+02 -0.21277E-01
 0.91050003E+02 -0.21647E-01
 0.91099998E+02 -0.19884E-01
 0.91150002E+02 -0.16205E-01
 0.91200005E+02 -0.10925E-01
 0.91250000E+02 -0.68652E-02
 0.91300003E+02 -0.58751E-02
 0.91349998E+02 -0.79418E-02
 0.91400002E+02 -0.10987E-01
 0.91450005E+02 -0.12903E-01
 0.91500000E+02 -0.12325E-01
 0.91550003E+02 -0.83400E-02
 0.91599998E+02 -0.17520E-02
 0.91650002E+02  0.58982E-02
 0.91700005E+02  0.12518E-01
 0.91750000E+02  0.18290E-01
 0.91800003E+02  0.24208E-01
 0.91849998E+02  0.28887E-01
 0.91900002E+02  0.30497E-01
 0.91950005E+02  0.27691E-01
 0.92000000E+02  0.20805E-01
 0.92050003E+02  0.11473E-01
 0.92099998E+02  0.44849E-02
 0.92150002E+02  0.31859E-02
 0.92200005E+02  0.58536E-02
 0.92250000E+02  0.95827E-02
 0.92300003E+02  0.11799E-01
 0.92349998E+02  0.12118E-01
 0.92400002E+02  0.11684E-01
 0.92450005E+02  0.11076E-01
 0.92500000E+02  0.82857E-02
 0.92550003E+02  0.99300E-03
 0.92599998E+02 -0.96311E-02
 0.92650002E+02 -0.20328E-01
 0.92700005E+02 -0.27984E-01
 0.92750000E+02 -0.31345E-01
 0.92800003E+02 -0.31819E-01
 0.92849998E+02 -0.29313E-01
 0.92900002E+02 -0.25118E-01
 0.92950005E+02 -0.22878E-01
 0.93000000E+02 -0.24343E-01
 0.93050003E+02 -0.29120E-01
 0.93099998E+02 -0.34667E-01
 0.93150002E+02 -0.38867E-01
 0.93200005E+02 -0.40742E-01
 0.93250000E+02 -0.39808E-01
 0.93300003E+02 -0.37199E-01
 0.93349998E+02 -0.32483E-01
 0.93400002E+02 -0.25138E-01
 0.93450005E+02 -0.14864E-01
 0.93500000E+02 -0.43093E-02
 0.93550003E+02  0.37811E-02
 0.93599998E+02  0.99696E-02
 0.93650002E+02  0.12168E-01
 0.93700005E+02  0.11550E-01
 0.93750000E+02  0.79051E-02
 0.93800003E+02  0.18262E-02
 0.93849998E+02 -0.37456E-02
 0.93900002E+02 -0.75696E-02
 0.93950005E+02 -0.77432E-02
 0.94000000E+02 -0.57675E-02
 0.94050003E+02 -0.15065E-02
 0.94099998E+02  0.57921E-02
 0.94150002E+02  0.15134E-01
 0.94200005E+02  0.22214E-01
 0.94250000E+02  0.24612E-01
 0.94300003E+02  0.24554E-01
 0.94349998E+02  0.22265E-01
 0.94400002E+02  0.19093E-01
 0.94450005E+02  0.15645E-01
 0.94500000E+02  0.12232E-01
 0.94550003E+02  0.86655E-02
 0.94599998E+02  0.52997E-02
 0.94650002E+02  0.54915E-02
 0.94700005E+02  0.69956E-02
 0.94750000E+02  0.75865E-02
 0.94800003E+02  0.66302E-02
 0.94849998E+02  0.34041E-02
 0.94900002E+02  0.97413E-03
 0.94950005E+02 -0.77348E-03
 0.95000000E+02 -0.18405E-02
 0.95050003E+02 -0.19395E-02
 0.95099998E+02 -0.20128E-03
 0.95150002E+02  0.33307E-02
 0.95200005E+02  0.68238E-02
 0.95250000E+02  0.10583E-01
 0.95300003E+02  0.14557E-01
 0.95349998E+02  0.20811E-01
 0.95400002E+02  0.29488E-01
 0.95450005E+02  0.37215E-01
 0.95500000E+02  0.40833E-01
 0.95550003E+02  0.39704E-01
 0.95599998E+02  0.35762E-01
 0.95650002E+02  0.31871E-01
 0.95700005E+02  0.28403E-01
 0.95750000E+02  0.23165E-01
 0.95800003E+02  0.16382E-01
 0.95849998E+02  0.84961E-02
 0.95900002E+02 -0.10238E-02
 0.95950005E+02 -0.12811E-01
 0.96000000E+02 -0.24292E-01
 0.96050003E+02 -0.32271E-01
 0.96099998E+02 -0.38022E-01
 0.96150002E+02 -0.39731E-01
 0.96200005E+02 -0.37110E-01
 0.96250000E+02 -0.32385E-01
 0.96300003E+02 -0.26948E-01
 0.96349998E+02 -0.22717E-01
 0.96400002E+02 -0.18140E-01
 0.96450005E+02 -0.12775E-01
 0.96500000E+02 -0.91077E-02
 0.96550003E+02 -0.75697E-02
 0.96599998E+02 -0.58066E-02
 0.96650002E+02 -0.13960E-02
 0.96700005E+02  0.34413E-02
 0.96750000E+02  0.46999E-02
 0.96800003E+02  0.39130E-02
 0.96849998E+02  0.29629E-02
 0.96900002E+02  0.47478E-02
 0.96950005E+02  0.10613E-01
 0.97000000E+02  0.17181E-01
 0.97050003E+02  0.23089E-01
 0.97099998E+02  0.26465E-01
 0.97150002E+02  0.27154E-01
 0.97200005E+02  0.27453E-01
 0.97250000E+02  0.27867E-01
 0.97300003E+02  0.26544E-01
 0.97349998E+02  0.21247E-01
 0.97400002E+02  0.14696E-01
 0.97450005E+02  0.93247E-02
 0.97500000E+02  0.34801E-02
 0.97550003E+02 -0.48548E-02
 0.97599998E+02 -0.15322E-01
 0.97650002E+02 -0.26086E-01
 0.97700005E+02 -0.36414E-01
 0.97750000E+02 -0.45166E-01
 0.97800003E+02 -0.50706E-01
 0.97849998E+02 -0.50809E-01
 0.97900002E+02 -0.43626E-01
 0.97950005E+02 -0.29753E-01
 0.98000000E+02 -0.12164E-01
 0.98050003E+02  0.55885E-02
 0.98099998E+02  0.18535E-01
 0.98150002E+02  0.23499E-01
 0.98200005E+02  0.23840E-01
 0.98250000E+02  0.23139E-01
 0.98300003E+02  0.22550E-01
 0.98349998E+02  0.21746E-01
 0.98400002E+02  0.19731E-01
 0.98450005E+02  0.17360E-01
 0.98500000E+02  0.16361E-01
 0.98550003E+02  0.16720E-01
 0.98599998E+02  0.16757E-01
 0.98650002E+02  0.14759E-01
 0.98700005E+02  0.12371E-01
 0.98750000E+02  0.10782E-01
 0.98800003E+02  0.10441E-01
 0.98849998E+02  0.12609E-01
 0.98900002E+02  0.14491E-01
 0.98950005E+02  0.13954E-01
 0.99000000E+02  0.10056E-01
 0.99050003E+02  0.42998E-02
 0.99099998E+02 -0.27409E-02
 0.99150002E+02 -0.11555E-01
 0.99200005E+02 -0.19753E-01
 0.99250000E+02 -0.26251E-01
 0.99300003E+02 -0.30959E-01
 0.99349998E+02 -0.35188E-01
 0.99400002E+02 -0.39554E-01
 0.99450005E+02 -0.41453E-01
 0.99500000E+02 -0.39583E-01
 0.99550003E+02 -0.34987E-01
 0.99599998E+02 -0.29234E-01
 0.99650002E+02 -0.24175E-01
 0.99700005E+02 -0.19981E-01
 0.99750000E+02 -0.16594E-01
 0.99800003E+02 -0.13920E-01
 0.99849998E+02 -0.10796E-01
 0.99900002E+02 -0.69347E-02
 0.99950005E+02 -0.18753E-02
 0.10000000E+03  0.47943E-02
 0.10005000E+03  0.12576E-01
 0.10010000E+03  0.21512E-01
 0.10015000E+03  0.31013E-01
 0.10020000E+03  0.39260E-01
 0.10025000E+03  0.45433E-01
 0.10030000E+03  0.48998E-01
 0.10035000E+03  0.48172E-01
 0.10040000E+03  0.42933E-01
 0.10045000E+03  0.35038E-01
 0.10050000E+03  0.24161E-01
 0.10055000E+03  0.10503E-01
 0.10060000E+03 -0.20542E-02
 0.10065000E+03 -0.10877E-01
 0.10070000E+03 -0.15340E-01
 0.10075000E+03 -0.16369E-01
 0.10080000E+03 -0.17496E-01
 0.10085000E+03 -0.19413E-01
 0.10090000E+03 -0.20463E-01
 0.10095000E+03 -0.20499E-01
 0.10100000E+03 -0.18821E-01
 0.10105000E+03 -0.16422E-01
 0.10110000E+03 -0.12476E-01
 0.10115000E+03 -0.61593E-02
 0.10120000E+03  0.12579E-02
 0.10125000E+03  0.10809E-01
 0.10130000E+03  0.20949E-01
 0.10135000E+03  0.29454E-01
 0.10140000E+03  0.35541E-01
 0.10145000E+03  0.38755E-01
 0.10150000E+03  0.38276E-01
 0.10155000E+03  0.33935E-01
 0.10160000E+03  0.28204E-01
 0.10165000E+03  0.23285E-01
 0.10170000E+03  0.19790E-01
 0.10175000E+03  0.17421E-01
 0.10180000E+03  0.15498E-01
 0.10185000E+03  0.13010E-01
 0.10190000E+03  0.87641E-02
 0.10195000E+03  0.37360E-02
 0.10200000E+03  0.53988E-04
 0.10205000E+03 -0.26141E-02
 0.10210000E+03 -0.37529E-02
 0.10215000E+03 -0.27493E-02
 0.10220000E+03 -0.17770E-02
 0.10225000E+03 -0.30763E-02
 0.10230000E+03 -0.62947E-02
 0.10235000E+03 -0.95595E-02
 0.10240000E+03 -0.12056E-01
 0.10245000E+03 -0.13703E-01
 0.10250000E+03 -0.14363E-01
 0.10255000E+03 -0.14247E-01
 0.10260000E+03 -0.13292E-01
 0.10265000E+03 -0.12483E-01
 0.10270000E+03 -0.12693E-01
 0.10275000E+03 -0.12848E-01
 0.10280000E+03 -0.13242E-01
 0.10285000E+03 -0.13918E-01
 0.10290000E+03 -0.14418E-01
 0.10295000E+03 -0.15318E-01
 0.10300000E+03 -0.17114E-01
 0.10305000E+03 -0.20098E-01
 0.10310000E+03 -0.23119E-01
 0.10315000E+03 -0.23435E-01
 0.10320000E+03 -0.20879E-01
 0.10325000E+03 -0.16865E-01
 0.10330000E+03 -0.12143E-01
 0.10335000E+03 -0.71035E-02
 0.10340000E+03 -0.10120E-02
 0.10345000E+03  0.66137E-02
 0.10350000E+03  0.13280E-01
 0.10355000E+03  0.16965E-01
 0.10360000E+03  0.18037E-01
 0.10365000E+03  0.15224E-01
 0.10370000E+03  0.96730E-02
 0.10375000E+03  0.23990E-02
 0.10380000E+03 -0.71165E-02
 0.10385000E+03 -0.16766E-01
 0.10390000E+03 -0.24149E-01
 0.10395000E+03 -0.29423E-01
 0.10400000E+03 -0.33253E-01
 0.10405000E+03 -0.35819E-01
 0.10410000E+03 -0.37985E-01
 0.10415000E+03 -0.39490E-01
 0.10420000E+03 -0.40312E-01
 0.10425000E+03 -0.40651E-01
 0.10430000E+03 -0.40428E-01
 0.10435000E+03 -0.39201E-01
 0.10440000E+03 -0.36559E-01
 0.10445000E+03 -0.32456E-01
 0.10450000E+03 -0.28062E-01
 0.10455000E+03 -0.24242E-01
 0.10460000E+03 -0.19870E-01
 0.10465000E+03 -0.13182E-01
 0.10470000E+03 -0.45253E-02
 0.10475000E+03  0.43372E-02
 0.10480000E+03  0.12817E-01
 0.10485000E+03  0.21330E-01
 0.10490000E+03  0.30255E-01
 0.10495000E+03  0.38231E-01
 0.10500000E+03  0.42805E-01
 0.10505000E+03  0.43453E-01
 0.10510000E+03  0.41701E-01
 0.10515000E+03  0.38158E-01
 0.10520000E+03  0.32790E-01
 0.10525000E+03  0.25802E-01
 0.10530000E+03  0.18677E-01
 0.10535000E+03  0.13596E-01
 0.10540000E+03  0.11926E-01
 0.10545000E+03  0.13059E-01
 0.10550000E+03  0.15170E-01
 0.10555000E+03  0.17237E-01
 0.10560000E+03  0.18890E-01
 0.10565000E+03  0.18538E-01
 0.10570000E+03  0.14738E-01
 0.10575000E+03  0.94146E-02
 0.10580000E+03  0.42756E-02
 0.10585000E+03 -0.38108E-03
 0.10590000E+03 -0.46586E-02
 0.10595000E+03 -0.98908E-02
 0.10600000E+03 -0.16238E-01
 0.10605000E+03 -0.22290E-01
 0.10610000E+03 -0.26583E-01
 0.10615000E+03 -0.28664E-01
 0.10620000E+03 -0.29217E-01
 0.10625000E+03 -0.29111E-01
 0.10630000E+03 -0.28600E-01
 0.10635000E+03 -0.27637E-01
 0.10640000E+03 -0.26435E-01
 0.10645000E+03 -0.25357E-01
 0.10650000E+03 -0.24594E-01
 0.10655000E+03 -0.24806E-01
 0.10660000E+03 -0.24446E-01
 0.10665000E+03 -0.21610E-01
 0.10670000E+03 -0.16138E-01
 0.10675000E+03 -0.86716E-02
 0.10680000E+03 -0.95535E-04
 0.10685000E+03  0.89940E-02
 0.10690000E+03  0.17766E-01
 0.10695000E+03  0.24778E-01
 0.10700000E+03  0.28372E-01
 0.10705000E+03  0.30301E-01
 0.10710000E+03  0.31509E-01
 0.10715000E+03  0.32355E-01
 0.10720000E+03  0.32967E-01
 0.10725000E+03  0.31681E-01
 0.10730000E+03  0.28128E-01
 0.10735000E+03  0.23294E-01
 0.10740000E+03  0.18586E-01
 0.10745000E+03  0.15867E-01
 0.10750000E+03  0.16177E-01
 0.10755000E+03  0.18883E-01
 0.10760000E+03  0.22197E-01
 0.10765000E+03  0.25778E-01
 0.10770000E+03  0.30112E-01
 0.10775000E+03  0.34432E-01
 0.10780000E+03  0.38190E-01
 0.10785000E+03  0.40322E-01
 0.10790000E+03  0.40380E-01
 0.10795000E+03  0.37456E-01
 0.10800000E+03  0.30710E-01
 0.10805000E+03  0.21874E-01
 0.10810000E+03  0.13300E-01
 0.10815000E+03  0.60180E-02
 0.10820000E+03  0.24040E-03
 0.10825000E+03 -0.42504E-02
 0.10830000E+03 -0.88904E-02
 0.10835000E+03 -0.15129E-01
 0.10840000E+03 -0.22480E-01
 0.10845000E+03 -0.28670E-01
 0.10850000E+03 -0.31611E-01
 0.10855000E+03 -0.30693E-01
 0.10860000E+03 -0.27012E-01
 0.10865000E+03 -0.22382E-01
 0.10870000E+03 -0.18220E-01
 0.10875000E+03 -0.14561E-01
 0.10880000E+03 -0.11344E-01
 0.10885000E+03 -0.83283E-02
 0.10890000E+03 -0.44941E-02
 0.10895000E+03 -0.44358E-05
 0.10900000E+03  0.53859E-02
 0.10905000E+03  0.11139E-01
 0.10910000E+03  0.15434E-01
 0.10915000E+03  0.17239E-01
 0.10920000E+03  0.17130E-01
 0.10925000E+03  0.16069E-01
 0.10930000E+03  0.15092E-01
 0.10935000E+03  0.14471E-01
 0.10940000E+03  0.13483E-01
 0.10945000E+03  0.12492E-01
 0.10950000E+03  0.11149E-01
 0.10955000E+03  0.96116E-02
 0.10960000E+03  0.80340E-02
 0.10965000E+03  0.49646E-02
 0.10970000E+03 -0.16503E-03
 0.10975000E+03 -0.69374E-02
 0.10980000E+03 -0.14057E-01
 0.10985000E+03 -0.20099E-01
 0.10990000E+03 -0.25089E-01
 0.10995000E+03 -0.28241E-01
 0.11000000E+03 -0.29181E-01
 0.11005000E+03 -0.27693E-01
 0.11010000E+03 -0.24162E-01
 0.11015000E+03 -0.19964E-01
 0.11020000E+03 -0.14906E-01
 0.11025000E+03 -0.99678E-02
 0.11030000E+03 -0.51672E-02
 0.11035000E+03 -0.75874E-04
 0.11040000E+03  0.51048E-02
 0.11045000E+03  0.10820E-01
 0.11050000E+03  0.16418E-01
 0.11055000E+03  0.20344E-01
 0.11060000E+03  0.21370E-01
 0.11065000E+03  0.19662E-01
 0.11070000E+03  0.15765E-01
 0.11075000E+03  0.10842E-01
 0.11080000E+03  0.68203E-02
 0.11085000E+03  0.32787E-02
 0.11090000E+03 -0.22843E-03
 0.11095000E+03 -0.18472E-02
 0.11100000E+03 -0.16049E-02
 0.11105000E+03 -0.14192E-02
 0.11110000E+03 -0.28534E-02
 0.11115000E+03 -0.61858E-02
 0.11120000E+03 -0.10917E-01
 0.11125000E+03 -0.16567E-01
 0.11130000E+03 -0.23027E-01
 0.11135000E+03 -0.31058E-01
 0.11140000E+03 -0.39512E-01
 0.11145000E+03 -0.46788E-01
 0.11150000E+03 -0.51095E-01
 0.11155000E+03 -0.51021E-01
 0.11160000E+03 -0.46634E-01
 0.11165000E+03 -0.38663E-01
 0.11170000E+03 -0.29531E-01
 0.11175000E+03 -0.20848E-01
 0.11180000E+03 -0.12719E-01
 0.11185000E+03 -0.46765E-02
 0.11190000E+03  0.32920E-02
 0.11195000E+03  0.11268E-01
 0.11200000E+03  0.19589E-01
 0.11205000E+03  0.27194E-01
 0.11210000E+03  0.32722E-01
 0.11215000E+03  0.36383E-01
 0.11220000E+03  0.37947E-01
 0.11225000E+03  0.37600E-01
 0.11230000E+03  0.35940E-01
 0.11235000E+03  0.33098E-01
 0.11240000E+03  0.29383E-01
 0.11245000E+03  0.25228E-01
 0.11250000E+03  0.21655E-01
 0.11255000E+03  0.19167E-01
 0.11260000E+03  0.17910E-01
 0.11265000E+03  0.17192E-01
 0.11270000E+03  0.17147E-01
 0.11275000E+03  0.17559E-01
 0.11280000E+03  0.17328E-01
 0.11285000E+03  0.15954E-01
 0.11290000E+03  0.12852E-01
 0.11295000E+03  0.88738E-02
 0.11300000E+03  0.54979E-02
 0.11305000E+03  0.32829E-02
 0.11310000E+03  0.16221E-02
 0.11315000E+03  0.67351E-03
 0.11320000E+03  0.12384E-02
 0.11325000E+03  0.30131E-02
 0.11330000E+03  0.55930E-02
 0.11335000E+03  0.81286E-02
 0.11340000E+03  0.10496E-01
 0.11345000E+03  0.12256E-01
 0.11350000E+03  0.11421E-01
 0.11355000E+03  0.80761E-02
 0.11360000E+03  0.31536E-02
 0.11365000E+03 -0.20257E-02
 0.11370000E+03 -0.61046E-02
 0.11375000E+03 -0.90119E-02
 0.11380000E+03 -0.10379E-01
 0.11385000E+03 -0.96645E-02
 0.11390000E+03 -0.71850E-02
 0.11395000E+03 -0.38609E-02
 0.11400000E+03 -0.34206E-03
 0.11405000E+03  0.30516E-02
 0.11410000E+03  0.60844E-02
 0.11415000E+03  0.82344E-02
 0.11420000E+03  0.88454E-02
 0.11425000E+03  0.68731E-02
 0.11430000E+03  0.26276E-02
 0.11435000E+03 -0.23407E-02
 0.11440000E+03 -0.67419E-02
 0.11445000E+03 -0.99020E-02
 0.11450000E+03 -0.12096E-01
 0.11455000E+03 -0.14283E-01
 0.11460000E+03 -0.16560E-01
 0.11465000E+03 -0.18436E-01
 0.11470000E+03 -0.20220E-01
 0.11475000E+03 -0.22248E-01
 0.11480000E+03 -0.24746E-01
 0.11485000E+03 -0.27277E-01
 0.11490000E+03 -0.28591E-01
 0.11495000E+03 -0.27744E-01
 0.11500000E+03 -0.25711E-01
 0.11505000E+03 -0.23538E-01
 0.11510000E+03 -0.21487E-01
 0.11515000E+03 -0.20181E-01
 0.11520000E+03 -0.18895E-01
 0.11525000E+03 -0.17638E-01
 0.11530000E+03 -0.15895E-01
 0.11535000E+03 -0.12251E-01
 0.11540000E+03 -0.73444E-02
 0.11545000E+03 -0.25929E-02
 0.11550000E+03  0.73619E-03
 0.11555000E+03  0.19256E-02
 0.11560000E+03  0.75257E-03
 0.11565000E+03 -0.21129E-02
 0.11570000E+03 -0.58477E-02
 0.11575000E+03 -0.10189E-01
 0.11580000E+03 -0.14367E-01
 0.11585000E+03 -0.17137E-01
 0.11590000E+03 -0.17925E-01
 0.11595000E+03 -0.17090E-01
 0.11600000E+03 -0.15820E-01
 0.11605000E+03 -0.14806E-01
 0.11610000E+03 -0.14402E-01
 0.11615000E+03 -0.14265E-01
 0.11620000E+03 -0.14111E-01
 0.11625000E+03 -0.14253E-01
 0.11630000E+03 -0.14493E-01
 0.11635000E+03 -0.15413E-01
 0.11640000E+03 -0.17274E-01
 0.11645000E+03 -0.19140E-01
 0.11650000E+03 -0.20537E-01
 0.11655000E+03 -0.21163E-01
 0.11660000E+03 -0.20574E-01
 0.11665000E+03 -0.18817E-01
 0.11670000E+03 -0.15887E-01
 0.11675000E+03 -0.11715E-01
 0.11680000E+03 -0.64416E-02
 0.11685000E+03 -0.71313E-03
 0.11690000E+03  0.48017E-02
 0.11695000E+03  0.96719E-02
 0.11700000E+03  0.13758E-01
 0.11705000E+03  0.17175E-01
 0.11710000E+03  0.19136E-01
 0.11715000E+03  0.19981E-01
 0.11720000E+03  0.21154E-01
 0.11725000E+03  0.22651E-01
 0.11730000E+03  0.24258E-01
 0.11735000E+03  0.25074E-01
 0.11740000E+03  0.24051E-01
 0.11745000E+03  0.20913E-01
 0.11750000E+03  0.16148E-01
 0.11755000E+03  0.11315E-01
 0.11760000E+03  0.76299E-02
 0.11765000E+03  0.54801E-02
 0.11770000E+03  0.44079E-02
 0.11775000E+03  0.39505E-02
 0.11780000E+03  0.32557E-02
 0.11785000E+03  0.15128E-02
 0.11790000E+03 -0.11130E-02
 0.11795000E+03 -0.39236E-02
 0.11800000E+03 -0.61785E-02
 0.11805000E+03 -0.74361E-02
 0.11810000E+03 -0.76355E-02
 0.11815000E+03 -0.72787E-02
 0.11820000E+03 -0.64242E-02
 0.11825000E+03 -0.48477E-02
 0.11830000E+03 -0.28075E-02
 0.11835000E+03  0.25259E-03
 0.11840000E+03  0.45980E-02
 0.11845000E+03  0.97814E-02
 0.11850000E+03  0.15489E-01
 0.11855000E+03  0.21054E-01
 0.11860000E+03  0.25632E-01
 0.11865000E+03  0.27615E-01
 0.11870000E+03  0.26695E-01
 0.11875000E+03  0.23795E-01
 0.11880000E+03  0.19511E-01
 0.11885000E+03  0.14969E-01
 0.11890000E+03  0.11386E-01
 0.11895000E+03  0.90871E-02
 0.11900000E+03  0.75284E-02
 0.11905000E+03  0.60906E-02
 0.11910000E+03  0.49376E-02
 0.11915000E+03  0.45911E-02
 0.11920000E+03  0.44568E-02
 0.11925000E+03  0.50700E-02
 0.11930000E+03  0.56152E-02
 0.11935000E+03  0.59094E-02
 0.11940000E+03  0.60650E-02
 0.11945000E+03  0.67230E-02
 0.11950000E+03  0.85764E-02
 0.11955000E+03  0.10640E-01
 0.11960000E+03  0.11443E-01
 0.11965000E+03  0.10255E-01
 0.11970000E+03  0.82244E-02
 0.11975000E+03  0.51068E-02
 0.11980000E+03  0.27928E-02
 0.11985000E+03 -0.11049E-02
 0.11990000E+03 -0.36652E-02
 0.11995000E+03 -0.85900E-02
 0.12000000E+03 -0.58791E-02
