-0.20000458E-01 -0.15976E-06
 0.29999543E-01 -0.30303E-06
 0.79999544E-01 -0.36009E-06
 0.12999955E+00 -0.31372E-06
 0.17999955E+00 -0.25878E-06
 0.22999954E+00 -0.20149E-06
 0.27999955E+00 -0.11836E-06
 0.32999954E+00 -0.50770E-07
 0.37999955E+00  0.62131E-07
 0.42999956E+00  0.15815E-06
 0.47999954E+00  0.18034E-06
 0.52999955E+00  0.22457E-06
 0.57999957E+00  0.29720E-06
 0.62999958E+00  0.32149E-06
 0.67999953E+00  0.32491E-06
 0.72999954E+00  0.32516E-06
 0.77999955E+00  0.33384E-06
 0.82999957E+00  0.36821E-06
 0.87999958E+00  0.36926E-06
 0.92999953E+00  0.37491E-06
 0.97999954E+00  0.34333E-06
 0.10299996E+01  0.23574E-06
 0.10799996E+01  0.14335E-06
 0.11299995E+01  0.98964E-07
 0.11799996E+01  0.11372E-06
 0.12299995E+01  0.11754E-06
 0.12799996E+01  0.11404E-06
 0.13299996E+01  0.68950E-07
 0.13799995E+01 -0.67217E-07
 0.14299996E+01 -0.18061E-06
 0.14799995E+01 -0.31289E-06
 0.15299996E+01 -0.43552E-06
 0.15799996E+01 -0.44898E-06
 0.16299995E+01 -0.44539E-06
 0.16799996E+01 -0.41557E-06
 0.17299995E+01 -0.44506E-06
 0.17799996E+01 -0.51340E-06
 0.18299996E+01 -0.47181E-06
 0.18799995E+01 -0.49464E-06
 0.19299996E+01 -0.53533E-06
 0.19799995E+01 -0.53814E-06
 0.20299995E+01 -0.49479E-06
 0.20799997E+01 -0.36845E-06
 0.21299996E+01 -0.27689E-06
 0.21799996E+01 -0.14507E-06
 0.22299995E+01 -0.39338E-07
 0.22799995E+01 -0.25577E-07
 0.23299997E+01  0.18040E-07
 0.23799996E+01  0.70310E-07
 0.24299996E+01  0.12552E-06
 0.24799995E+01  0.22553E-06
 0.25299995E+01  0.32400E-06
 0.25799997E+01  0.47650E-06
 0.26299996E+01  0.67969E-06
 0.26799996E+01  0.81611E-06
 0.27299995E+01  0.88604E-06
 0.27799995E+01  0.88068E-06
 0.28299997E+01  0.84464E-06
 0.28799996E+01  0.73524E-06
 0.29299996E+01  0.55579E-06
 0.29799995E+01  0.43642E-06
 0.30299995E+01  0.34387E-06
 0.30799997E+01  0.25085E-06
 0.31299996E+01  0.18629E-06
 0.31799996E+01  0.14455E-06
 0.32299995E+01  0.10934E-06
 0.32799995E+01  0.18858E-07
 0.33299997E+01 -0.13191E-06
 0.33799996E+01 -0.26313E-06
 0.34299996E+01 -0.42024E-06
 0.34799995E+01 -0.52792E-06
 0.35299995E+01 -0.53137E-06
 0.35799997E+01 -0.53254E-06
 0.36299996E+01 -0.50671E-06
 0.36799996E+01 -0.48345E-06
 0.37299995E+01 -0.48404E-06
 0.37799995E+01 -0.52691E-06
 0.38299997E+01 -0.55339E-06
 0.38799996E+01 -0.50939E-06
 0.39299996E+01 -0.47108E-06
 0.39799995E+01 -0.36671E-06
 0.40299997E+01 -0.25379E-06
 0.40799994E+01 -0.20960E-06
 0.41299996E+01 -0.19876E-06
 0.41799998E+01 -0.21048E-06
 0.42299995E+01 -0.16930E-06
 0.42799997E+01 -0.10228E-06
 0.43299994E+01 -0.90167E-07
 0.43799996E+01 -0.11425E-06
 0.44299998E+01 -0.79201E-07
 0.44799995E+01  0.70736E-07
 0.45299997E+01  0.25943E-06
 0.45799994E+01  0.41618E-06
 0.46299996E+01  0.53222E-06
 0.46799998E+01  0.59790E-06
 0.47299995E+01  0.60439E-06
 0.47799997E+01  0.54474E-06
 0.48299994E+01  0.50341E-06
 0.48799996E+01  0.48986E-06
 0.49299998E+01  0.42878E-06
 0.49799995E+01  0.33768E-06
 0.50299997E+01  0.32396E-06
 0.50799994E+01  0.34348E-06
 0.51299996E+01  0.30807E-06
 0.51799998E+01  0.26093E-06
 0.52299995E+01  0.13218E-06
 0.52799997E+01  0.15788E-07
 0.53299994E+01 -0.45509E-07
 0.53799996E+01 -0.10882E-06
 0.54299998E+01 -0.16293E-06
 0.54799995E+01 -0.21696E-06
 0.55299997E+01 -0.24658E-06
 0.55799994E+01 -0.31220E-06
 0.56299996E+01 -0.35622E-06
 0.56799998E+01 -0.39969E-06
 0.57299995E+01 -0.46953E-06
 0.57799997E+01 -0.49503E-06
 0.58299994E+01 -0.46176E-06
 0.58799996E+01 -0.35947E-06
 0.59299998E+01 -0.24878E-06
 0.59799995E+01 -0.11839E-06
 0.60299997E+01  0.13838E-07
 0.60799994E+01  0.12201E-06
 0.61299996E+01  0.18571E-06
 0.61799998E+01  0.18495E-06
 0.62299995E+01  0.16102E-06
 0.62799997E+01  0.11463E-06
 0.63299994E+01  0.66443E-07
 0.63799996E+01  0.56265E-07
 0.64299998E+01  0.67467E-07
 0.64799995E+01  0.49525E-07
 0.65299997E+01  0.33086E-07
 0.65799994E+01  0.93967E-08
 0.66299996E+01 -0.42467E-07
 0.66799998E+01 -0.47209E-07
 0.67299995E+01 -0.48219E-08
 0.67799997E+01  0.97195E-08
 0.68299994E+01  0.14195E-08
 0.68799996E+01 -0.43747E-07
 0.69299998E+01 -0.63797E-07
 0.69799995E+01 -0.31484E-07
 0.70299997E+01 -0.10326E-06
 0.70799994E+01 -0.16802E-06
 0.71299996E+01 -0.13567E-06
 0.71799998E+01 -0.59837E-07
 0.72299995E+01  0.46681E-07
 0.72799997E+01  0.17164E-06
 0.73299994E+01  0.30632E-06
 0.73799996E+01  0.33981E-06
 0.74299998E+01  0.34002E-06
 0.74799995E+01  0.33255E-06
 0.75299997E+01  0.28738E-06
 0.75799994E+01  0.27378E-06
 0.76299996E+01  0.23067E-06
 0.76799998E+01  0.14762E-06
 0.77299995E+01  0.20519E-07
 0.77799997E+01 -0.12017E-06
 0.78299994E+01 -0.20202E-06
 0.78799996E+01 -0.28565E-06
 0.79299998E+01 -0.34367E-06
 0.79799995E+01 -0.36725E-06
 0.80299997E+01 -0.40087E-06
 0.80799999E+01 -0.41947E-06
 0.81300001E+01 -0.44887E-06
 0.81799994E+01 -0.38399E-06
 0.82299995E+01 -0.22954E-06
 0.82799997E+01 -0.94553E-07
 0.83299999E+01  0.10450E-06
 0.83800001E+01  0.30640E-06
 0.84299994E+01  0.45705E-06
 0.84799995E+01  0.55859E-06
 0.85299997E+01  0.50923E-06
 0.85799999E+01  0.42141E-06
 0.86300001E+01  0.32170E-06
 0.86799994E+01  0.11748E-06
 0.87299995E+01 -0.47084E-07
 0.87799997E+01 -0.12278E-06
 0.88299999E+01 -0.15734E-06
 0.88800001E+01 -0.18657E-06
 0.89299994E+01 -0.17189E-06
 0.89799995E+01 -0.80334E-07
 0.90299997E+01  0.26377E-08
 0.90799999E+01  0.10967E-06
 0.91300001E+01  0.17904E-06
 0.91799994E+01  0.16275E-06
 0.92299995E+01  0.11793E-06
 0.92799997E+01  0.94665E-08
 0.93299999E+01 -0.86600E-07
 0.93800001E+01 -0.13617E-06
 0.94299994E+01 -0.26286E-06
 0.94799995E+01 -0.42471E-06
 0.95299997E+01 -0.46356E-06
 0.95799999E+01 -0.41755E-06
 0.96300001E+01 -0.33320E-06
 0.96799994E+01 -0.20434E-06
 0.97299995E+01 -0.11100E-06
 0.97799997E+01  0.16575E-07
 0.98299999E+01  0.20291E-06
 0.98800001E+01  0.30674E-06
 0.99299994E+01  0.32486E-06
 0.99799995E+01  0.29862E-06
 0.10030000E+02  0.25272E-06
 0.10080000E+02  0.14863E-06
 0.10130000E+02  0.57287E-08
 0.10179999E+02 -0.85110E-07
 0.10230000E+02 -0.11873E-06
 0.10280000E+02 -0.68465E-07
 0.10330000E+02 -0.53927E-07
 0.10380000E+02 -0.13149E-06
 0.10429999E+02 -0.19864E-06
 0.10480000E+02 -0.20128E-06
 0.10530000E+02 -0.15533E-06
 0.10580000E+02 -0.65078E-07
 0.10630000E+02  0.13725E-06
 0.10679999E+02  0.29857E-06
 0.10730000E+02  0.37233E-06
 0.10780000E+02  0.41198E-06
 0.10830000E+02  0.41194E-06
 0.10880000E+02  0.47162E-06
 0.10929999E+02  0.51715E-06
 0.10980000E+02  0.49432E-06
 0.11030000E+02  0.45808E-06
 0.11080000E+02  0.36276E-06
 0.11130000E+02  0.22322E-06
 0.11179999E+02  0.86233E-07
 0.11230000E+02 -0.11534E-06
 0.11280000E+02 -0.31545E-06
 0.11330000E+02 -0.43816E-06
 0.11380000E+02 -0.52520E-06
 0.11429999E+02 -0.60812E-06
 0.11480000E+02 -0.65822E-06
 0.11530000E+02 -0.59711E-06
 0.11580000E+02 -0.53029E-06
 0.11630000E+02 -0.48361E-06
 0.11679999E+02 -0.39448E-06
 0.11730000E+02 -0.31770E-06
 0.11780000E+02 -0.28362E-06
 0.11830000E+02 -0.31971E-06
 0.11880000E+02 -0.37216E-06
 0.11929999E+02 -0.36478E-06
 0.11980000E+02 -0.31071E-06
 0.12030000E+02 -0.19705E-06
 0.12080000E+02 -0.80984E-07
 0.12130000E+02  0.27293E-07
 0.12179999E+02  0.18322E-06
 0.12230000E+02  0.40676E-06
 0.12280000E+02  0.62647E-06
 0.12330000E+02  0.71261E-06
 0.12380000E+02  0.78561E-06
 0.12429999E+02  0.87199E-06
 0.12480000E+02  0.87513E-06
 0.12530000E+02  0.80398E-06
 0.12580000E+02  0.66770E-06
 0.12630000E+02  0.49075E-06
 0.12679999E+02  0.29778E-06
 0.12730000E+02  0.14184E-06
 0.12780000E+02  0.15813E-07
 0.12830000E+02 -0.10951E-06
 0.12880000E+02 -0.26405E-06
 0.12929999E+02 -0.36864E-06
 0.12980000E+02 -0.42359E-06
 0.13030000E+02 -0.47153E-06
 0.13080000E+02 -0.44151E-06
 0.13130000E+02 -0.38520E-06
 0.13179999E+02 -0.28222E-06
 0.13230000E+02 -0.16649E-06
 0.13280000E+02 -0.77622E-07
 0.13330000E+02 -0.17568E-07
 0.13380000E+02 -0.42479E-07
 0.13429999E+02 -0.11511E-06
 0.13480000E+02 -0.15563E-06
 0.13530000E+02 -0.14655E-06
 0.13580000E+02 -0.13562E-06
 0.13630000E+02 -0.10405E-06
 0.13679999E+02 -0.78627E-07
 0.13730000E+02 -0.27398E-07
 0.13780000E+02  0.10202E-07
 0.13830000E+02 -0.40079E-08
 0.13880000E+02  0.15170E-07
 0.13929999E+02  0.24027E-07
 0.13980000E+02  0.53521E-07
 0.14030000E+02  0.79898E-07
 0.14080000E+02  0.11137E-06
 0.14130000E+02  0.15567E-06
 0.14179999E+02  0.16807E-06
 0.14230000E+02  0.19241E-06
 0.14280000E+02  0.19065E-06
 0.14330000E+02  0.17389E-06
 0.14380000E+02  0.93229E-07
 0.14429999E+02 -0.42271E-07
 0.14480000E+02 -0.18013E-06
 0.14530000E+02 -0.36373E-06
 0.14580000E+02 -0.46942E-06
 0.14630000E+02 -0.44515E-06
 0.14679999E+02 -0.40081E-06
 0.14730000E+02 -0.37006E-06
 0.14780000E+02 -0.33490E-06
 0.14830000E+02 -0.25526E-06
 0.14880000E+02 -0.14395E-06
 0.14929999E+02 -0.33340E-07
 0.14980000E+02  0.86362E-07
 0.15030000E+02  0.14952E-06
 0.15080000E+02  0.25779E-06
 0.15130000E+02  0.41618E-06
 0.15179999E+02  0.51261E-06
 0.15230000E+02  0.62736E-06
 0.15280000E+02  0.69823E-06
 0.15330000E+02  0.70984E-06
 0.15380000E+02  0.69936E-06
 0.15429999E+02  0.64599E-06
 0.15480000E+02  0.52554E-06
 0.15530000E+02  0.37269E-06
 0.15580000E+02  0.26062E-06
 0.15630000E+02  0.11600E-06
 0.15679999E+02  0.13927E-07
 0.15730000E+02 -0.57424E-07
 0.15780000E+02 -0.23365E-06
 0.15830000E+02 -0.41499E-06
 0.15880000E+02 -0.59394E-06
 0.15929999E+02 -0.76271E-06
 0.15980000E+02 -0.85957E-06
 0.16030001E+02 -0.95149E-06
 0.16080000E+02 -0.97056E-06
 0.16129999E+02 -0.87494E-06
 0.16180000E+02 -0.68612E-06
 0.16230000E+02 -0.40979E-06
 0.16280001E+02 -0.12590E-06
 0.16330000E+02  0.15242E-06
 0.16379999E+02  0.34188E-06
 0.16430000E+02  0.46834E-06
 0.16480000E+02  0.57666E-06
 0.16530001E+02  0.56676E-06
 0.16580000E+02  0.47991E-06
 0.16629999E+02  0.31860E-06
 0.16680000E+02  0.12693E-06
 0.16730000E+02 -0.21449E-07
 0.16780001E+02 -0.16256E-06
 0.16830000E+02 -0.25781E-06
 0.16879999E+02 -0.24447E-06
 0.16930000E+02 -0.16415E-06
 0.16980000E+02 -0.72433E-07
 0.17030001E+02  0.48783E-07
 0.17080000E+02  0.15979E-06
 0.17129999E+02  0.22006E-06
 0.17180000E+02  0.31413E-06
 0.17230000E+02  0.43378E-06
 0.17280001E+02  0.47884E-06
 0.17330000E+02  0.45116E-06
 0.17379999E+02  0.37714E-06
 0.17430000E+02  0.30764E-06
 0.17480000E+02  0.25678E-06
 0.17530001E+02  0.15777E-06
 0.17580000E+02  0.11347E-07
 0.17629999E+02 -0.11684E-06
 0.17680000E+02 -0.18236E-06
 0.17730000E+02 -0.19511E-06
 0.17780001E+02 -0.13104E-06
 0.17830000E+02 -0.55900E-07
 0.17879999E+02 -0.38817E-07
 0.17930000E+02 -0.50360E-08
 0.17980000E+02  0.13856E-07
 0.18030001E+02 -0.70174E-07
 0.18080000E+02 -0.21219E-06
 0.18129999E+02 -0.33613E-06
 0.18180000E+02 -0.38702E-06
 0.18230000E+02 -0.35425E-06
 0.18280001E+02 -0.34672E-06
 0.18330000E+02 -0.35854E-06
 0.18379999E+02 -0.31793E-06
 0.18430000E+02 -0.28732E-06
 0.18480000E+02 -0.22045E-06
 0.18530001E+02 -0.11886E-06
 0.18580000E+02 -0.49551E-07
 0.18629999E+02  0.92957E-07
 0.18680000E+02  0.22329E-06
 0.18730000E+02  0.22410E-06
 0.18780001E+02  0.15990E-06
 0.18830000E+02  0.71236E-07
 0.18879999E+02 -0.75627E-08
 0.18930000E+02 -0.10866E-06
 0.18980000E+02 -0.17844E-06
 0.19030001E+02 -0.16850E-06
 0.19080000E+02 -0.11998E-06
 0.19129999E+02  0.32659E-07
 0.19180000E+02  0.21788E-06
 0.19230000E+02  0.34522E-06
 0.19280001E+02  0.48466E-06
 0.19330000E+02  0.53611E-06
 0.19379999E+02  0.50157E-06
 0.19430000E+02  0.51413E-06
 0.19480000E+02  0.44751E-06
 0.19530001E+02  0.25918E-06
 0.19580000E+02  0.87381E-07
 0.19629999E+02 -0.54932E-07
 0.19680000E+02 -0.19996E-06
 0.19730000E+02 -0.29915E-06
 0.19780001E+02 -0.30632E-06
 0.19830000E+02 -0.28091E-06
 0.19879999E+02 -0.22520E-06
 0.19930000E+02 -0.14627E-06
 0.19980000E+02 -0.68321E-07
 0.20030001E+02  0.84529E-08
 0.20080000E+02 -0.14818E-07
 0.20129999E+02 -0.66057E-07
 0.20180000E+02 -0.65325E-07
 0.20230000E+02 -0.65329E-07
 0.20280001E+02 -0.10299E-06
 0.20330000E+02 -0.15924E-06
 0.20379999E+02 -0.17553E-06
 0.20430000E+02 -0.18014E-06
 0.20480000E+02 -0.14606E-06
 0.20530001E+02 -0.11723E-06
 0.20580000E+02 -0.16338E-06
 0.20629999E+02 -0.13441E-06
 0.20680000E+02 -0.15398E-07
 0.20730000E+02  0.55175E-07
 0.20780001E+02  0.11698E-06
 0.20830000E+02  0.16788E-06
 0.20879999E+02  0.14954E-06
 0.20930000E+02  0.11622E-06
 0.20980000E+02  0.75032E-07
 0.21030001E+02  0.58479E-07
 0.21080000E+02  0.76854E-07
 0.21129999E+02  0.94226E-07
 0.21180000E+02  0.10034E-06
 0.21230000E+02  0.89844E-07
 0.21280001E+02  0.10482E-06
 0.21330000E+02  0.12444E-06
 0.21379999E+02  0.15118E-06
 0.21430000E+02  0.16413E-06
 0.21480000E+02  0.10585E-06
 0.21530001E+02  0.38998E-07
 0.21580000E+02 -0.26718E-07
 0.21629999E+02 -0.11439E-06
 0.21680000E+02 -0.16430E-06
 0.21730000E+02 -0.16721E-06
 0.21780001E+02 -0.16169E-06
 0.21830000E+02 -0.13181E-06
 0.21879999E+02 -0.90928E-07
 0.21930000E+02 -0.69803E-07
 0.21980000E+02 -0.57321E-07
 0.22030001E+02 -0.56471E-07
 0.22080000E+02 -0.49482E-07
 0.22129999E+02 -0.30218E-07
 0.22180000E+02 -0.22746E-07
 0.22230000E+02 -0.37311E-08
 0.22280001E+02  0.62160E-07
 0.22330000E+02  0.16236E-06
 0.22379999E+02  0.27269E-06
 0.22430000E+02  0.37781E-06
 0.22480000E+02  0.43490E-06
 0.22530001E+02  0.37746E-06
 0.22580000E+02  0.23147E-06
 0.22629999E+02  0.80791E-07
 0.22680000E+02 -0.98619E-07
 0.22730000E+02 -0.20449E-06
 0.22780001E+02 -0.17460E-06
 0.22830000E+02 -0.14267E-06
 0.22879999E+02 -0.13012E-06
 0.22930000E+02 -0.19521E-06
 0.22980000E+02 -0.28325E-06
 0.23030001E+02 -0.30234E-06
 0.23080000E+02 -0.37993E-06
 0.23129999E+02 -0.47449E-06
 0.23180000E+02 -0.41566E-06
 0.23230000E+02 -0.25745E-06
 0.23280001E+02 -0.92070E-07
 0.23330000E+02  0.46181E-07
 0.23379999E+02  0.12987E-06
 0.23430000E+02  0.20553E-06
 0.23480000E+02  0.27155E-06
 0.23530001E+02  0.32513E-06
 0.23580000E+02  0.31844E-06
 0.23629999E+02  0.23040E-06
 0.23680000E+02  0.12238E-06
 0.23730000E+02  0.39449E-07
 0.23780001E+02  0.16785E-07
 0.23830000E+02 -0.43914E-07
 0.23879999E+02 -0.17816E-06
 0.23930000E+02 -0.25631E-06
 0.23980000E+02 -0.24642E-06
 0.24030001E+02 -0.24508E-06
 0.24080000E+02 -0.23152E-06
 0.24129999E+02 -0.12032E-06
 0.24180000E+02  0.22961E-07
 0.24230000E+02  0.12922E-06
 0.24280001E+02  0.19271E-06
 0.24330000E+02  0.24910E-06
 0.24379999E+02  0.33740E-06
 0.24430000E+02  0.40443E-06
 0.24480000E+02  0.45371E-06
 0.24530001E+02  0.48033E-06
 0.24580000E+02  0.41464E-06
 0.24629999E+02  0.33093E-06
 0.24680000E+02  0.23922E-06
 0.24730000E+02  0.10048E-06
 0.24780001E+02 -0.51879E-07
 0.24830000E+02 -0.18897E-06
 0.24879999E+02 -0.27697E-06
 0.24930000E+02 -0.35343E-06
 0.24980000E+02 -0.38647E-06
 0.25030001E+02 -0.33784E-06
 0.25080000E+02 -0.25822E-06
 0.25129999E+02 -0.16956E-06
 0.25180000E+02 -0.75558E-07
 0.25230000E+02 -0.50693E-08
 0.25280001E+02  0.68559E-08
 0.25330000E+02  0.23806E-07
 0.25379999E+02  0.17509E-07
 0.25430000E+02 -0.22263E-07
 0.25480000E+02 -0.26276E-07
 0.25530001E+02 -0.27693E-07
 0.25580000E+02 -0.19384E-07
 0.25629999E+02 -0.88779E-07
 0.25680000E+02 -0.24788E-06
 0.25730000E+02 -0.35194E-06
 0.25780001E+02 -0.43745E-06
 0.25830000E+02 -0.46509E-06
 0.25879999E+02 -0.36600E-06
 0.25930000E+02 -0.25938E-06
 0.25980000E+02 -0.17779E-06
 0.26030001E+02 -0.81618E-07
 0.26080000E+02  0.24122E-07
 0.26129999E+02  0.13450E-06
 0.26180000E+02  0.23262E-06
 0.26230000E+02  0.30547E-06
 0.26280001E+02  0.36325E-06
 0.26330000E+02  0.40450E-06
 0.26379999E+02  0.46012E-06
 0.26430000E+02  0.52430E-06
 0.26480000E+02  0.55609E-06
 0.26530001E+02  0.58360E-06
 0.26580000E+02  0.54897E-06
 0.26629999E+02  0.49886E-06
 0.26680000E+02  0.45716E-06
 0.26730000E+02  0.31996E-06
 0.26780001E+02  0.19132E-06
 0.26830000E+02  0.43544E-07
 0.26879999E+02 -0.13959E-06
 0.26930000E+02 -0.31543E-06
 0.26980000E+02 -0.50744E-06
 0.27030001E+02 -0.62828E-06
 0.27080000E+02 -0.70044E-06
 0.27129999E+02 -0.68950E-06
 0.27180000E+02 -0.60865E-06
 0.27230000E+02 -0.52094E-06
 0.27280001E+02 -0.44413E-06
 0.27330000E+02 -0.42753E-06
 0.27379999E+02 -0.34503E-06
 0.27430000E+02 -0.22372E-06
 0.27480000E+02 -0.15210E-06
 0.27530001E+02 -0.76147E-07
 0.27580000E+02  0.13326E-07
 0.27629999E+02  0.10206E-06
 0.27680000E+02  0.14727E-06
 0.27730000E+02  0.17048E-06
 0.27780001E+02  0.23746E-06
 0.27830000E+02  0.37417E-06
 0.27879999E+02  0.50839E-06
 0.27930000E+02  0.58478E-06
 0.27980000E+02  0.62684E-06
 0.28030001E+02  0.63112E-06
 0.28080000E+02  0.61017E-06
 0.28129999E+02  0.57728E-06
 0.28180000E+02  0.51521E-06
 0.28230000E+02  0.38444E-06
 0.28280001E+02  0.25061E-06
 0.28330000E+02  0.10587E-06
 0.28379999E+02 -0.12196E-06
 0.28430000E+02 -0.33170E-06
 0.28480000E+02 -0.46310E-06
 0.28530001E+02 -0.50476E-06
 0.28580000E+02 -0.47726E-06
 0.28629999E+02 -0.43496E-06
 0.28680000E+02 -0.38400E-06
 0.28730000E+02 -0.33128E-06
 0.28780001E+02 -0.25306E-06
 0.28830000E+02 -0.19941E-06
 0.28879999E+02 -0.18044E-06
 0.28930000E+02 -0.14552E-06
 0.28980000E+02 -0.14417E-06
 0.29030001E+02 -0.14857E-06
 0.29080000E+02 -0.14454E-06
 0.29129999E+02 -0.18183E-06
 0.29180000E+02 -0.18256E-06
 0.29230000E+02 -0.99394E-07
 0.29280001E+02 -0.16139E-07
 0.29330000E+02  0.24887E-07
 0.29379999E+02  0.25679E-07
 0.29430000E+02  0.31753E-07
 0.29480000E+02  0.72827E-07
 0.29530001E+02  0.70435E-07
 0.29580000E+02  0.42901E-07
 0.29629999E+02 -0.39485E-08
 0.29680000E+02 -0.44485E-07
 0.29730000E+02 -0.31630E-07
 0.29780001E+02 -0.44046E-07
 0.29830000E+02 -0.28447E-07
 0.29879999E+02  0.13083E-07
 0.29930000E+02  0.82529E-07
 0.29980000E+02  0.21674E-06
 0.30030001E+02  0.34643E-06
 0.30080000E+02  0.48283E-06
 0.30129999E+02  0.58714E-06
 0.30180000E+02  0.62499E-06
 0.30230000E+02  0.59143E-06
 0.30280001E+02  0.51540E-06
 0.30330000E+02  0.44748E-06
 0.30379999E+02  0.34954E-06
 0.30430000E+02  0.23545E-06
 0.30480000E+02  0.92185E-07
 0.30530001E+02 -0.66219E-07
 0.30580000E+02 -0.18633E-06
 0.30629999E+02 -0.25475E-06
 0.30680000E+02 -0.25401E-06
 0.30730000E+02 -0.26301E-06
 0.30780001E+02 -0.30645E-06
 0.30830000E+02 -0.35324E-06
 0.30879999E+02 -0.43147E-06
 0.30930000E+02 -0.56394E-06
 0.30980000E+02 -0.66113E-06
 0.31030001E+02 -0.66240E-06
 0.31080000E+02 -0.63702E-06
 0.31129999E+02 -0.60962E-06
 0.31180000E+02 -0.54370E-06
 0.31230000E+02 -0.46761E-06
 0.31280001E+02 -0.36280E-06
 0.31330000E+02 -0.19747E-06
 0.31379999E+02 -0.77795E-07
 0.31430000E+02  0.65278E-07
 0.31480000E+02  0.24937E-06
 0.31530001E+02  0.42305E-06
 0.31580000E+02  0.61233E-06
 0.31629999E+02  0.73317E-06
 0.31680000E+02  0.78355E-06
 0.31730000E+02  0.73576E-06
 0.31780001E+02  0.62756E-06
 0.31830000E+02  0.49282E-06
 0.31879999E+02  0.33026E-06
 0.31930000E+02  0.20805E-06
 0.31980000E+02  0.76730E-07
 0.32029999E+02 -0.15566E-07
 0.32080002E+02 -0.19796E-07
 0.32130001E+02  0.24214E-07
 0.32180000E+02  0.77511E-07
 0.32230000E+02  0.99745E-07
 0.32279999E+02  0.73255E-07
 0.32330002E+02  0.20505E-07
 0.32380001E+02 -0.40083E-07
 0.32430000E+02 -0.15391E-06
 0.32480000E+02 -0.31594E-06
 0.32529999E+02 -0.69133E-06
 0.32580002E+02 -0.14099E-05
 0.32630001E+02 -0.26550E-05
 0.32680000E+02 -0.39809E-05
 0.32730000E+02 -0.45801E-05
 0.32779999E+02 -0.41340E-05
 0.32830002E+02 -0.28623E-05
 0.32880001E+02 -0.22598E-05
 0.32930000E+02 -0.15591E-05
 0.32980000E+02 -0.73995E-06
 0.33029999E+02 -0.16309E-05
 0.33080002E+02 -0.29666E-05
 0.33130001E+02 -0.45871E-05
 0.33180000E+02 -0.48628E-05
 0.33230000E+02 -0.40270E-05
 0.33279999E+02 -0.33200E-05
 0.33330002E+02 -0.34636E-07
 0.33380001E+02  0.36590E-05
 0.33430000E+02  0.85255E-05
 0.33480000E+02  0.13298E-04
 0.33529999E+02  0.12431E-04
 0.33580002E+02  0.11009E-04
 0.33630001E+02  0.92452E-05
 0.33680000E+02  0.30543E-05
 0.33730000E+02 -0.16412E-05
 0.33779999E+02 -0.24339E-05
 0.33830002E+02  0.80342E-07
 0.33880001E+02  0.14906E-05
 0.33930000E+02  0.28322E-05
 0.33980000E+02  0.99995E-05
 0.34029999E+02  0.15144E-04
 0.34080002E+02  0.18566E-04
 0.34130001E+02  0.18448E-04
 0.34180000E+02  0.15722E-04
 0.34230000E+02  0.10031E-04
 0.34279999E+02  0.44896E-07
 0.34330002E+02 -0.27639E-05
 0.34380001E+02 -0.92710E-05
 0.34430000E+02 -0.87616E-05
 0.34480000E+02 -0.34609E-05
 0.34529999E+02 -0.10383E-04
 0.34580002E+02 -0.68545E-05
 0.34630001E+02  0.31169E-05
 0.34680000E+02  0.71936E-05
 0.34730000E+02 -0.19998E-05
 0.34779999E+02 -0.12649E-04
 0.34830002E+02 -0.16459E-04
 0.34880001E+02 -0.27092E-04
 0.34930000E+02 -0.26238E-04
 0.34980000E+02 -0.13980E-04
 0.35029999E+02 -0.62439E-05
 0.35080002E+02 -0.65914E-05
 0.35130001E+02 -0.72360E-05
 0.35180000E+02 -0.89497E-05
 0.35230000E+02 -0.15250E-04
 0.35279999E+02 -0.15814E-04
 0.35330002E+02 -0.21862E-04
 0.35380001E+02 -0.25942E-04
 0.35430000E+02 -0.14002E-04
 0.35480000E+02  0.50176E-05
 0.35529999E+02  0.23737E-04
 0.35580002E+02  0.28262E-04
 0.35630001E+02  0.15976E-04
 0.35680000E+02  0.37717E-05
 0.35730000E+02  0.25496E-05
 0.35779999E+02  0.28975E-05
 0.35830002E+02 -0.76058E-05
 0.35880001E+02 -0.16834E-04
 0.35930000E+02 -0.78180E-05
 0.35980000E+02  0.12129E-04
 0.36029999E+02  0.26693E-04
 0.36080002E+02  0.29962E-04
 0.36130001E+02  0.22521E-04
 0.36180000E+02  0.12539E-04
 0.36230000E+02  0.98549E-05
 0.36279999E+02  0.69449E-05
 0.36330002E+02  0.22228E-05
 0.36380001E+02  0.78533E-05
 0.36430000E+02  0.22969E-04
 0.36480000E+02  0.32632E-04
 0.36529999E+02  0.23010E-04
 0.36580002E+02  0.70237E-05
 0.36630001E+02 -0.29107E-05
 0.36680000E+02 -0.16981E-04
 0.36730000E+02 -0.24423E-04
 0.36779999E+02 -0.22065E-04
 0.36830002E+02 -0.17431E-04
 0.36880001E+02 -0.82136E-05
 0.36930000E+02 -0.51031E-05
 0.36980000E+02  0.16565E-05
 0.37029999E+02  0.13076E-04
 0.37080002E+02  0.24817E-04
 0.37130001E+02  0.26784E-04
 0.37180000E+02  0.45572E-05
 0.37230000E+02 -0.13757E-04
 0.37279999E+02 -0.23213E-04
 0.37330002E+02 -0.26806E-04
 0.37380001E+02 -0.22669E-04
 0.37430000E+02 -0.20871E-04
 0.37480000E+02 -0.18077E-04
 0.37529999E+02 -0.61449E-05
 0.37580002E+02  0.70655E-05
 0.37630001E+02  0.73049E-05
 0.37680000E+02  0.72520E-05
 0.37730000E+02  0.26727E-05
 0.37779999E+02 -0.10929E-04
 0.37830002E+02 -0.10656E-04
 0.37880001E+02  0.19520E-05
 0.37930000E+02  0.50982E-05
 0.37980000E+02  0.23130E-05
 0.38029999E+02  0.92285E-06
 0.38080002E+02 -0.10519E-04
 0.38130001E+02 -0.18932E-04
 0.38180000E+02 -0.19562E-04
 0.38230000E+02 -0.19922E-04
 0.38279999E+02 -0.71613E-05
 0.38330002E+02  0.13747E-04
 0.38380001E+02  0.20705E-04
 0.38430000E+02  0.13057E-04
 0.38480000E+02  0.12278E-04
 0.38529999E+02  0.12987E-04
 0.38580002E+02  0.20573E-05
 0.38630001E+02 -0.74191E-05
 0.38680000E+02 -0.28102E-05
 0.38730000E+02  0.15467E-04
 0.38779999E+02  0.29536E-04
 0.38830002E+02  0.43069E-04
 0.38880001E+02  0.54965E-04
 0.38930000E+02  0.39390E-04
 0.38980000E+02  0.16372E-04
 0.39029999E+02 -0.28470E-05
 0.39080002E+02 -0.26147E-04
 0.39130001E+02 -0.31611E-04
 0.39180000E+02 -0.22971E-04
 0.39230000E+02 -0.88138E-05
 0.39279999E+02  0.10345E-05
 0.39330002E+02 -0.80647E-05
 0.39380001E+02 -0.13414E-04
 0.39430000E+02 -0.81385E-05
 0.39480000E+02 -0.10413E-04
 0.39529999E+02 -0.16984E-04
 0.39580002E+02 -0.14668E-04
 0.39630001E+02 -0.87999E-05
 0.39680000E+02 -0.15274E-05
 0.39730000E+02 -0.14673E-05
 0.39779999E+02 -0.12654E-04
 0.39830002E+02 -0.18654E-04
 0.39880001E+02 -0.20822E-04
 0.39930000E+02 -0.14665E-04
 0.39980000E+02 -0.11105E-04
 0.40029999E+02 -0.14303E-04
 0.40080002E+02 -0.31662E-05
 0.40130001E+02  0.56064E-05
 0.40180000E+02  0.31568E-05
 0.40230000E+02  0.43920E-05
 0.40279999E+02  0.50656E-05
 0.40330002E+02 -0.48493E-05
 0.40380001E+02 -0.10305E-04
 0.40430000E+02  0.17288E-05
 0.40480000E+02  0.12204E-04
 0.40529999E+02  0.17384E-04
 0.40580002E+02  0.28140E-04
 0.40630001E+02  0.34676E-04
 0.40680000E+02  0.31818E-04
 0.40730000E+02  0.28792E-04
 0.40779999E+02  0.24463E-04
 0.40830002E+02  0.10502E-04
 0.40880001E+02 -0.13630E-05
 0.40930000E+02 -0.86365E-06
 0.40980000E+02  0.25817E-05
 0.41029999E+02  0.30637E-05
 0.41080002E+02 -0.52714E-05
 0.41130001E+02 -0.19630E-04
 0.41180000E+02 -0.32121E-04
 0.41230000E+02 -0.30588E-04
 0.41279999E+02 -0.14791E-04
 0.41330002E+02 -0.30393E-05
 0.41380001E+02  0.58577E-05
 0.41430000E+02  0.10074E-04
 0.41480000E+02  0.18429E-04
 0.41529999E+02  0.32223E-04
 0.41580002E+02  0.23631E-04
 0.41630001E+02  0.68486E-05
 0.41680000E+02 -0.55537E-05
 0.41730000E+02 -0.21102E-04
 0.41779999E+02 -0.23415E-04
 0.41830002E+02 -0.24235E-04
 0.41880001E+02 -0.29618E-04
 0.41930000E+02 -0.18165E-04
 0.41980000E+02 -0.25481E-05
 0.42029999E+02 -0.19949E-05
 0.42080002E+02 -0.90085E-05
 0.42130001E+02 -0.85042E-05
 0.42180000E+02 -0.36728E-05
 0.42230000E+02  0.35713E-06
 0.42279999E+02  0.99938E-05
 0.42330002E+02  0.16659E-04
 0.42380001E+02  0.10893E-04
 0.42430000E+02  0.12303E-04
 0.42480000E+02  0.24346E-04
 0.42529999E+02  0.26141E-04
 0.42580002E+02  0.15783E-04
 0.42630001E+02  0.94588E-05
 0.42680000E+02  0.12556E-04
 0.42730000E+02  0.10758E-04
 0.42779999E+02  0.37739E-05
 0.42830002E+02 -0.69382E-05
 0.42880001E+02 -0.18266E-04
 0.42930000E+02 -0.19288E-04
 0.42980000E+02 -0.15764E-04
 0.43029999E+02 -0.25641E-04
 0.43080002E+02 -0.37682E-04
 0.43130001E+02 -0.32833E-04
 0.43180000E+02 -0.22359E-04
 0.43230000E+02 -0.11215E-05
 0.43279999E+02  0.22717E-04
 0.43330002E+02  0.29565E-04
 0.43380001E+02  0.25044E-04
 0.43430000E+02  0.17964E-04
 0.43480000E+02  0.15995E-04
 0.43529999E+02  0.48346E-05
 0.43580002E+02 -0.15519E-04
 0.43630001E+02 -0.17140E-04
 0.43680000E+02 -0.90781E-05
 0.43730000E+02 -0.63543E-05
 0.43779999E+02 -0.22462E-05
 0.43830002E+02  0.47571E-05
 0.43880001E+02  0.16366E-04
 0.43930000E+02  0.17558E-04
 0.43980000E+02 -0.10394E-05
 0.44029999E+02 -0.21299E-04
 0.44080002E+02 -0.17822E-04
 0.44130001E+02  0.61068E-05
 0.44180000E+02  0.14586E-04
 0.44230000E+02  0.90819E-05
 0.44279999E+02  0.15849E-04
 0.44330002E+02  0.32054E-04
 0.44380001E+02  0.29395E-04
 0.44430000E+02  0.61320E-05
 0.44480000E+02 -0.16282E-04
 0.44529999E+02 -0.24715E-04
 0.44580002E+02 -0.12192E-04
 0.44630001E+02 -0.28659E-05
 0.44680000E+02 -0.89995E-05
 0.44730000E+02 -0.21279E-04
 0.44779999E+02 -0.26080E-04
 0.44830002E+02 -0.13863E-04
 0.44880001E+02 -0.39340E-05
 0.44930000E+02  0.33387E-05
 0.44980000E+02  0.12600E-04
 0.45029999E+02  0.95895E-05
 0.45080002E+02  0.45546E-05
 0.45130001E+02  0.14993E-04
 0.45180000E+02  0.24362E-04
 0.45230000E+02  0.19707E-04
 0.45279999E+02  0.17806E-04
 0.45330002E+02  0.12242E-04
 0.45380001E+02 -0.74493E-05
 0.45430000E+02 -0.26186E-04
 0.45480000E+02 -0.39106E-04
 0.45529999E+02 -0.37704E-04
 0.45580002E+02 -0.19366E-04
 0.45630001E+02 -0.34318E-05
 0.45680000E+02  0.12639E-04
 0.45730000E+02  0.36708E-04
 0.45779999E+02  0.49318E-04
 0.45830002E+02  0.34771E-04
 0.45880001E+02  0.33758E-05
 0.45930000E+02 -0.23258E-04
 0.45980000E+02 -0.36719E-04
 0.46029999E+02 -0.44649E-04
 0.46080002E+02 -0.41035E-04
 0.46130001E+02 -0.21172E-04
 0.46180000E+02 -0.42669E-05
 0.46230000E+02  0.19598E-04
 0.46279999E+02  0.48568E-04
 0.46330002E+02  0.55970E-04
 0.46380001E+02  0.49304E-04
 0.46430000E+02  0.32163E-04
 0.46480000E+02  0.23059E-05
 0.46529999E+02 -0.35117E-04
 0.46580002E+02 -0.61354E-04
 0.46630001E+02 -0.63055E-04
 0.46680000E+02 -0.48055E-04
 0.46730000E+02 -0.23123E-04
 0.46779999E+02  0.54763E-05
 0.46830002E+02  0.21931E-04
 0.46880001E+02  0.17723E-04
 0.46930000E+02  0.84671E-05
 0.46980000E+02  0.51790E-05
 0.47029999E+02  0.11983E-04
 0.47080002E+02  0.16938E-04
 0.47130001E+02  0.17658E-04
 0.47180000E+02  0.20069E-04
 0.47230000E+02  0.14533E-04
 0.47279999E+02  0.91519E-05
 0.47330002E+02  0.18023E-05
 0.47380001E+02 -0.80522E-05
 0.47430000E+02 -0.16177E-04
 0.47480000E+02 -0.23647E-04
 0.47529999E+02 -0.19451E-04
 0.47580002E+02 -0.15203E-04
 0.47630001E+02 -0.11159E-04
 0.47680000E+02  0.43055E-05
 0.47730000E+02  0.23110E-04
 0.47779999E+02  0.37069E-04
 0.47830002E+02  0.42268E-04
 0.47880001E+02  0.45151E-04
 0.47930000E+02  0.41498E-04
 0.47980000E+02  0.26592E-04
 0.48029999E+02  0.30651E-05
 0.48080002E+02 -0.21588E-04
 0.48130001E+02 -0.32556E-04
 0.48180000E+02 -0.39123E-04
 0.48230000E+02 -0.47327E-04
 0.48279999E+02 -0.43985E-04
 0.48330002E+02 -0.22853E-04
 0.48380001E+02  0.11972E-04
 0.48430000E+02  0.39375E-04
 0.48480000E+02  0.42890E-04
 0.48529999E+02  0.29953E-04
 0.48580002E+02  0.78249E-05
 0.48630001E+02 -0.11806E-04
 0.48680000E+02 -0.16991E-04
 0.48730000E+02 -0.19503E-04
 0.48779999E+02 -0.15467E-04
 0.48830002E+02  0.39679E-06
 0.48880001E+02  0.11700E-04
 0.48930000E+02  0.51303E-05
 0.48980000E+02 -0.20813E-04
 0.49029999E+02 -0.48003E-04
 0.49080002E+02 -0.72015E-04
 0.49130001E+02 -0.81918E-04
 0.49180000E+02 -0.53900E-04
 0.49230000E+02  0.52451E-05
 0.49279999E+02  0.53933E-04
 0.49330002E+02  0.57827E-04
 0.49380001E+02  0.38099E-04
 0.49430000E+02  0.24696E-04
 0.49480000E+02  0.14930E-04
 0.49529999E+02  0.25961E-05
 0.49580002E+02 -0.43537E-05
 0.49630001E+02 -0.39645E-05
 0.49680000E+02  0.28926E-05
 0.49730000E+02  0.15689E-04
 0.49779999E+02  0.20745E-04
 0.49830002E+02  0.13934E-04
 0.49880001E+02  0.10120E-04
 0.49930000E+02  0.19415E-04
 0.49980000E+02  0.24985E-04
 0.50029999E+02  0.21244E-04
 0.50080002E+02  0.14416E-04
 0.50130001E+02 -0.16308E-05
 0.50180000E+02 -0.12276E-04
 0.50230000E+02 -0.13453E-04
 0.50279999E+02 -0.96334E-05
 0.50330002E+02 -0.49712E-05
 0.50380001E+02 -0.48705E-05
 0.50430000E+02 -0.11694E-05
 0.50480000E+02 -0.61071E-05
 0.50529999E+02 -0.15467E-04
 0.50580002E+02 -0.14019E-04
 0.50630001E+02 -0.33635E-05
 0.50680000E+02  0.14168E-04
 0.50730000E+02  0.22720E-04
 0.50779999E+02  0.18937E-04
 0.50830002E+02  0.86218E-05
 0.50880001E+02 -0.68239E-05
 0.50930000E+02 -0.15859E-04
 0.50980000E+02 -0.16920E-04
 0.51029999E+02 -0.19955E-04
 0.51080002E+02 -0.20892E-04
 0.51130001E+02 -0.20096E-04
 0.51180000E+02 -0.18710E-04
 0.51230000E+02 -0.41687E-05
 0.51279999E+02  0.10556E-04
 0.51330002E+02  0.89662E-05
 0.51380001E+02 -0.18007E-05
 0.51430000E+02 -0.79880E-05
 0.51480000E+02  0.20355E-05
 0.51529999E+02  0.17850E-04
 0.51580002E+02  0.25391E-04
 0.51630001E+02  0.31800E-04
 0.51680000E+02  0.26525E-04
 0.51730000E+02 -0.40104E-05
 0.51779999E+02 -0.34635E-04
 0.51830002E+02 -0.44294E-04
 0.51880001E+02 -0.37336E-04
 0.51930000E+02 -0.28808E-04
 0.51980000E+02 -0.23604E-04
 0.52029999E+02 -0.12942E-04
 0.52080002E+02  0.13586E-04
 0.52130001E+02  0.45673E-04
 0.52180000E+02  0.54279E-04
 0.52230000E+02  0.39849E-04
 0.52279999E+02  0.20618E-04
 0.52330002E+02  0.90341E-05
 0.52380001E+02  0.10597E-05
 0.52430000E+02 -0.69866E-05
 0.52480000E+02 -0.11324E-04
 0.52529999E+02 -0.20012E-04
 0.52580002E+02 -0.22265E-04
 0.52630001E+02 -0.10593E-04
 0.52680000E+02 -0.20828E-06
 0.52730000E+02  0.49017E-05
 0.52779999E+02  0.68810E-05
 0.52830002E+02  0.42308E-05
 0.52880001E+02  0.23918E-05
 0.52930000E+02  0.28204E-05
 0.52980000E+02  0.55234E-06
 0.53029999E+02 -0.16659E-05
 0.53080002E+02 -0.63337E-05
 0.53130001E+02 -0.11172E-04
 0.53180000E+02 -0.71989E-05
 0.53230000E+02 -0.61128E-06
 0.53279999E+02  0.44841E-05
 0.53330002E+02  0.86154E-05
 0.53380001E+02  0.77433E-05
 0.53430000E+02  0.10903E-04
 0.53480000E+02  0.20084E-04
 0.53529999E+02  0.23302E-04
 0.53580002E+02  0.15302E-04
 0.53630001E+02 -0.25302E-05
 0.53680000E+02 -0.16191E-04
 0.53730000E+02 -0.15947E-04
 0.53779999E+02 -0.77732E-05
 0.53830002E+02 -0.34431E-05
 0.53880001E+02 -0.61778E-05
 0.53930000E+02 -0.16696E-04
 0.53980000E+02 -0.27240E-04
 0.54029999E+02 -0.26933E-04
 0.54080002E+02 -0.20931E-04
 0.54130001E+02 -0.39469E-05
 0.54180000E+02  0.15197E-04
 0.54230000E+02  0.17729E-04
 0.54279999E+02  0.14906E-04
 0.54330002E+02  0.17880E-04
 0.54380001E+02  0.19991E-04
 0.54430000E+02  0.16492E-04
 0.54480000E+02  0.63243E-05
 0.54529999E+02 -0.63416E-05
 0.54580002E+02 -0.13839E-04
 0.54630001E+02 -0.18011E-04
 0.54680000E+02 -0.21241E-04
 0.54730000E+02 -0.27991E-04
 0.54779999E+02 -0.31781E-04
 0.54830002E+02 -0.24026E-04
 0.54880001E+02 -0.22937E-04
 0.54930000E+02 -0.26189E-04
 0.54980000E+02 -0.15364E-04
 0.55029999E+02  0.77971E-05
 0.55080002E+02  0.32200E-04
 0.55130001E+02  0.40669E-04
 0.55180000E+02  0.37634E-04
 0.55230000E+02  0.35971E-04
 0.55279999E+02  0.40480E-04
 0.55330002E+02  0.44508E-04
 0.55380001E+02  0.29056E-04
 0.55430000E+02  0.19275E-05
 0.55480000E+02 -0.16002E-04
 0.55529999E+02 -0.20836E-04
 0.55580002E+02 -0.63160E-05
 0.55630001E+02  0.23656E-04
 0.55680000E+02  0.36228E-04
 0.55730000E+02  0.22892E-04
 0.55779999E+02  0.40874E-05
 0.55830002E+02 -0.20569E-05
 0.55880001E+02 -0.53871E-06
 0.55930000E+02 -0.95698E-05
 0.55980000E+02 -0.22358E-04
 0.56029999E+02 -0.26108E-04
 0.56080002E+02 -0.20325E-04
 0.56130001E+02 -0.16008E-04
 0.56180000E+02 -0.21963E-04
 0.56230000E+02 -0.23703E-04
 0.56279999E+02 -0.93458E-05
 0.56330002E+02 -0.18328E-05
 0.56380001E+02 -0.37849E-05
 0.56430000E+02  0.24491E-05
 0.56480000E+02  0.49086E-05
 0.56529999E+02 -0.72051E-06
 0.56580002E+02 -0.49390E-05
 0.56630001E+02 -0.26030E-05
 0.56680000E+02  0.83616E-05
 0.56730000E+02  0.23728E-04
 0.56779999E+02  0.27519E-04
 0.56830002E+02  0.94179E-05
 0.56880001E+02 -0.16177E-04
 0.56930000E+02 -0.32517E-04
 0.56980000E+02 -0.40844E-04
 0.57029999E+02 -0.48011E-04
 0.57080002E+02 -0.43372E-04
 0.57130001E+02 -0.25302E-04
 0.57180000E+02 -0.10560E-04
 0.57230000E+02  0.22761E-05
 0.57279999E+02  0.17032E-04
 0.57330002E+02  0.23023E-04
 0.57380001E+02  0.19794E-04
 0.57430000E+02  0.17226E-04
 0.57480000E+02  0.21889E-04
 0.57529999E+02  0.22702E-04
 0.57580002E+02  0.44525E-05
 0.57630001E+02 -0.17461E-04
 0.57680000E+02 -0.23254E-04
 0.57730000E+02 -0.49337E-05
 0.57779999E+02  0.22271E-04
 0.57830002E+02  0.27859E-04
 0.57880001E+02  0.18748E-04
 0.57930000E+02  0.17024E-04
 0.57980000E+02  0.24425E-04
 0.58029999E+02  0.12970E-04
 0.58080002E+02 -0.21478E-04
 0.58130001E+02 -0.39346E-04
 0.58180000E+02 -0.36828E-04
 0.58230000E+02 -0.25573E-04
 0.58279999E+02 -0.21075E-04
 0.58330002E+02 -0.20349E-04
 0.58380001E+02  0.12253E-05
 0.58430000E+02  0.40753E-04
 0.58480000E+02  0.99586E-04
 0.58529999E+02  0.13648E-03
 0.58580002E+02  0.13113E-03
 0.58630001E+02  0.11759E-03
 0.58680000E+02  0.68075E-04
 0.58730000E+02 -0.38071E-04
 0.58779999E+02 -0.13838E-03
 0.58830002E+02 -0.15985E-03
 0.58880001E+02 -0.10720E-03
 0.58930000E+02 -0.50261E-04
 0.58980000E+02 -0.18150E-04
 0.59029999E+02  0.63040E-05
 0.59080002E+02 -0.15265E-04
 0.59130001E+02 -0.33623E-04
 0.59180000E+02  0.24910E-04
 0.59230000E+02  0.68132E-04
 0.59279999E+02  0.45244E-04
 0.59330002E+02 -0.87682E-05
 0.59380001E+02 -0.28409E-04
 0.59430000E+02 -0.11650E-05
 0.59480000E+02  0.34856E-04
 0.59529999E+02  0.75393E-04
 0.59580002E+02  0.56959E-04
 0.59630001E+02 -0.25259E-04
 0.59680000E+02 -0.10577E-03
 0.59730000E+02 -0.16454E-03
 0.59779999E+02 -0.14930E-03
 0.59830002E+02 -0.30119E-04
 0.59880001E+02  0.85953E-04
 0.59930000E+02  0.10920E-03
 0.59980000E+02  0.81351E-04
 0.60029999E+02  0.48060E-04
 0.60080002E+02  0.25733E-04
 0.60130001E+02 -0.27447E-05
 0.60180000E+02 -0.10218E-04
 0.60230000E+02  0.71835E-05
 0.60279999E+02 -0.40045E-04
 0.60330002E+02 -0.84196E-04
 0.60380001E+02 -0.37711E-04
 0.60430000E+02  0.38059E-04
 0.60480000E+02  0.61866E-04
 0.60529999E+02  0.18232E-04
 0.60580002E+02  0.84291E-05
 0.60630001E+02  0.52220E-04
 0.60680000E+02  0.57411E-04
 0.60730000E+02 -0.18969E-04
 0.60779999E+02 -0.15189E-03
 0.60830002E+02 -0.20901E-03
 0.60880001E+02 -0.16777E-03
 0.60930000E+02 -0.11334E-03
 0.60980000E+02 -0.71415E-05
 0.61029999E+02  0.93139E-04
 0.61080002E+02  0.92618E-04
 0.61130001E+02  0.91405E-04
 0.61180000E+02  0.18474E-03
 0.61230000E+02  0.32047E-03
 0.61279999E+02  0.30199E-03
 0.61330002E+02  0.26095E-04
 0.61380001E+02 -0.25539E-03
 0.61430000E+02 -0.29681E-03
 0.61480000E+02 -0.16083E-03
 0.61529999E+02 -0.25006E-04
 0.61580002E+02 -0.18759E-04
 0.61630001E+02 -0.10309E-03
 0.61680000E+02 -0.11332E-03
 0.61730000E+02  0.21059E-04
 0.61779999E+02  0.15701E-03
 0.61830002E+02  0.18137E-03
 0.61880001E+02  0.15688E-03
 0.61930000E+02  0.11182E-03
 0.61980000E+02  0.91433E-04
 0.62029999E+02  0.12121E-03
 0.62080002E+02  0.13020E-03
 0.62130001E+02  0.81469E-04
 0.62180000E+02 -0.79750E-05
 0.62230000E+02 -0.11080E-03
 0.62279999E+02 -0.18110E-03
 0.62330002E+02 -0.15694E-03
 0.62380001E+02 -0.11449E-03
 0.62430000E+02 -0.15327E-03
 0.62480000E+02 -0.14461E-03
 0.62529999E+02 -0.21021E-05
 0.62580002E+02  0.11043E-03
 0.62630001E+02  0.86618E-04
 0.62680000E+02 -0.10922E-04
 0.62730000E+02 -0.47522E-04
 0.62779999E+02  0.41846E-04
 0.62830002E+02  0.11808E-03
 0.62880001E+02  0.10855E-03
 0.62930000E+02  0.68538E-04
 0.62980000E+02  0.21943E-04
 0.63029999E+02  0.11938E-04
 0.63080002E+02  0.14166E-04
 0.63130001E+02 -0.20872E-04
 0.63180000E+02 -0.77509E-04
 0.63230000E+02 -0.13684E-03
 0.63279999E+02 -0.17519E-03
 0.63330002E+02 -0.17873E-03
 0.63380001E+02 -0.15617E-03
 0.63430000E+02 -0.10525E-03
 0.63480000E+02 -0.40268E-06
 0.63529999E+02  0.10470E-03
 0.63580002E+02  0.16417E-03
 0.63630001E+02  0.18700E-03
 0.63680000E+02  0.12617E-03
 0.63730000E+02  0.50931E-04
 0.63779999E+02  0.49008E-04
 0.63830002E+02  0.47975E-04
 0.63880001E+02  0.11976E-05
 0.63930000E+02 -0.64784E-04
 0.63980000E+02 -0.11112E-03
 0.64029999E+02 -0.12635E-03
 0.64080002E+02 -0.13079E-03
 0.64129997E+02 -0.95467E-04
 0.64180000E+02 -0.12967E-04
 0.64230003E+02  0.55375E-04
 0.64279999E+02  0.59598E-04
 0.64330002E+02  0.28671E-05
 0.64379997E+02 -0.23358E-04
 0.64430000E+02  0.24095E-05
 0.64480003E+02  0.35094E-04
 0.64529999E+02  0.66694E-04
 0.64580002E+02  0.60517E-04
 0.64629997E+02  0.20325E-04
 0.64680000E+02 -0.52607E-05
 0.64730003E+02  0.36631E-04
 0.64779999E+02  0.90221E-04
 0.64830002E+02  0.74977E-04
 0.64879997E+02  0.55137E-04
 0.64930000E+02  0.37087E-04
 0.64980003E+02 -0.22576E-04
 0.65029999E+02 -0.51331E-04
 0.65080002E+02 -0.15434E-04
 0.65129997E+02 -0.35808E-04
 0.65180000E+02 -0.11907E-03
 0.65230003E+02 -0.15292E-03
 0.65279999E+02 -0.12153E-03
 0.65330002E+02 -0.18417E-04
 0.65379997E+02  0.12341E-03
 0.65430000E+02  0.21880E-03
 0.65480003E+02  0.26179E-03
 0.65529999E+02  0.26413E-03
 0.65580002E+02  0.17996E-03
 0.65629997E+02  0.23665E-04
 0.65680000E+02 -0.92094E-04
 0.65730003E+02 -0.11601E-03
 0.65779999E+02 -0.10344E-03
 0.65830002E+02 -0.13160E-03
 0.65879997E+02 -0.21556E-03
 0.65930000E+02 -0.27470E-03
 0.65980003E+02 -0.23032E-03
 0.66029999E+02 -0.10159E-03
 0.66080002E+02  0.24151E-04
 0.66129997E+02  0.10807E-03
 0.66180000E+02  0.15889E-03
 0.66230003E+02  0.16024E-03
 0.66279999E+02  0.10782E-03
 0.66330002E+02  0.49957E-04
 0.66379997E+02  0.48473E-04
 0.66430000E+02  0.94512E-04
 0.66480003E+02  0.11193E-03
 0.66529999E+02  0.55152E-04
 0.66580002E+02 -0.39798E-04
 0.66629997E+02 -0.11413E-03
 0.66680000E+02 -0.14319E-03
 0.66730003E+02 -0.13646E-03
 0.66779999E+02 -0.95194E-04
 0.66830002E+02 -0.30118E-04
 0.66879997E+02 -0.32567E-05
 0.66930000E+02 -0.23400E-04
 0.66980003E+02 -0.26639E-04
 0.67029999E+02  0.17682E-04
 0.67080002E+02  0.82664E-04
 0.67129997E+02  0.10497E-03
 0.67180000E+02  0.56943E-04
 0.67230003E+02  0.36226E-07
 0.67279999E+02 -0.24704E-04
 0.67330002E+02 -0.53890E-04
 0.67379997E+02 -0.92967E-04
 0.67430000E+02 -0.80203E-04
 0.67480003E+02 -0.24961E-04
 0.67529999E+02  0.10001E-04
 0.67580002E+02  0.28237E-04
 0.67629997E+02  0.16925E-04
 0.67680000E+02  0.90427E-05
 0.67730003E+02  0.41051E-04
 0.67779999E+02  0.45293E-04
 0.67830002E+02  0.47102E-04
 0.67879997E+02  0.79886E-04
 0.67930000E+02  0.73823E-04
 0.67980003E+02  0.27477E-04
 0.68029999E+02 -0.10525E-04
 0.68080002E+02 -0.30971E-04
 0.68129997E+02 -0.48595E-04
 0.68180000E+02 -0.63479E-04
 0.68230003E+02 -0.39324E-04
 0.68279999E+02  0.55259E-05
 0.68330002E+02  0.42285E-04
 0.68379997E+02  0.73673E-04
 0.68430000E+02  0.70027E-04
 0.68480003E+02  0.55780E-04
 0.68529999E+02  0.38921E-04
 0.68580002E+02 -0.69687E-05
 0.68629997E+02 -0.70426E-04
 0.68680000E+02 -0.12388E-03
 0.68730003E+02 -0.13594E-03
 0.68779999E+02 -0.10380E-03
 0.68830002E+02 -0.40173E-04
 0.68879997E+02  0.25968E-04
 0.68930000E+02  0.82589E-04
 0.68980003E+02  0.12131E-03
 0.69029999E+02  0.12476E-03
 0.69080002E+02  0.78781E-04
 0.69129997E+02  0.56463E-06
 0.69180000E+02 -0.67062E-04
 0.69230003E+02 -0.95014E-04
 0.69279999E+02 -0.49899E-04
 0.69330002E+02  0.17480E-04
 0.69379997E+02  0.22394E-04
 0.69430000E+02 -0.35738E-04
 0.69480003E+02 -0.79488E-04
 0.69529999E+02 -0.48945E-04
 0.69580002E+02  0.57281E-05
 0.69629997E+02  0.34168E-04
 0.69680000E+02  0.31955E-04
 0.69730003E+02 -0.58513E-06
 0.69779999E+02 -0.17675E-04
 0.69830002E+02  0.10609E-04
 0.69879997E+02  0.36136E-04
 0.69930000E+02  0.25163E-04
 0.69980003E+02  0.68901E-05
 0.70029999E+02  0.15206E-04
 0.70080002E+02  0.25163E-04
 0.70129997E+02  0.10256E-04
 0.70180000E+02 -0.20059E-04
 0.70230003E+02 -0.46972E-04
 0.70279999E+02 -0.37651E-04
 0.70330002E+02 -0.14719E-04
 0.70379997E+02 -0.32357E-05
 0.70430000E+02  0.22968E-04
 0.70480003E+02  0.43127E-04
 0.70529999E+02  0.34416E-04
 0.70580002E+02  0.15397E-04
 0.70629997E+02 -0.55681E-05
 0.70680000E+02 -0.40581E-05
 0.70730003E+02  0.13934E-04
 0.70779999E+02  0.68398E-05
 0.70830002E+02  0.30145E-05
 0.70879997E+02  0.38073E-04
 0.70930000E+02  0.65853E-04
 0.70980003E+02  0.43720E-04
 0.71029999E+02  0.30447E-04
 0.71080002E+02  0.57173E-04
 0.71129997E+02  0.52514E-04
 0.71180000E+02 -0.34847E-04
 0.71230003E+02 -0.16109E-03
 0.71279999E+02 -0.20715E-03
 0.71330002E+02 -0.15647E-03
 0.71379997E+02 -0.77474E-04
 0.71430000E+02 -0.10503E-04
 0.71480003E+02  0.25459E-04
 0.71529999E+02  0.56542E-04
 0.71580002E+02  0.69829E-04
 0.71629997E+02  0.43404E-04
 0.71680000E+02 -0.46682E-05
 0.71730003E+02 -0.28729E-04
 0.71779999E+02 -0.40934E-05
 0.71830002E+02  0.26655E-04
 0.71879997E+02  0.51869E-04
 0.71930000E+02  0.87948E-04
 0.71980003E+02  0.14312E-03
 0.72029999E+02  0.16842E-03
 0.72080002E+02  0.10108E-03
 0.72129997E+02 -0.32336E-04
 0.72180000E+02 -0.16349E-03
 0.72230003E+02 -0.21696E-03
 0.72279999E+02 -0.17270E-03
 0.72330002E+02 -0.89002E-04
 0.72379997E+02 -0.20953E-04
 0.72430000E+02  0.86432E-05
 0.72480003E+02  0.74651E-06
 0.72529999E+02 -0.96093E-05
 0.72580002E+02 -0.31941E-05
 0.72629997E+02  0.44566E-05
 0.72680000E+02  0.10879E-04
 0.72730003E+02  0.12542E-04
 0.72779999E+02  0.25416E-04
 0.72830002E+02  0.70503E-04
 0.72879997E+02  0.14551E-03
 0.72930000E+02  0.21842E-03
 0.72980003E+02  0.22972E-03
 0.73029999E+02  0.15259E-03
 0.73080002E+02  0.38769E-04
 0.73129997E+02 -0.29633E-04
 0.73180000E+02 -0.79662E-04
 0.73230003E+02 -0.14361E-03
 0.73279999E+02 -0.18806E-03
 0.73330002E+02 -0.18956E-03
 0.73379997E+02 -0.11562E-03
 0.73430000E+02 -0.84146E-05
 0.73480003E+02  0.64600E-04
 0.73529999E+02  0.67798E-04
 0.73580002E+02  0.10707E-04
 0.73629997E+02 -0.27580E-04
 0.73680000E+02 -0.30921E-04
 0.73730003E+02 -0.22336E-04
 0.73779999E+02 -0.19763E-04
 0.73830002E+02 -0.40303E-04
 0.73879997E+02 -0.64665E-04
 0.73930000E+02 -0.65662E-04
 0.73980003E+02 -0.35391E-04
 0.74029999E+02 -0.60584E-05
 0.74080002E+02  0.74152E-05
 0.74129997E+02  0.10223E-04
 0.74180000E+02 -0.15355E-04
 0.74230003E+02 -0.46963E-04
 0.74279999E+02 -0.33571E-04
 0.74330002E+02  0.26662E-04
 0.74379997E+02  0.95049E-04
 0.74430000E+02  0.14676E-03
 0.74480003E+02  0.18003E-03
 0.74529999E+02  0.18661E-03
 0.74580002E+02  0.14589E-03
 0.74629997E+02  0.58335E-04
 0.74680000E+02 -0.37357E-04
 0.74730003E+02 -0.91416E-04
 0.74779999E+02 -0.86845E-04
 0.74830002E+02 -0.54921E-04
 0.74879997E+02 -0.26613E-04
 0.74930000E+02 -0.56980E-05
 0.74980003E+02  0.15955E-04
 0.75029999E+02  0.41001E-04
 0.75080002E+02  0.50911E-04
 0.75129997E+02  0.23307E-04
 0.75180000E+02 -0.32046E-04
 0.75230003E+02 -0.98576E-04
 0.75279999E+02 -0.17094E-03
 0.75330002E+02 -0.19239E-03
 0.75379997E+02 -0.12162E-03
 0.75430000E+02 -0.98809E-05
 0.75480003E+02  0.76400E-04
 0.75529999E+02  0.10842E-03
 0.75580002E+02  0.10691E-03
 0.75629997E+02  0.11457E-03
 0.75680000E+02  0.11995E-03
 0.75730003E+02  0.78655E-04
 0.75779999E+02 -0.85001E-05
 0.75830002E+02 -0.10452E-03
 0.75879997E+02 -0.17224E-03
 0.75930000E+02 -0.19246E-03
 0.75980003E+02 -0.17549E-03
 0.76029999E+02 -0.14437E-03
 0.76080002E+02 -0.83555E-04
 0.76129997E+02 -0.19930E-05
 0.76180000E+02  0.57620E-04
 0.76230003E+02  0.94809E-04
 0.76279999E+02  0.10478E-03
 0.76330002E+02  0.99978E-04
 0.76379997E+02  0.83404E-04
 0.76430000E+02  0.47871E-04
 0.76480003E+02  0.33794E-04
 0.76529999E+02  0.54990E-04
 0.76580002E+02  0.82531E-04
 0.76629997E+02  0.97050E-04
 0.76680000E+02  0.10422E-03
 0.76730003E+02  0.93628E-04
 0.76779999E+02  0.60192E-04
 0.76830002E+02  0.25916E-04
 0.76879997E+02 -0.96310E-05
 0.76930000E+02 -0.40821E-04
 0.76980003E+02 -0.49097E-04
 0.77029999E+02 -0.50824E-04
 0.77080002E+02 -0.62707E-04
 0.77129997E+02 -0.76525E-04
 0.77180000E+02 -0.86015E-04
 0.77230003E+02 -0.85465E-04
 0.77279999E+02 -0.69339E-04
 0.77330002E+02 -0.34761E-04
 0.77379997E+02 -0.20351E-06
 0.77430000E+02  0.23613E-04
 0.77480003E+02  0.54585E-04
 0.77529999E+02  0.89705E-04
 0.77580002E+02  0.10971E-03
 0.77629997E+02  0.10135E-03
 0.77680000E+02  0.68059E-04
 0.77730003E+02  0.94431E-05
 0.77779999E+02 -0.58783E-04
 0.77830002E+02 -0.85484E-04
 0.77879997E+02 -0.71913E-04
 0.77930000E+02 -0.67951E-04
 0.77980003E+02 -0.88690E-04
 0.78029999E+02 -0.10709E-03
 0.78080002E+02 -0.10140E-03
 0.78129997E+02 -0.78358E-04
 0.78180000E+02 -0.53541E-04
 0.78230003E+02 -0.32110E-04
 0.78279999E+02 -0.15311E-04
 0.78330002E+02  0.40881E-06
 0.78379997E+02  0.29347E-04
 0.78430000E+02  0.70900E-04
 0.78480003E+02  0.11651E-03
 0.78529999E+02  0.15342E-03
 0.78580002E+02  0.15362E-03
 0.78629997E+02  0.11033E-03
 0.78680000E+02  0.48035E-04
 0.78730003E+02 -0.15555E-04
 0.78779999E+02 -0.69702E-04
 0.78830002E+02 -0.89241E-04
 0.78879997E+02 -0.80645E-04
 0.78930000E+02 -0.75940E-04
 0.78980003E+02 -0.64723E-04
 0.79029999E+02 -0.23457E-04
 0.79080002E+02  0.34834E-04
 0.79129997E+02  0.76422E-04
 0.79180000E+02  0.81521E-04
 0.79230003E+02  0.54946E-04
 0.79279999E+02  0.20451E-04
 0.79330002E+02 -0.31668E-05
 0.79379997E+02 -0.15948E-04
 0.79430000E+02 -0.68225E-05
 0.79480003E+02  0.29332E-04
 0.79529999E+02  0.48764E-04
 0.79580002E+02  0.38605E-04
 0.79629997E+02  0.40515E-04
 0.79680000E+02  0.43425E-04
 0.79730003E+02  0.18629E-04
 0.79779999E+02 -0.31793E-04
 0.79830002E+02 -0.93896E-04
 0.79879997E+02 -0.13160E-03
 0.79930000E+02 -0.13130E-03
 0.79980003E+02 -0.97699E-04
 0.80029999E+02 -0.37453E-04
 0.80080002E+02  0.17500E-04
 0.80129997E+02  0.39252E-04
 0.80180000E+02  0.26645E-04
 0.80230003E+02 -0.22106E-05
 0.80279999E+02 -0.22172E-04
 0.80330002E+02 -0.17741E-04
 0.80379997E+02  0.56449E-05
 0.80430000E+02  0.44192E-04
 0.80480003E+02  0.85535E-04
 0.80529999E+02  0.10675E-03
 0.80580002E+02  0.10320E-03
 0.80629997E+02  0.69467E-04
 0.80680000E+02  0.89996E-05
 0.80730003E+02 -0.66380E-04
 0.80779999E+02 -0.13063E-03
 0.80830002E+02 -0.14648E-03
 0.80879997E+02 -0.11063E-03
 0.80930000E+02 -0.38404E-04
 0.80980003E+02  0.42440E-04
 0.81029999E+02  0.93832E-04
 0.81080002E+02  0.10491E-03
 0.81129997E+02  0.94739E-04
 0.81180000E+02  0.75413E-04
 0.81230003E+02  0.42384E-04
 0.81279999E+02 -0.59432E-06
 0.81330002E+02 -0.39041E-04
 0.81379997E+02 -0.64742E-04
 0.81430000E+02 -0.77505E-04
 0.81480003E+02 -0.76455E-04
 0.81529999E+02 -0.60258E-04
 0.81580002E+02 -0.24954E-04
 0.81629997E+02  0.14505E-04
 0.81680000E+02  0.32489E-04
 0.81730003E+02  0.36353E-04
 0.81779999E+02  0.48363E-04
 0.81830002E+02  0.67815E-04
 0.81879997E+02  0.75450E-04
 0.81930000E+02  0.59081E-04
 0.81980003E+02  0.17678E-04
 0.82029999E+02 -0.29913E-04
 0.82080002E+02 -0.65101E-04
 0.82129997E+02 -0.94568E-04
 0.82180000E+02 -0.11721E-03
 0.82230003E+02 -0.12121E-03
 0.82279999E+02 -0.99849E-04
 0.82330002E+02 -0.54882E-04
 0.82379997E+02  0.22746E-05
 0.82430000E+02  0.55800E-04
 0.82480003E+02  0.98576E-04
 0.82529999E+02  0.12384E-03
 0.82580002E+02  0.12519E-03
 0.82629997E+02  0.11347E-03
 0.82680000E+02  0.85037E-04
 0.82730003E+02  0.45344E-04
 0.82779999E+02  0.13597E-04
 0.82830002E+02 -0.16547E-04
 0.82879997E+02 -0.42431E-04
 0.82930000E+02 -0.57473E-04
 0.82980003E+02 -0.67045E-04
 0.83029999E+02 -0.67033E-04
 0.83080002E+02 -0.51029E-04
 0.83129997E+02 -0.34902E-04
 0.83180000E+02 -0.32253E-04
 0.83230003E+02 -0.27380E-04
 0.83279999E+02 -0.21735E-04
 0.83330002E+02 -0.21076E-04
 0.83379997E+02 -0.88670E-05
 0.83430000E+02  0.11133E-04
 0.83480003E+02  0.29751E-04
 0.83529999E+02  0.46553E-04
 0.83580002E+02  0.53718E-04
 0.83629997E+02  0.48906E-04
 0.83680000E+02  0.36391E-04
 0.83730003E+02  0.24245E-04
 0.83779999E+02  0.11718E-04
 0.83830002E+02 -0.66825E-05
 0.83879997E+02 -0.29461E-04
 0.83930000E+02 -0.56227E-04
 0.83980003E+02 -0.73386E-04
 0.84029999E+02 -0.63352E-04
 0.84080002E+02 -0.33802E-04
 0.84129997E+02 -0.55827E-05
 0.84180000E+02  0.84660E-05
 0.84230003E+02  0.37620E-05
 0.84279999E+02  0.31619E-05
 0.84330002E+02  0.30865E-04
 0.84379997E+02  0.70718E-04
 0.84430000E+02  0.10498E-03
 0.84480003E+02  0.12071E-03
 0.84529999E+02  0.10446E-03
 0.84580002E+02  0.66122E-04
 0.84629997E+02  0.16846E-04
 0.84680000E+02 -0.31071E-04
 0.84730003E+02 -0.62823E-04
 0.84779999E+02 -0.81475E-04
 0.84830002E+02 -0.85501E-04
 0.84879997E+02 -0.77083E-04
 0.84930000E+02 -0.61558E-04
 0.84980003E+02 -0.44274E-04
 0.85029999E+02 -0.42194E-04
 0.85080002E+02 -0.48050E-04
 0.85129997E+02 -0.41597E-04
 0.85180000E+02 -0.11486E-04
 0.85230003E+02  0.38085E-04
 0.85279999E+02  0.81257E-04
 0.85330002E+02  0.94468E-04
 0.85379997E+02  0.72473E-04
 0.85430000E+02  0.32206E-04
 0.85480003E+02 -0.78282E-05
 0.85529999E+02 -0.32762E-04
 0.85580002E+02 -0.36709E-04
 0.85629997E+02 -0.26663E-04
 0.85680000E+02 -0.46925E-05
 0.85730003E+02  0.19924E-04
 0.85779999E+02  0.36720E-04
 0.85830002E+02  0.42571E-04
 0.85879997E+02  0.39394E-04
 0.85930000E+02  0.24744E-04
 0.85980003E+02 -0.52492E-05
 0.86029999E+02 -0.30283E-04
 0.86080002E+02 -0.40829E-04
 0.86129997E+02 -0.44852E-04
 0.86180000E+02 -0.36846E-04
 0.86230003E+02 -0.20365E-04
 0.86279999E+02 -0.49369E-05
 0.86330002E+02  0.67401E-05
 0.86379997E+02  0.55086E-05
 0.86430000E+02 -0.12159E-04
 0.86480003E+02 -0.33416E-04
 0.86529999E+02 -0.43032E-04
 0.86580002E+02 -0.34489E-04
 0.86629997E+02 -0.75845E-05
 0.86680000E+02  0.24654E-04
 0.86730003E+02  0.40700E-04
 0.86779999E+02  0.28363E-04
 0.86830002E+02 -0.43578E-05
 0.86879997E+02 -0.31038E-04
 0.86930000E+02 -0.44109E-04
 0.86980003E+02 -0.58872E-04
 0.87029999E+02 -0.70014E-04
 0.87080002E+02 -0.56811E-04
 0.87129997E+02 -0.12400E-04
 0.87180000E+02  0.52262E-04
 0.87230003E+02  0.10721E-03
 0.87279999E+02  0.13374E-03
 0.87330002E+02  0.13641E-03
 0.87379997E+02  0.12131E-03
 0.87430000E+02  0.93974E-04
 0.87480003E+02  0.58814E-04
 0.87529999E+02  0.22873E-04
 0.87580002E+02 -0.12171E-04
 0.87629997E+02 -0.42640E-04
 0.87680000E+02 -0.57717E-04
 0.87730003E+02 -0.60866E-04
 0.87779999E+02 -0.59518E-04
 0.87830002E+02 -0.57343E-04
 0.87879997E+02 -0.59085E-04
 0.87930000E+02 -0.57902E-04
 0.87980003E+02 -0.45693E-04
 0.88029999E+02 -0.24329E-04
 0.88080002E+02  0.63493E-05
 0.88129997E+02  0.39174E-04
 0.88180000E+02  0.58785E-04
 0.88230003E+02  0.63595E-04
 0.88279999E+02  0.68154E-04
 0.88330002E+02  0.72019E-04
 0.88379997E+02  0.55095E-04
 0.88430000E+02  0.17282E-04
 0.88480003E+02 -0.32108E-04
 0.88529999E+02 -0.85013E-04
 0.88580002E+02 -0.12352E-03
 0.88629997E+02 -0.14180E-03
 0.88680000E+02 -0.13386E-03
 0.88730003E+02 -0.98686E-04
 0.88779999E+02 -0.58628E-04
 0.88830002E+02 -0.19759E-04
 0.88879997E+02  0.23105E-04
 0.88930000E+02  0.59846E-04
 0.88980003E+02  0.84826E-04
 0.89029999E+02  0.10362E-03
 0.89080002E+02  0.11851E-03
 0.89129997E+02  0.12131E-03
 0.89180000E+02  0.10228E-03
 0.89230003E+02  0.64417E-04
 0.89279999E+02  0.12693E-04
 0.89330002E+02 -0.51222E-04
 0.89379997E+02 -0.10653E-03
 0.89430000E+02 -0.13203E-03
 0.89480003E+02 -0.12356E-03
 0.89529999E+02 -0.86755E-04
 0.89580002E+02 -0.37807E-04
 0.89629997E+02  0.13120E-04
 0.89680000E+02  0.60940E-04
 0.89730003E+02  0.97383E-04
 0.89779999E+02  0.10777E-03
 0.89830002E+02  0.81298E-04
 0.89879997E+02  0.33566E-04
 0.89930000E+02 -0.28882E-05
 0.89980003E+02 -0.11488E-04
 0.90029999E+02 -0.49933E-05
 0.90080002E+02  0.17812E-05
 0.90129997E+02  0.35251E-05
 0.90180000E+02 -0.45682E-05
 0.90230003E+02 -0.22267E-04
 0.90279999E+02 -0.46171E-04
 0.90330002E+02 -0.74594E-04
 0.90379997E+02 -0.91904E-04
 0.90430000E+02 -0.82341E-04
 0.90480003E+02 -0.51535E-04
 0.90529999E+02 -0.49158E-05
 0.90580002E+02  0.44885E-04
 0.90629997E+02  0.84635E-04
 0.90680000E+02  0.10952E-03
 0.90730003E+02  0.11048E-03
 0.90779999E+02  0.91088E-04
 0.90830002E+02  0.61245E-04
 0.90879997E+02  0.24846E-04
 0.90930000E+02 -0.15668E-04
 0.90980003E+02 -0.51284E-04
 0.91029999E+02 -0.76852E-04
 0.91080002E+02 -0.93924E-04
 0.91129997E+02 -0.97313E-04
 0.91180000E+02 -0.89343E-04
 0.91230003E+02 -0.76869E-04
 0.91279999E+02 -0.64820E-04
 0.91330002E+02 -0.51504E-04
 0.91379997E+02 -0.25686E-04
 0.91430000E+02  0.14295E-04
 0.91480003E+02  0.60439E-04
 0.91529999E+02  0.10060E-03
 0.91580002E+02  0.12288E-03
 0.91629997E+02  0.11770E-03
 0.91680000E+02  0.85271E-04
 0.91730003E+02  0.40431E-04
 0.91779999E+02 -0.13542E-05
 0.91830002E+02 -0.33186E-04
 0.91879997E+02 -0.58978E-04
 0.91930000E+02 -0.77804E-04
 0.91980003E+02 -0.80516E-04
 0.92029999E+02 -0.59966E-04
 0.92080002E+02 -0.16453E-04
 0.92129997E+02  0.39249E-04
 0.92180000E+02  0.87720E-04
 0.92230003E+02  0.10662E-03
 0.92279999E+02  0.94492E-04
 0.92330002E+02  0.67197E-04
 0.92379997E+02  0.36097E-04
 0.92430000E+02  0.10606E-04
 0.92480003E+02 -0.52529E-05
 0.92529999E+02 -0.17532E-04
 0.92580002E+02 -0.37015E-04
 0.92629997E+02 -0.64202E-04
 0.92680000E+02 -0.82346E-04
 0.92730003E+02 -0.82415E-04
 0.92779999E+02 -0.73458E-04
 0.92830002E+02 -0.61013E-04
 0.92879997E+02 -0.39922E-04
 0.92930000E+02 -0.76592E-05
 0.92980003E+02  0.29415E-04
 0.93029999E+02  0.59388E-04
 0.93080002E+02  0.69235E-04
 0.93129997E+02  0.54823E-04
 0.93180000E+02  0.25338E-04
 0.93230003E+02 -0.75372E-05
 0.93279999E+02 -0.36311E-04
 0.93330002E+02 -0.57326E-04
 0.93379997E+02 -0.72348E-04
 0.93430000E+02 -0.79289E-04
 0.93480003E+02 -0.66708E-04
 0.93529999E+02 -0.31515E-04
 0.93580002E+02  0.14071E-04
 0.93629997E+02  0.52475E-04
 0.93680000E+02  0.71268E-04
 0.93730003E+02  0.70102E-04
 0.93779999E+02  0.55307E-04
 0.93830002E+02  0.36848E-04
 0.93879997E+02  0.24220E-04
 0.93930000E+02  0.18940E-04
 0.93980003E+02  0.15075E-04
 0.94029999E+02  0.10177E-04
 0.94080002E+02  0.83589E-05
 0.94129997E+02  0.92654E-05
 0.94180000E+02  0.70638E-05
 0.94230003E+02 -0.83534E-05
 0.94279999E+02 -0.35684E-04
 0.94330002E+02 -0.54963E-04
 0.94379997E+02 -0.53099E-04
 0.94430000E+02 -0.32337E-04
 0.94480003E+02 -0.25579E-05
 0.94529999E+02  0.26869E-04
 0.94580002E+02  0.48704E-04
 0.94629997E+02  0.57884E-04
 0.94680000E+02  0.53888E-04
 0.94730003E+02  0.36840E-04
 0.94779999E+02  0.11506E-04
 0.94830002E+02 -0.17236E-04
 0.94879997E+02 -0.43622E-04
 0.94930000E+02 -0.55250E-04
 0.94980003E+02 -0.46608E-04
 0.95029999E+02 -0.24781E-04
 0.95080002E+02 -0.43914E-06
 0.95129997E+02  0.22415E-04
 0.95180000E+02  0.43277E-04
 0.95230003E+02  0.55117E-04
 0.95279999E+02  0.49851E-04
 0.95330002E+02  0.29223E-04
 0.95379997E+02 -0.12787E-05
 0.95430000E+02 -0.30668E-04
 0.95480003E+02 -0.44390E-04
 0.95529999E+02 -0.41112E-04
 0.95580002E+02 -0.28740E-04
 0.95629997E+02 -0.21942E-04
 0.95680000E+02 -0.30411E-04
 0.95730003E+02 -0.44263E-04
 0.95779999E+02 -0.50078E-04
 0.95830002E+02 -0.44155E-04
 0.95879997E+02 -0.32281E-04
 0.95930000E+02 -0.22039E-04
 0.95980003E+02 -0.91705E-05
 0.96029999E+02  0.11833E-04
 0.96080002E+02  0.35186E-04
 0.96129997E+02  0.52613E-04
 0.96180000E+02  0.55887E-04
 0.96230003E+02  0.46782E-04
 0.96279999E+02  0.36717E-04
 0.96330002E+02  0.29742E-04
 0.96379997E+02  0.23943E-04
 0.96430000E+02  0.15135E-04
 0.96480003E+02 -0.20116E-05
 0.96529999E+02 -0.22150E-04
 0.96580002E+02 -0.28247E-04
 0.96629997E+02 -0.14883E-04
 0.96680000E+02  0.43681E-05
 0.96730003E+02  0.15719E-04
 0.96779999E+02  0.15547E-04
 0.96830002E+02  0.13666E-04
 0.96879997E+02  0.17799E-04
 0.96930000E+02  0.20174E-04
 0.96980003E+02  0.15232E-04
 0.97029999E+02  0.77702E-05
 0.97080002E+02  0.73732E-05
 0.97129997E+02  0.14528E-04
 0.97180000E+02  0.19306E-04
 0.97230003E+02  0.15678E-04
 0.97279999E+02  0.20489E-05
 0.97330002E+02 -0.19436E-04
 0.97379997E+02 -0.40047E-04
 0.97430000E+02 -0.46244E-04
 0.97480003E+02 -0.36354E-04
 0.97529999E+02 -0.24390E-04
 0.97580002E+02 -0.21536E-04
 0.97629997E+02 -0.31695E-04
 0.97680000E+02 -0.50430E-04
 0.97730003E+02 -0.60527E-04
 0.97779999E+02 -0.52321E-04
 0.97830002E+02 -0.35292E-04
 0.97879997E+02 -0.15950E-04
 0.97930000E+02  0.16801E-05
 0.97980003E+02  0.12773E-04
 0.98029999E+02  0.21548E-04
 0.98080002E+02  0.30353E-04
 0.98129997E+02  0.42269E-04
 0.98180000E+02  0.54148E-04
 0.98230003E+02  0.55886E-04
 0.98279999E+02  0.51472E-04
 0.98330002E+02  0.47588E-04
 0.98379997E+02  0.47522E-04
 0.98430000E+02  0.50136E-04
 0.98480003E+02  0.52782E-04
 0.98529999E+02  0.54051E-04
 0.98580002E+02  0.44427E-04
 0.98629997E+02  0.18875E-04
 0.98680000E+02 -0.13539E-04
 0.98730003E+02 -0.38839E-04
 0.98779999E+02 -0.52432E-04
 0.98830002E+02 -0.60743E-04
 0.98879997E+02 -0.67017E-04
 0.98930000E+02 -0.66870E-04
 0.98980003E+02 -0.56635E-04
 0.99029999E+02 -0.34172E-04
 0.99080002E+02  0.22298E-06
 0.99129997E+02  0.35229E-04
 0.99180000E+02  0.58189E-04
 0.99230003E+02  0.64811E-04
 0.99279999E+02  0.53852E-04
 0.99330002E+02  0.29816E-04
 0.99379997E+02  0.21421E-05
 0.99430000E+02 -0.20858E-04
 0.99480003E+02 -0.36654E-04
 0.99529999E+02 -0.48074E-04
 0.99580002E+02 -0.56673E-04
 0.99629997E+02 -0.60374E-04
 0.99680000E+02 -0.59466E-04
 0.99730003E+02 -0.57589E-04
 0.99779999E+02 -0.55211E-04
 0.99830002E+02 -0.52629E-04
 0.99879997E+02 -0.47973E-04
 0.99930000E+02 -0.38340E-04
 0.99980003E+02 -0.24687E-04
 0.10003000E+03 -0.43418E-05
 0.10008000E+03  0.27304E-04
 0.10013000E+03  0.63010E-04
 0.10018000E+03  0.88228E-04
 0.10023000E+03  0.96849E-04
 0.10028000E+03  0.88023E-04
 0.10033000E+03  0.62280E-04
 0.10038000E+03  0.29435E-04
 0.10043000E+03  0.39196E-05
 0.10048000E+03 -0.11319E-04
 0.10053000E+03 -0.19056E-04
 0.10058000E+03 -0.18394E-04
 0.10063000E+03 -0.11731E-04
 0.10068000E+03 -0.33646E-05
 0.10073000E+03  0.33741E-05
 0.10078000E+03  0.55805E-05
 0.10083000E+03  0.13799E-05
 0.10088000E+03 -0.94869E-05
 0.10093000E+03 -0.17413E-04
 0.10098000E+03 -0.11355E-04
 0.10103000E+03  0.13622E-05
 0.10108000E+03  0.97870E-05
 0.10113000E+03  0.15150E-04
 0.10118000E+03  0.19910E-04
 0.10123000E+03  0.25968E-04
 0.10128000E+03  0.34704E-04
 0.10133000E+03  0.43572E-04
 0.10138000E+03  0.48406E-04
 0.10143000E+03  0.43698E-04
 0.10148000E+03  0.29356E-04
 0.10153000E+03  0.11266E-04
 0.10158000E+03 -0.60466E-05
 0.10163000E+03 -0.20103E-04
 0.10168000E+03 -0.31686E-04
 0.10173000E+03 -0.45697E-04
 0.10178000E+03 -0.63332E-04
 0.10183000E+03 -0.78168E-04
 0.10188000E+03 -0.86653E-04
 0.10193000E+03 -0.87567E-04
 0.10198000E+03 -0.77550E-04
 0.10203000E+03 -0.57156E-04
 0.10208000E+03 -0.30553E-04
 0.10213000E+03 -0.23931E-05
 0.10218000E+03  0.23948E-04
 0.10223000E+03  0.46639E-04
 0.10228000E+03  0.61832E-04
 0.10233000E+03  0.68466E-04
 0.10238000E+03  0.70554E-04
 0.10243000E+03  0.67128E-04
 0.10248000E+03  0.55182E-04
 0.10253000E+03  0.36083E-04
 0.10258000E+03  0.15289E-04
 0.10263000E+03 -0.15191E-05
 0.10268000E+03 -0.17857E-04
 0.10273000E+03 -0.36126E-04
 0.10278000E+03 -0.50240E-04
 0.10283000E+03 -0.55787E-04
 0.10288000E+03 -0.48043E-04
 0.10293000E+03 -0.27730E-04
 0.10298000E+03 -0.31340E-05
 0.10303000E+03  0.17766E-04
 0.10308000E+03  0.27488E-04
 0.10313000E+03  0.27560E-04
 0.10318000E+03  0.27900E-04
 0.10323000E+03  0.34208E-04
 0.10328000E+03  0.42769E-04
 0.10333000E+03  0.43566E-04
 0.10338000E+03  0.33313E-04
 0.10343000E+03  0.20137E-04
 0.10348000E+03  0.93114E-05
 0.10353000E+03  0.38689E-05
 0.10358000E+03  0.85404E-05
 0.10363000E+03  0.19678E-04
 0.10368000E+03  0.27171E-04
 0.10373000E+03  0.22931E-04
 0.10378000E+03  0.78963E-05
 0.10383000E+03 -0.10259E-04
 0.10388000E+03 -0.25234E-04
 0.10393000E+03 -0.36585E-04
 0.10398000E+03 -0.45440E-04
 0.10403000E+03 -0.49967E-04
 0.10408000E+03 -0.52308E-04
 0.10413000E+03 -0.50486E-04
 0.10418000E+03 -0.39679E-04
 0.10423000E+03 -0.26927E-04
 0.10428000E+03 -0.18307E-04
 0.10433000E+03 -0.14419E-04
 0.10438000E+03 -0.17266E-04
 0.10443000E+03 -0.24227E-04
 0.10448000E+03 -0.29132E-04
 0.10453000E+03 -0.25396E-04
 0.10458000E+03 -0.12612E-04
 0.10463000E+03  0.64901E-06
 0.10468000E+03  0.97515E-05
 0.10473000E+03  0.14458E-04
 0.10478000E+03  0.17821E-04
 0.10483000E+03  0.25416E-04
 0.10488000E+03  0.34952E-04
 0.10493000E+03  0.40674E-04
 0.10498000E+03  0.40884E-04
 0.10503000E+03  0.36452E-04
 0.10508000E+03  0.28554E-04
 0.10513000E+03  0.17971E-04
 0.10518000E+03  0.78766E-05
 0.10523000E+03  0.23966E-05
 0.10528000E+03  0.91564E-06
 0.10533000E+03  0.34139E-05
 0.10538000E+03  0.95342E-05
 0.10543000E+03  0.12953E-04
 0.10548000E+03  0.96179E-05
 0.10553000E+03 -0.12975E-05
 0.10558000E+03 -0.14909E-04
 0.10563000E+03 -0.23905E-04
 0.10568000E+03 -0.26605E-04
 0.10573000E+03 -0.21792E-04
 0.10578000E+03 -0.12895E-04
 0.10583000E+03 -0.54697E-05
 0.10588000E+03  0.11077E-05
 0.10593000E+03  0.99258E-05
 0.10598000E+03  0.19858E-04
 0.10603000E+03  0.25474E-04
 0.10608000E+03  0.23020E-04
 0.10613000E+03  0.11905E-04
 0.10618000E+03 -0.23417E-05
 0.10623000E+03 -0.16277E-04
 0.10628000E+03 -0.30895E-04
 0.10633000E+03 -0.41835E-04
 0.10638000E+03 -0.47867E-04
 0.10643000E+03 -0.50407E-04
 0.10648000E+03 -0.44172E-04
 0.10653000E+03 -0.24041E-04
 0.10658000E+03  0.57433E-05
 0.10663000E+03  0.32668E-04
 0.10668000E+03  0.47571E-04
 0.10673000E+03  0.50999E-04
 0.10678000E+03  0.44853E-04
 0.10683000E+03  0.31875E-04
 0.10688000E+03  0.16835E-04
 0.10693000E+03  0.36422E-07
 0.10698000E+03 -0.14337E-04
 0.10703000E+03 -0.20813E-04
 0.10708000E+03 -0.21906E-04
 0.10713000E+03 -0.19749E-04
 0.10718000E+03 -0.14848E-04
 0.10723000E+03 -0.76162E-05
 0.10728000E+03  0.31116E-05
 0.10733000E+03  0.15259E-04
 0.10738000E+03  0.22532E-04
 0.10743000E+03  0.23503E-04
 0.10748000E+03  0.20417E-04
 0.10753000E+03  0.13923E-04
 0.10758000E+03  0.61161E-05
 0.10763000E+03 -0.40715E-06
 0.10768000E+03 -0.34743E-05
 0.10773000E+03 -0.22748E-05
 0.10778000E+03  0.24198E-05
 0.10783000E+03  0.93668E-05
 0.10788000E+03  0.16896E-04
 0.10793000E+03  0.21644E-04
 0.10798000E+03  0.18361E-04
 0.10803000E+03  0.40493E-05
 0.10808000E+03 -0.16813E-04
 0.10813000E+03 -0.31837E-04
 0.10818000E+03 -0.32884E-04
 0.10823000E+03 -0.26444E-04
 0.10828000E+03 -0.23808E-04
 0.10833000E+03 -0.28413E-04
 0.10838000E+03 -0.33840E-04
 0.10843000E+03 -0.32854E-04
 0.10848000E+03 -0.27169E-04
 0.10853000E+03 -0.17997E-04
 0.10858000E+03 -0.62367E-05
 0.10863000E+03  0.16484E-05
 0.10868000E+03  0.46973E-05
 0.10873000E+03  0.97137E-05
 0.10878000E+03  0.22066E-04
 0.10883000E+03  0.36928E-04
 0.10888000E+03  0.47491E-04
 0.10893000E+03  0.50633E-04
 0.10898000E+03  0.43222E-04
 0.10903000E+03  0.29290E-04
 0.10908000E+03  0.14684E-04
 0.10913000E+03  0.99372E-06
 0.10918000E+03 -0.79712E-05
 0.10923000E+03 -0.98580E-05
 0.10928000E+03 -0.78120E-05
 0.10933000E+03 -0.41536E-05
 0.10938000E+03  0.35376E-07
 0.10943000E+03  0.63926E-06
 0.10948000E+03 -0.52331E-05
 0.10953000E+03 -0.14133E-04
 0.10958000E+03 -0.19362E-04
 0.10963000E+03 -0.16200E-04
 0.10968000E+03 -0.75706E-05
 0.10973000E+03 -0.39334E-06
 0.10978000E+03  0.50071E-05
 0.10983000E+03  0.91408E-05
 0.10988000E+03  0.10333E-04
 0.10993000E+03  0.96164E-05
 0.10998000E+03  0.64699E-05
 0.11003000E+03 -0.93286E-07
 0.11008000E+03 -0.78370E-05
 0.11013000E+03 -0.13582E-04
 0.11018000E+03 -0.15429E-04
 0.11023000E+03 -0.14643E-04
 0.11028000E+03 -0.13215E-04
 0.11033000E+03 -0.12439E-04
 0.11038000E+03 -0.14371E-04
 0.11043000E+03 -0.17723E-04
 0.11048000E+03 -0.19464E-04
 0.11053000E+03 -0.15486E-04
 0.11058000E+03 -0.36813E-05
 0.11063000E+03  0.86941E-05
 0.11068000E+03  0.15438E-04
 0.11073000E+03  0.17196E-04
 0.11078000E+03  0.16939E-04
 0.11083000E+03  0.14513E-04
 0.11088000E+03  0.53890E-05
 0.11093000E+03 -0.10221E-04
 0.11098000E+03 -0.25358E-04
 0.11103000E+03 -0.33061E-04
 0.11108000E+03 -0.31110E-04
 0.11113000E+03 -0.21977E-04
 0.11118000E+03 -0.10755E-04
 0.11123000E+03  0.13518E-05
 0.11128000E+03  0.15101E-04
 0.11133000E+03  0.28045E-04
 0.11138000E+03  0.36971E-04
 0.11143000E+03  0.38309E-04
 0.11148000E+03  0.34558E-04
 0.11153000E+03  0.33161E-04
 0.11158000E+03  0.37238E-04
 0.11163000E+03  0.45061E-04
 0.11168000E+03  0.51357E-04
 0.11173000E+03  0.50193E-04
 0.11178000E+03  0.40119E-04
 0.11183000E+03  0.24395E-04
 0.11188000E+03  0.79503E-05
 0.11193000E+03 -0.52875E-05
 0.11198000E+03 -0.15990E-04
 0.11203000E+03 -0.25953E-04
 0.11208000E+03 -0.32888E-04
 0.11213000E+03 -0.34012E-04
 0.11218000E+03 -0.30521E-04
 0.11223000E+03 -0.25937E-04
 0.11228000E+03 -0.22798E-04
 0.11233000E+03 -0.23255E-04
 0.11238000E+03 -0.26735E-04
 0.11243000E+03 -0.31833E-04
 0.11248000E+03 -0.41344E-04
 0.11253000E+03 -0.52930E-04
 0.11258000E+03 -0.58489E-04
 0.11263000E+03 -0.55627E-04
 0.11268000E+03 -0.47269E-04
 0.11273000E+03 -0.36408E-04
 0.11278000E+03 -0.23617E-04
 0.11283000E+03 -0.94633E-05
 0.11288000E+03  0.60882E-05
 0.11293000E+03  0.23127E-04
 0.11298000E+03  0.36064E-04
 0.11303000E+03  0.39219E-04
 0.11308000E+03  0.34941E-04
 0.11313000E+03  0.28887E-04
 0.11318000E+03  0.22337E-04
 0.11323000E+03  0.17009E-04
 0.11328000E+03  0.13453E-04
 0.11333000E+03  0.74988E-05
 0.11338000E+03 -0.70955E-06
 0.11343000E+03 -0.87988E-05
 0.11348000E+03 -0.14690E-04
 0.11353000E+03 -0.14114E-04
 0.11358000E+03 -0.48642E-05
 0.11363000E+03  0.10999E-04
 0.11368000E+03  0.29213E-04
 0.11373000E+03  0.45818E-04
 0.11378000E+03  0.56689E-04
 0.11383000E+03  0.57414E-04
 0.11388000E+03  0.50020E-04
 0.11393000E+03  0.41811E-04
 0.11398000E+03  0.35600E-04
 0.11403000E+03  0.29812E-04
 0.11408000E+03  0.24302E-04
 0.11413000E+03  0.22322E-04
 0.11418000E+03  0.23799E-04
 0.11423000E+03  0.24021E-04
 0.11428000E+03  0.18955E-04
 0.11433000E+03  0.58206E-05
 0.11438000E+03 -0.15523E-04
 0.11443000E+03 -0.43173E-04
 0.11448000E+03 -0.73045E-04
 0.11453000E+03 -0.96615E-04
 0.11458000E+03 -0.10666E-03
 0.11463000E+03 -0.10310E-03
 0.11468000E+03 -0.89066E-04
 0.11473000E+03 -0.67618E-04
 0.11478000E+03 -0.42540E-04
 0.11483000E+03 -0.20910E-04
 0.11488000E+03 -0.65706E-05
 0.11493000E+03  0.44214E-05
 0.11498000E+03  0.13967E-04
 0.11503000E+03  0.22041E-04
 0.11508000E+03  0.28683E-04
 0.11513000E+03  0.32978E-04
 0.11518000E+03  0.34380E-04
 0.11523000E+03  0.30918E-04
 0.11528000E+03  0.22958E-04
 0.11533000E+03  0.16211E-04
 0.11538000E+03  0.14425E-04
 0.11543000E+03  0.15754E-04
 0.11548000E+03  0.17650E-04
 0.11553000E+03  0.18655E-04
 0.11558000E+03  0.19742E-04
 0.11563000E+03  0.22980E-04
 0.11568000E+03  0.28944E-04
 0.11573000E+03  0.36381E-04
 0.11578000E+03  0.41297E-04
 0.11583000E+03  0.41510E-04
 0.11588000E+03  0.38388E-04
 0.11593000E+03  0.33053E-04
 0.11598000E+03  0.24347E-04
 0.11603000E+03  0.11374E-04
 0.11608000E+03 -0.33381E-05
 0.11613000E+03 -0.16645E-04
 0.11618000E+03 -0.26245E-04
 0.11623000E+03 -0.29528E-04
 0.11628000E+03 -0.25915E-04
 0.11633000E+03 -0.19685E-04
 0.11638000E+03 -0.16341E-04
 0.11643000E+03 -0.16954E-04
 0.11648000E+03 -0.19199E-04
 0.11653000E+03 -0.21477E-04
 0.11658000E+03 -0.24537E-04
 0.11663000E+03 -0.28800E-04
 0.11668000E+03 -0.30429E-04
 0.11673000E+03 -0.27658E-04
 0.11678000E+03 -0.23635E-04
 0.11683000E+03 -0.18014E-04
 0.11688000E+03 -0.11378E-04
 0.11693000E+03 -0.85249E-05
 0.11698000E+03 -0.98977E-05
 0.11703000E+03 -0.12919E-04
 0.11708000E+03 -0.15858E-04
 0.11713000E+03 -0.15547E-04
 0.11718000E+03 -0.97372E-05
 0.11723000E+03 -0.59264E-06
 0.11728000E+03  0.68823E-05
 0.11733000E+03  0.10638E-04
 0.11738000E+03  0.13433E-04
 0.11743000E+03  0.15676E-04
 0.11748000E+03  0.14980E-04
 0.11753000E+03  0.11820E-04
 0.11758000E+03  0.93518E-05
 0.11763000E+03  0.89666E-05
 0.11768000E+03  0.11037E-04
 0.11773000E+03  0.16881E-04
 0.11778000E+03  0.23421E-04
 0.11783000E+03  0.27906E-04
 0.11788000E+03  0.31301E-04
 0.11793000E+03  0.32803E-04
 0.11798000E+03  0.31386E-04
 0.11803000E+03  0.25808E-04
 0.11808000E+03  0.16373E-04
 0.11813000E+03  0.59409E-05
 0.11818000E+03 -0.23863E-05
 0.11823000E+03 -0.62090E-05
 0.11828000E+03 -0.71944E-05
 0.11833000E+03 -0.91135E-05
 0.11838000E+03 -0.14519E-04
 0.11843000E+03 -0.22512E-04
 0.11848000E+03 -0.28678E-04
 0.11853000E+03 -0.31263E-04
 0.11858000E+03 -0.30690E-04
 0.11863000E+03 -0.27358E-04
 0.11868000E+03 -0.21503E-04
 0.11873000E+03 -0.12365E-04
 0.11878000E+03 -0.13802E-06
 0.11883000E+03  0.14354E-04
 0.11888000E+03  0.29487E-04
 0.11893000E+03  0.40966E-04
 0.11898000E+03  0.43896E-04
 0.11903000E+03  0.38169E-04
 0.11908000E+03  0.27293E-04
 0.11913000E+03  0.13333E-04
 0.11918000E+03 -0.26672E-05
 0.11923000E+03 -0.17479E-04
 0.11928000E+03 -0.28540E-04
 0.11933000E+03 -0.37100E-04
 0.11938000E+03 -0.42866E-04
 0.11943000E+03 -0.43927E-04
 0.11948000E+03 -0.40179E-04
 0.11953000E+03 -0.31161E-04
 0.11958000E+03 -0.17358E-04
 0.11963000E+03 -0.25101E-05
 0.11968000E+03  0.97591E-05
 0.11973000E+03  0.16979E-04
 0.11978000E+03  0.19413E-04
 0.11983000E+03  0.20448E-04
 0.11988000E+03  0.21260E-04
 0.11993000E+03  0.19775E-04
 0.11998000E+03  0.14446E-04
 0.12003000E+03  0.70781E-05
 0.12008000E+03 -0.76864E-06
 0.12013000E+03 -0.85777E-05
 0.12018000E+03 -0.15495E-04
 0.12023000E+03 -0.21149E-04
 0.12028000E+03 -0.24136E-04
 0.12033000E+03 -0.24205E-04
 0.12038000E+03 -0.20230E-04
 0.12043000E+03 -0.97893E-05
 0.12048000E+03  0.60046E-05
 0.12053000E+03  0.21431E-04
 0.12058000E+03  0.30727E-04
 0.12063000E+03  0.33485E-04
 0.12068000E+03  0.29697E-04
 0.12073000E+03  0.22678E-04
 0.12078000E+03  0.19096E-04
 0.12083000E+03  0.18158E-04
 0.12088000E+03  0.15066E-04
 0.12093000E+03  0.74136E-05
 0.12098000E+03 -0.14793E-05
 0.12103000E+03 -0.72495E-05
 0.12108000E+03 -0.10128E-04
 0.12113000E+03 -0.11105E-04
 0.12118000E+03 -0.10828E-04
 0.12123000E+03 -0.93368E-05
 0.12128000E+03 -0.79188E-05
 0.12133000E+03 -0.84621E-05
 0.12138000E+03 -0.10822E-04
 0.12143000E+03 -0.12531E-04
 0.12148000E+03 -0.10938E-04
 0.12153000E+03 -0.89786E-05
 0.12158000E+03 -0.78773E-05
 0.12163000E+03 -0.39930E-05
 0.12168000E+03  0.30818E-05
 0.12173000E+03  0.10885E-04
 0.12178000E+03  0.14491E-04
 0.12183000E+03  0.11751E-04
 0.12188000E+03  0.56567E-05
 0.12193000E+03 -0.94183E-06
 0.12198000E+03 -0.51128E-05
 0.12203000E+03 -0.55562E-05
 0.12208000E+03 -0.38810E-05
 0.12213000E+03 -0.14870E-05
 0.12218000E+03  0.23326E-05
 0.12223000E+03  0.80098E-05
 0.12228000E+03  0.12948E-04
 0.12233000E+03  0.14260E-04
 0.12238000E+03  0.11253E-04
 0.12243000E+03  0.46847E-05
 0.12248000E+03 -0.38943E-05
 0.12253000E+03 -0.12161E-04
 0.12258000E+03 -0.18178E-04
 0.12263000E+03 -0.20350E-04
 0.12268000E+03 -0.17735E-04
 0.12273000E+03 -0.12654E-04
 0.12278000E+03 -0.77323E-05
 0.12283000E+03 -0.31186E-05
 0.12288000E+03  0.20210E-05
 0.12293000E+03  0.69543E-05
 0.12298000E+03  0.10044E-04
 0.12303000E+03  0.12609E-04
 0.12308000E+03  0.16850E-04
 0.12313000E+03  0.22266E-04
 0.12318000E+03  0.25690E-04
 0.12323000E+03  0.24657E-04
 0.12328000E+03  0.19160E-04
 0.12333000E+03  0.11015E-04
 0.12338000E+03  0.18187E-05
 0.12343000E+03 -0.67063E-05
 0.12348000E+03 -0.10813E-04
 0.12353000E+03 -0.10405E-04
 0.12358000E+03 -0.76795E-05
 0.12363000E+03 -0.26136E-05
 0.12368000E+03  0.41134E-05
 0.12373000E+03  0.10005E-04
 0.12378000E+03  0.11850E-04
 0.12383000E+03  0.87429E-05
 0.12388000E+03  0.30136E-05
 0.12393000E+03 -0.18654E-05
 0.12398000E+03 -0.56794E-05
 0.12403000E+03 -0.97599E-05
 0.12408000E+03 -0.13000E-04
 0.12413000E+03 -0.16616E-04
 0.12418000E+03 -0.23060E-04
 0.12423000E+03 -0.32146E-04
 0.12428000E+03 -0.42542E-04
 0.12433000E+03 -0.51470E-04
 0.12438000E+03 -0.54227E-04
 0.12443000E+03 -0.47320E-04
 0.12448000E+03 -0.33026E-04
 0.12453000E+03 -0.16710E-04
 0.12458000E+03 -0.15787E-08
 0.12463000E+03  0.15756E-04
 0.12468000E+03  0.27926E-04
 0.12473000E+03  0.36653E-04
 0.12478000E+03  0.42874E-04
 0.12483000E+03  0.45432E-04
 0.12488000E+03  0.42250E-04
 0.12493000E+03  0.35112E-04
 0.12498000E+03  0.26394E-04
 0.12503000E+03  0.16688E-04
 0.12508000E+03  0.84923E-05
 0.12513000E+03  0.48493E-05
 0.12518000E+03  0.58035E-05
 0.12523000E+03  0.80244E-05
 0.12528000E+03  0.96737E-05
 0.12533000E+03  0.10851E-04
 0.12538000E+03  0.10527E-04
 0.12543000E+03  0.74434E-05
 0.12548000E+03  0.18136E-05
 0.12553000E+03 -0.58108E-05
 0.12558000E+03 -0.14401E-04
 0.12563000E+03 -0.22309E-04
 0.12568000E+03 -0.27241E-04
 0.12573000E+03 -0.27266E-04
 0.12578000E+03 -0.23779E-04
 0.12583000E+03 -0.18531E-04
 0.12588000E+03 -0.12576E-04
 0.12593000E+03 -0.69674E-05
 0.12598000E+03 -0.22333E-05
 0.12603000E+03  0.94139E-06
 0.12608000E+03  0.28926E-05
 0.12613000E+03  0.39596E-05
 0.12618000E+03  0.29373E-05
 0.12623000E+03 -0.47990E-06
 0.12628000E+03 -0.45886E-05
 0.12633000E+03 -0.84093E-05
 0.12638000E+03 -0.10805E-04
 0.12643000E+03 -0.10994E-04
 0.12648000E+03 -0.10983E-04
 0.12653000E+03 -0.11491E-04
 0.12658000E+03 -0.10464E-04
 0.12663000E+03 -0.64476E-05
 0.12668000E+03  0.57486E-06
 0.12673000E+03  0.87541E-05
 0.12678000E+03  0.16033E-04
 0.12683000E+03  0.22713E-04
 0.12688000E+03  0.28125E-04
 0.12693000E+03  0.31108E-04
 0.12698000E+03  0.30808E-04
 0.12703000E+03  0.25084E-04
 0.12708000E+03  0.14642E-04
 0.12713000E+03  0.26327E-05
 0.12718000E+03 -0.75831E-05
 0.12723000E+03 -0.12964E-04
 0.12728000E+03 -0.13265E-04
 0.12733000E+03 -0.11542E-04
 0.12738000E+03 -0.94121E-05
 0.12743000E+03 -0.43973E-05
 0.12748000E+03  0.50363E-05
 0.12753000E+03  0.16772E-04
 0.12758000E+03  0.26340E-04
 0.12763000E+03  0.30727E-04
 0.12768000E+03  0.30199E-04
 0.12773000E+03  0.25403E-04
 0.12778000E+03  0.17103E-04
 0.12783000E+03  0.77495E-05
 0.12788000E+03  0.39767E-06
 0.12793000E+03 -0.34127E-05
 0.12798000E+03 -0.40570E-05
 0.12803000E+03 -0.35217E-05
 0.12808000E+03 -0.39243E-05
 0.12813000E+03 -0.74404E-05
 0.12818001E+03 -0.15987E-04
 0.12823000E+03 -0.28484E-04
 0.12828000E+03 -0.40553E-04
 0.12833000E+03 -0.46247E-04
 0.12838000E+03 -0.43225E-04
 0.12843001E+03 -0.34112E-04
 0.12848000E+03 -0.22463E-04
 0.12853000E+03 -0.10836E-04
 0.12858000E+03 -0.35428E-06
 0.12863000E+03  0.77211E-05
 0.12868001E+03  0.12990E-04
 0.12873000E+03  0.15628E-04
 0.12878000E+03  0.14576E-04
 0.12883000E+03  0.97982E-05
 0.12888000E+03  0.31360E-05
 0.12893001E+03 -0.18937E-05
 0.12898000E+03 -0.32127E-05
 0.12903000E+03 -0.20718E-05
 0.12908000E+03  0.73655E-06
 0.12913000E+03  0.41551E-05
 0.12918001E+03  0.71418E-05
 0.12923000E+03  0.98185E-05
 0.12928000E+03  0.11750E-04
 0.12933000E+03  0.12287E-04
 0.12938000E+03  0.97962E-05
 0.12943001E+03  0.51750E-05
 0.12948000E+03  0.12866E-05
 0.12953000E+03 -0.19173E-05
 0.12958000E+03 -0.47113E-05
 0.12963000E+03 -0.60958E-05
 0.12968001E+03 -0.41903E-05
 0.12973000E+03  0.16273E-05
 0.12978000E+03  0.90538E-05
 0.12983000E+03  0.15115E-04
 0.12988000E+03  0.16556E-04
 0.12993001E+03  0.11695E-04
 0.12998000E+03  0.14879E-05
 0.13003000E+03 -0.11501E-04
 0.13008000E+03 -0.23559E-04
 0.13013000E+03 -0.32383E-04
 0.13018001E+03 -0.36554E-04
 0.13023000E+03 -0.35623E-04
 0.13028000E+03 -0.31322E-04
 0.13033000E+03 -0.24914E-04
 0.13038000E+03 -0.16963E-04
 0.13043001E+03 -0.79428E-05
 0.13048000E+03  0.11487E-05
 0.13053000E+03  0.81052E-05
 0.13058000E+03  0.11473E-04
 0.13063000E+03  0.11811E-04
 0.13068001E+03  0.11247E-04
 0.13073000E+03  0.11599E-04
 0.13078000E+03  0.14237E-04
 0.13083000E+03  0.18547E-04
 0.13088000E+03  0.20634E-04
 0.13093001E+03  0.19088E-04
 0.13098000E+03  0.15680E-04
 0.13103000E+03  0.11987E-04
 0.13108000E+03  0.92034E-05
 0.13113000E+03  0.77989E-05
 0.13118001E+03  0.82229E-05
 0.13123000E+03  0.10159E-04
 0.13128000E+03  0.11471E-04
 0.13133000E+03  0.10933E-04
 0.13138000E+03  0.99303E-05
 0.13143001E+03  0.93357E-05
 0.13148000E+03  0.87517E-05
 0.13153000E+03  0.80806E-05
 0.13158000E+03  0.71193E-05
 0.13163000E+03  0.56747E-05
 0.13168001E+03  0.40091E-05
 0.13173000E+03  0.20575E-05
 0.13178000E+03 -0.17813E-05
 0.13183000E+03 -0.80735E-05
 0.13188000E+03 -0.14896E-04
 0.13193001E+03 -0.20077E-04
 0.13198000E+03 -0.22239E-04
 0.13203000E+03 -0.21734E-04
 0.13208000E+03 -0.18863E-04
 0.13213000E+03 -0.12497E-04
 0.13218001E+03 -0.29975E-05
 0.13223000E+03  0.72481E-05
 0.13228000E+03  0.16629E-04
 0.13233000E+03  0.24782E-04
 0.13238000E+03  0.29936E-04
 0.13243001E+03  0.29894E-04
 0.13248000E+03  0.25031E-04
 0.13253000E+03  0.16932E-04
 0.13258000E+03  0.67998E-05
 0.13263000E+03 -0.43103E-05
 0.13268001E+03 -0.15873E-04
 0.13273000E+03 -0.26605E-04
 0.13278000E+03 -0.33363E-04
 0.13283000E+03 -0.34149E-04
 0.13288000E+03 -0.29897E-04
 0.13293001E+03 -0.22064E-04
 0.13298000E+03 -0.11616E-04
 0.13303000E+03 -0.16529E-05
 0.13308000E+03  0.47764E-05
 0.13313000E+03  0.83508E-05
 0.13318001E+03  0.10237E-04
 0.13323000E+03  0.99045E-05
 0.13328000E+03  0.68304E-05
 0.13333000E+03  0.22728E-05
 0.13338000E+03 -0.12838E-05
 0.13343001E+03 -0.26055E-05
 0.13348000E+03 -0.31926E-05
 0.13353000E+03 -0.50437E-05
 0.13358000E+03 -0.88209E-05
 0.13363000E+03 -0.14641E-04
 0.13368001E+03 -0.20346E-04
 0.13373000E+03 -0.23439E-04
 0.13378000E+03 -0.23833E-04
 0.13383000E+03 -0.21970E-04
 0.13388000E+03 -0.18294E-04
 0.13393001E+03 -0.12792E-04
 0.13398000E+03 -0.54572E-05
 0.13403000E+03  0.24195E-05
 0.13408000E+03  0.89518E-05
 0.13413000E+03  0.12830E-04
 0.13418001E+03  0.13953E-04
 0.13423000E+03  0.13938E-04
 0.13428000E+03  0.15051E-04
 0.13433000E+03  0.17941E-04
 0.13438000E+03  0.21153E-04
 0.13443001E+03  0.22415E-04
 0.13448000E+03  0.21802E-04
 0.13453000E+03  0.19892E-04
 0.13458000E+03  0.15150E-04
 0.13463000E+03  0.90064E-05
 0.13468001E+03  0.42442E-05
 0.13473000E+03  0.12879E-05
 0.13478000E+03  0.16530E-06
 0.13483000E+03  0.19041E-06
 0.13488000E+03  0.85613E-06
 0.13493001E+03  0.15331E-05
 0.13498000E+03  0.12774E-05
 0.13503000E+03 -0.20045E-06
 0.13508000E+03 -0.27916E-05
 0.13513000E+03 -0.56807E-05
 0.13518001E+03 -0.78147E-05
 0.13523000E+03 -0.73964E-05
 0.13528000E+03 -0.35549E-05
 0.13533000E+03  0.22775E-05
 0.13538000E+03  0.82684E-05
 0.13543001E+03  0.13108E-04
 0.13548000E+03  0.16439E-04
 0.13553000E+03  0.18366E-04
 0.13558000E+03  0.17712E-04
 0.13563000E+03  0.13866E-04
 0.13568001E+03  0.85041E-05
 0.13573000E+03  0.26280E-05
 0.13578000E+03 -0.22452E-05
 0.13583000E+03 -0.40368E-05
 0.13588000E+03 -0.28662E-05
 0.13593001E+03 -0.12854E-06
 0.13598000E+03  0.13837E-05
 0.13603000E+03  0.28099E-06
 0.13608000E+03 -0.25824E-05
 0.13613000E+03 -0.69925E-05
 0.13618001E+03 -0.12390E-04
 0.13623000E+03 -0.17595E-04
 0.13628000E+03 -0.21746E-04
 0.13633000E+03 -0.24620E-04
 0.13638000E+03 -0.25062E-04
 0.13643001E+03 -0.22405E-04
 0.13648000E+03 -0.18949E-04
 0.13653000E+03 -0.17074E-04
 0.13658000E+03 -0.17456E-04
 0.13663000E+03 -0.18965E-04
 0.13668001E+03 -0.20304E-04
 0.13673000E+03 -0.20981E-04
 0.13678000E+03 -0.20187E-04
 0.13683000E+03 -0.17389E-04
 0.13688000E+03 -0.13345E-04
 0.13693001E+03 -0.97089E-05
 0.13698000E+03 -0.71695E-05
 0.13703000E+03 -0.57661E-05
 0.13708000E+03 -0.60673E-05
 0.13713000E+03 -0.69679E-05
 0.13718001E+03 -0.51715E-05
 0.13723000E+03  0.14675E-05
 0.13728000E+03  0.12752E-04
 0.13733000E+03  0.26019E-04
 0.13738000E+03  0.37546E-04
 0.13743001E+03  0.45154E-04
 0.13748000E+03  0.49112E-04
 0.13753000E+03  0.50915E-04
 0.13758000E+03  0.49853E-04
 0.13763000E+03  0.44679E-04
 0.13768001E+03  0.35705E-04
 0.13773000E+03  0.24329E-04
 0.13778000E+03  0.13018E-04
 0.13783000E+03  0.33124E-05
 0.13788000E+03 -0.44631E-05
 0.13793001E+03 -0.11444E-04
 0.13798000E+03 -0.18468E-04
 0.13803000E+03 -0.23886E-04
 0.13808000E+03 -0.26616E-04
 0.13813000E+03 -0.26794E-04
 0.13818001E+03 -0.24226E-04
 0.13823000E+03 -0.19187E-04
 0.13828000E+03 -0.12044E-04
 0.13833000E+03 -0.29418E-05
 0.13838000E+03  0.73242E-05
 0.13843001E+03  0.15586E-04
 0.13848000E+03  0.18679E-04
 0.13853000E+03  0.16698E-04
 0.13858000E+03  0.11157E-04
 0.13863000E+03  0.46012E-05
 0.13868001E+03 -0.73967E-06
 0.13873000E+03 -0.37773E-05
 0.13878000E+03 -0.40979E-05
 0.13883000E+03 -0.22402E-05
 0.13888000E+03  0.36849E-06
 0.13893001E+03  0.23009E-05
 0.13898000E+03  0.26832E-05
 0.13903000E+03  0.71366E-06
 0.13908000E+03 -0.27061E-05
 0.13913000E+03 -0.53285E-05
 0.13918001E+03 -0.48613E-05
 0.13923000E+03 -0.31380E-06
 0.13928000E+03  0.72264E-05
 0.13933000E+03  0.15070E-04
 0.13938000E+03  0.19786E-04
 0.13943001E+03  0.19882E-04
 0.13948000E+03  0.15947E-04
 0.13953000E+03  0.92962E-05
 0.13958000E+03  0.10931E-05
 0.13963000E+03 -0.78460E-05
 0.13968001E+03 -0.16311E-04
 0.13973000E+03 -0.23054E-04
 0.13978000E+03 -0.26989E-04
 0.13983000E+03 -0.27607E-04
 0.13988000E+03 -0.26320E-04
 0.13993001E+03 -0.24498E-04
 0.13998000E+03 -0.22607E-04
 0.14003000E+03 -0.21525E-04
 0.14008000E+03 -0.21459E-04
 0.14013000E+03 -0.21841E-04
 0.14018001E+03 -0.20964E-04
 0.14023000E+03 -0.18112E-04
 0.14028000E+03 -0.13639E-04
 0.14033000E+03 -0.83695E-05
 0.14038000E+03 -0.38099E-05
 0.14043001E+03 -0.85296E-07
 0.14048000E+03  0.19858E-05
 0.14053000E+03  0.18283E-05
 0.14058000E+03 -0.49061E-06
 0.14063000E+03 -0.49865E-05
 0.14068001E+03 -0.10448E-04
 0.14073000E+03 -0.14857E-04
 0.14078000E+03 -0.17085E-04
 0.14083000E+03 -0.16965E-04
 0.14088000E+03 -0.12899E-04
 0.14093001E+03 -0.50442E-05
 0.14098000E+03  0.43102E-05
 0.14103000E+03  0.14043E-04
 0.14108000E+03  0.22403E-04
 0.14113000E+03  0.27471E-04
 0.14118001E+03  0.28719E-04
 0.14123000E+03  0.27020E-04
 0.14128000E+03  0.25082E-04
 0.14133000E+03  0.26670E-04
 0.14138000E+03  0.33295E-04
 0.14143001E+03  0.41849E-04
 0.14148000E+03  0.47287E-04
 0.14153000E+03  0.47293E-04
 0.14158000E+03  0.44137E-04
 0.14163000E+03  0.40049E-04
 0.14168001E+03  0.35793E-04
 0.14173000E+03  0.31024E-04
 0.14178000E+03  0.25122E-04
 0.14183000E+03  0.19409E-04
 0.14188000E+03  0.14114E-04
 0.14193001E+03  0.97273E-05
 0.14198000E+03  0.57541E-05
 0.14203000E+03 -0.19285E-06
 0.14208000E+03 -0.79259E-05
 0.14213000E+03 -0.16918E-04
 0.14218001E+03 -0.27021E-04
 0.14223000E+03 -0.35620E-04
 0.14228000E+03 -0.39739E-04
 0.14233000E+03 -0.39540E-04
 0.14238000E+03 -0.37096E-04
 0.14243001E+03 -0.33200E-04
 0.14248000E+03 -0.27493E-04
 0.14253000E+03 -0.20490E-04
 0.14258000E+03 -0.14691E-04
 0.14263000E+03 -0.12286E-04
 0.14268001E+03 -0.12982E-04
 0.14273000E+03 -0.16052E-04
 0.14278000E+03 -0.20407E-04
 0.14283000E+03 -0.25730E-04
 0.14288000E+03 -0.31098E-04
 0.14293001E+03 -0.34210E-04
 0.14298000E+03 -0.34904E-04
 0.14303000E+03 -0.33148E-04
 0.14308000E+03 -0.27520E-04
 0.14313000E+03 -0.16950E-04
 0.14318001E+03 -0.44349E-05
 0.14323000E+03  0.68139E-05
 0.14328000E+03  0.16736E-04
 0.14333000E+03  0.23720E-04
 0.14338000E+03  0.26425E-04
 0.14343001E+03  0.25513E-04
 0.14348000E+03  0.23559E-04
 0.14353000E+03  0.22637E-04
 0.14358000E+03  0.21497E-04
 0.14363000E+03  0.19059E-04
 0.14368001E+03  0.15133E-04
 0.14373000E+03  0.93502E-05
 0.14378000E+03  0.27154E-05
 0.14383000E+03 -0.32659E-05
 0.14388000E+03 -0.78671E-05
 0.14393001E+03 -0.91612E-05
 0.14398000E+03 -0.62360E-05
 0.14403000E+03 -0.11711E-05
 0.14408000E+03  0.49677E-05
 0.14413000E+03  0.11519E-04
 0.14418001E+03  0.17854E-04
 0.14423000E+03  0.23755E-04
 0.14428000E+03  0.26214E-04
 0.14433000E+03  0.23429E-04
 0.14438000E+03  0.17423E-04
 0.14443001E+03  0.11007E-04
 0.14448000E+03  0.58086E-05
 0.14453000E+03  0.11055E-05
 0.14458000E+03 -0.33028E-05
 0.14463000E+03 -0.67884E-05
 0.14468001E+03 -0.97689E-05
 0.14473000E+03 -0.13095E-04
 0.14478000E+03 -0.15862E-04
 0.14483000E+03 -0.15965E-04
 0.14488000E+03 -0.13745E-04
 0.14493001E+03 -0.11305E-04
 0.14498000E+03 -0.98985E-05
 0.14503000E+03 -0.81507E-05
 0.14508000E+03 -0.41981E-05
 0.14513000E+03  0.22011E-05
 0.14518001E+03  0.10157E-04
 0.14523000E+03  0.16547E-04
 0.14528000E+03  0.19875E-04
 0.14533000E+03  0.21086E-04
 0.14538000E+03  0.19823E-04
 0.14543001E+03  0.16051E-04
 0.14548000E+03  0.10787E-04
 0.14553000E+03  0.56259E-05
 0.14558000E+03  0.10786E-05
 0.14563000E+03 -0.25162E-05
 0.14568001E+03 -0.39621E-05
 0.14573000E+03 -0.35489E-05
 0.14578000E+03 -0.11929E-05
 0.14583000E+03  0.21290E-05
 0.14588000E+03  0.41832E-05
 0.14593001E+03  0.50505E-05
 0.14598000E+03  0.58748E-05
 0.14603000E+03  0.68063E-05
 0.14608000E+03  0.62927E-05
 0.14613000E+03  0.39672E-05
 0.14618001E+03  0.19679E-05
 0.14623000E+03  0.74176E-06
 0.14628000E+03 -0.92231E-06
 0.14633000E+03 -0.35291E-05
 0.14638000E+03 -0.80075E-05
 0.14643001E+03 -0.15024E-04
 0.14648000E+03 -0.24506E-04
 0.14653000E+03 -0.35207E-04
 0.14658000E+03 -0.44847E-04
 0.14663000E+03 -0.51751E-04
 0.14668001E+03 -0.54383E-04
 0.14673000E+03 -0.51886E-04
 0.14678000E+03 -0.44410E-04
 0.14683000E+03 -0.34161E-04
 0.14688000E+03 -0.23599E-04
 0.14693001E+03 -0.13158E-04
 0.14698000E+03 -0.33511E-05
 0.14703000E+03  0.49658E-05
 0.14708000E+03  0.11122E-04
 0.14713000E+03  0.15878E-04
 0.14718001E+03  0.19564E-04
 0.14723000E+03  0.21214E-04
 0.14728000E+03  0.21041E-04
 0.14733000E+03  0.19898E-04
 0.14738000E+03  0.19370E-04
 0.14743001E+03  0.19951E-04
 0.14748000E+03  0.20324E-04
 0.14753000E+03  0.20015E-04
 0.14758000E+03  0.19796E-04
 0.14763000E+03  0.20793E-04
 0.14768001E+03  0.24244E-04
 0.14773000E+03  0.29690E-04
 0.14778000E+03  0.34085E-04
 0.14783000E+03  0.35448E-04
 0.14788000E+03  0.34582E-04
 0.14793001E+03  0.32216E-04
 0.14798000E+03  0.27412E-04
 0.14803000E+03  0.19731E-04
 0.14808000E+03  0.10682E-04
 0.14813000E+03  0.24696E-05
 0.14818001E+03 -0.36487E-05
 0.14823000E+03 -0.67654E-05
 0.14828000E+03 -0.74001E-05
 0.14833000E+03 -0.78239E-05
 0.14838000E+03 -0.87992E-05
 0.14843001E+03 -0.10014E-04
 0.14848000E+03 -0.10779E-04
 0.14853000E+03 -0.10351E-04
 0.14858000E+03 -0.91482E-05
 0.14863000E+03 -0.79997E-05
 0.14868001E+03 -0.70720E-05
 0.14873000E+03 -0.62319E-05
 0.14878000E+03 -0.59857E-05
 0.14883000E+03 -0.62446E-05
 0.14888000E+03 -0.69982E-05
 0.14893001E+03 -0.92099E-05
 0.14898000E+03 -0.12807E-04
 0.14903000E+03 -0.16911E-04
 0.14908000E+03 -0.20541E-04
 0.14913000E+03 -0.23877E-04
 0.14918001E+03 -0.27131E-04
 0.14923000E+03 -0.28823E-04
 0.14928000E+03 -0.27555E-04
 0.14933000E+03 -0.22900E-04
 0.14938000E+03 -0.16518E-04
 0.14943001E+03 -0.10582E-04
 0.14948000E+03 -0.58599E-05
 0.14953000E+03 -0.21097E-05
 0.14958000E+03  0.13990E-05
 0.14963000E+03  0.49227E-05
 0.14968001E+03  0.80080E-05
 0.14973000E+03  0.95872E-05
 0.14978000E+03  0.89915E-05
 0.14983000E+03  0.70171E-05
 0.14988000E+03  0.53292E-05
 0.14993001E+03  0.54704E-05
 0.14998000E+03  0.82674E-05
