-0.20000458E-01  0.94369E-06
 0.29999543E-01  0.37560E-06
 0.79999544E-01 -0.55147E-07
 0.12999955E+00 -0.27422E-06
 0.17999955E+00 -0.51887E-06
 0.22999954E+00 -0.69417E-06
 0.27999955E+00 -0.84300E-06
 0.32999954E+00 -0.84563E-06
 0.37999955E+00 -0.62364E-06
 0.42999956E+00 -0.39748E-06
 0.47999954E+00 -0.83191E-07
 0.52999955E+00  0.17909E-06
 0.57999957E+00  0.31321E-06
 0.62999958E+00  0.41571E-06
 0.67999953E+00  0.68197E-06
 0.72999954E+00  0.11657E-05
 0.77999955E+00  0.15635E-05
 0.82999957E+00  0.17085E-05
 0.87999958E+00  0.15114E-05
 0.92999953E+00  0.89017E-06
 0.97999954E+00  0.28827E-08
 0.10299996E+01 -0.88234E-06
 0.10799996E+01 -0.15537E-05
 0.11299995E+01 -0.17746E-05
 0.11799996E+01 -0.16300E-05
 0.12299995E+01 -0.12367E-05
 0.12799996E+01 -0.76392E-06
 0.13299996E+01 -0.37489E-06
 0.13799995E+01  0.95429E-07
 0.14299996E+01  0.47045E-06
 0.14799995E+01  0.61692E-06
 0.15299996E+01  0.63238E-06
 0.15799996E+01  0.57815E-06
 0.16299995E+01  0.49914E-06
 0.16799996E+01  0.36165E-06
 0.17299995E+01  0.10839E-06
 0.17799996E+01  0.97140E-08
 0.18299996E+01  0.12777E-06
 0.18799995E+01  0.88970E-07
 0.19299996E+01  0.25156E-07
 0.19799995E+01 -0.10647E-06
 0.20299995E+01 -0.26815E-06
 0.20799997E+01 -0.27815E-06
 0.21299996E+01 -0.46437E-06
 0.21799996E+01 -0.61451E-06
 0.22299995E+01 -0.61726E-06
 0.22799995E+01 -0.63650E-06
 0.23299997E+01 -0.39429E-06
 0.23799996E+01 -0.63931E-07
 0.24299996E+01  0.13687E-06
 0.24799995E+01  0.38275E-06
 0.25299995E+01  0.63874E-06
 0.25799997E+01  0.86125E-06
 0.26299996E+01  0.10864E-05
 0.26799996E+01  0.11705E-05
 0.27299995E+01  0.11003E-05
 0.27799995E+01  0.97983E-06
 0.28299997E+01  0.71772E-06
 0.28799996E+01  0.35117E-06
 0.29299996E+01 -0.24015E-07
 0.29799995E+01 -0.40542E-06
 0.30299995E+01 -0.90510E-06
 0.30799997E+01 -0.13687E-05
 0.31299996E+01 -0.14918E-05
 0.31799996E+01 -0.13880E-05
 0.32299995E+01 -0.11880E-05
 0.32799995E+01 -0.98754E-06
 0.33299997E+01 -0.72208E-06
 0.33799996E+01 -0.40292E-06
 0.34299996E+01 -0.85130E-07
 0.34799995E+01  0.30892E-06
 0.35299995E+01  0.62391E-06
 0.35799997E+01  0.90421E-06
 0.36299996E+01  0.12017E-05
 0.36799996E+01  0.12909E-05
 0.37299995E+01  0.10693E-05
 0.37799995E+01  0.76592E-06
 0.38299997E+01  0.53525E-06
 0.38799996E+01  0.20415E-06
 0.39299996E+01 -0.24105E-06
 0.39799995E+01 -0.70046E-06
 0.40299997E+01 -0.10491E-05
 0.40799994E+01 -0.11754E-05
 0.41299996E+01 -0.10949E-05
 0.41799998E+01 -0.70936E-06
 0.42299995E+01 -0.12538E-06
 0.42799997E+01  0.21663E-06
 0.43299994E+01  0.27810E-06
 0.43799996E+01  0.39911E-06
 0.44299998E+01  0.64553E-06
 0.44799995E+01  0.84548E-06
 0.45299997E+01  0.88291E-06
 0.45799994E+01  0.72824E-06
 0.46299996E+01  0.36014E-06
 0.46799998E+01 -0.10398E-07
 0.47299995E+01 -0.21574E-06
 0.47799997E+01 -0.25510E-06
 0.48299994E+01 -0.11078E-06
 0.48799996E+01 -0.54141E-07
 0.49299998E+01 -0.27441E-06
 0.49799995E+01 -0.53729E-06
 0.50299997E+01 -0.62999E-06
 0.50799994E+01 -0.53427E-06
 0.51299996E+01 -0.25102E-06
 0.51799998E+01  0.70635E-07
 0.52299995E+01  0.28206E-06
 0.52799997E+01  0.31046E-06
 0.53299994E+01  0.20742E-06
 0.53799996E+01  0.11928E-06
 0.54299998E+01  0.76999E-07
 0.54799995E+01  0.10154E-06
 0.55299997E+01  0.11135E-06
 0.55799994E+01  0.99166E-07
 0.56299996E+01  0.71016E-08
 0.56799998E+01 -0.17933E-06
 0.57299995E+01 -0.28227E-06
 0.57799997E+01 -0.40857E-06
 0.58299994E+01 -0.60359E-06
 0.58799996E+01 -0.66905E-06
 0.59299998E+01 -0.56798E-06
 0.59799995E+01 -0.29575E-06
 0.60299997E+01  0.94578E-07
 0.60799994E+01  0.46858E-06
 0.61299996E+01  0.74200E-06
 0.61799998E+01  0.84154E-06
 0.62299995E+01  0.87052E-06
 0.62799997E+01  0.84618E-06
 0.63299994E+01  0.65899E-06
 0.63799996E+01  0.33597E-06
 0.64299998E+01 -0.74585E-07
 0.64799995E+01 -0.51053E-06
 0.65299997E+01 -0.71478E-06
 0.65799994E+01 -0.54966E-06
 0.66299996E+01 -0.26421E-06
 0.66799998E+01  0.38936E-07
 0.67299995E+01  0.27441E-06
 0.67799997E+01  0.12592E-06
 0.68299994E+01 -0.24737E-06
 0.68799996E+01 -0.46817E-06
 0.69299998E+01 -0.69010E-06
 0.69799995E+01 -0.89967E-06
 0.70299997E+01 -0.89697E-06
 0.70799994E+01 -0.65473E-06
 0.71299996E+01 -0.16549E-06
 0.71799998E+01  0.41808E-06
 0.72299995E+01  0.93770E-06
 0.72799997E+01  0.12300E-05
 0.73299994E+01  0.11991E-05
 0.73799996E+01  0.90879E-06
 0.74299998E+01  0.59906E-06
 0.74799995E+01  0.36628E-06
 0.75299997E+01  0.18311E-06
 0.75799994E+01  0.50286E-07
 0.76299996E+01 -0.99010E-07
 0.76799998E+01 -0.25959E-06
 0.77299995E+01 -0.43612E-06
 0.77799997E+01 -0.50859E-06
 0.78299994E+01 -0.52978E-06
 0.78799996E+01 -0.57264E-06
 0.79299998E+01 -0.56303E-06
 0.79799995E+01 -0.43281E-06
 0.80299997E+01 -0.90770E-07
 0.80799999E+01  0.22393E-06
 0.81300001E+01  0.33690E-06
 0.81799994E+01  0.28121E-06
 0.82299995E+01  0.94505E-07
 0.82799997E+01 -0.99897E-07
 0.83299999E+01 -0.21623E-06
 0.83800001E+01 -0.33641E-06
 0.84299994E+01 -0.49643E-06
 0.84799995E+01 -0.60558E-06
 0.85299997E+01 -0.52618E-06
 0.85799999E+01 -0.28138E-06
 0.86300001E+01 -0.10273E-06
 0.86799994E+01  0.18061E-06
 0.87299995E+01  0.50483E-06
 0.87799997E+01  0.63789E-06
 0.88299999E+01  0.59793E-06
 0.88800001E+01  0.51409E-06
 0.89299994E+01  0.70158E-06
 0.89799995E+01  0.10245E-05
 0.90299997E+01  0.12380E-05
 0.90799999E+01  0.12659E-05
 0.91300001E+01  0.10296E-05
 0.91799994E+01  0.44535E-06
 0.92299995E+01 -0.30807E-06
 0.92799997E+01 -0.88190E-06
 0.93299999E+01 -0.11927E-05
 0.93800001E+01 -0.13522E-05
 0.94299994E+01 -0.14403E-05
 0.94799995E+01 -0.14049E-05
 0.95299997E+01 -0.13138E-05
 0.95799999E+01 -0.11699E-05
 0.96300001E+01 -0.95851E-06
 0.96799994E+01 -0.62134E-06
 0.97299995E+01 -0.12061E-06
 0.97799997E+01  0.35165E-06
 0.98299999E+01  0.70829E-06
 0.98800001E+01  0.10743E-05
 0.99299994E+01  0.14643E-05
 0.99799995E+01  0.16572E-05
 0.10030000E+02  0.15286E-05
 0.10080000E+02  0.10853E-05
 0.10130000E+02  0.53543E-06
 0.10179999E+02  0.13924E-07
 0.10230000E+02 -0.35853E-06
 0.10280000E+02 -0.51807E-06
 0.10330000E+02 -0.57591E-06
 0.10380000E+02 -0.47171E-06
 0.10429999E+02 -0.32821E-06
 0.10480000E+02 -0.31915E-06
 0.10530000E+02 -0.49937E-06
 0.10580000E+02 -0.50270E-06
 0.10630000E+02 -0.29345E-06
 0.10679999E+02 -0.28029E-06
 0.10730000E+02 -0.11743E-06
 0.10780000E+02  0.24150E-06
 0.10830000E+02  0.53971E-06
 0.10880000E+02  0.82046E-06
 0.10929999E+02  0.87295E-06
 0.10980000E+02  0.68266E-06
 0.11030000E+02  0.45746E-06
 0.11080000E+02  0.17616E-06
 0.11130000E+02 -0.25646E-06
 0.11179999E+02 -0.79301E-06
 0.11230000E+02 -0.11456E-05
 0.11280000E+02 -0.11722E-05
 0.11330000E+02 -0.99568E-06
 0.11380000E+02 -0.72587E-06
 0.11429999E+02 -0.39661E-06
 0.11480000E+02 -0.35986E-07
 0.11530000E+02  0.30562E-06
 0.11580000E+02  0.47632E-06
 0.11630000E+02  0.48302E-06
 0.11679999E+02  0.46853E-06
 0.11730000E+02  0.28493E-06
 0.11780000E+02  0.61020E-07
 0.11830000E+02 -0.70644E-07
 0.11880000E+02 -0.77581E-07
 0.11929999E+02  0.12094E-06
 0.11980000E+02  0.40668E-06
 0.12030000E+02  0.63070E-06
 0.12080000E+02  0.58894E-06
 0.12130000E+02  0.47289E-06
 0.12179999E+02  0.22762E-06
 0.12230000E+02 -0.18667E-06
 0.12280000E+02 -0.49617E-06
 0.12330000E+02 -0.56105E-06
 0.12380000E+02 -0.18382E-06
 0.12429999E+02  0.15966E-06
 0.12480000E+02  0.32961E-06
 0.12530000E+02  0.59457E-06
 0.12580000E+02  0.68623E-06
 0.12630000E+02  0.57865E-06
 0.12679999E+02  0.39578E-06
 0.12730000E+02  0.25719E-06
 0.12780000E+02  0.11078E-06
 0.12830000E+02 -0.17255E-06
 0.12880000E+02 -0.39348E-06
 0.12929999E+02 -0.64691E-06
 0.12980000E+02 -0.91195E-06
 0.13030000E+02 -0.94606E-06
 0.13080000E+02 -0.10095E-05
 0.13130000E+02 -0.10537E-05
 0.13179999E+02 -0.96684E-06
 0.13230000E+02 -0.92565E-06
 0.13280000E+02 -0.87922E-06
 0.13330000E+02 -0.76610E-06
 0.13380000E+02 -0.47054E-06
 0.13429999E+02 -0.24836E-07
 0.13480000E+02  0.47310E-06
 0.13530000E+02  0.93339E-06
 0.13580000E+02  0.12598E-05
 0.13630000E+02  0.15402E-05
 0.13679999E+02  0.17701E-05
 0.13730000E+02  0.17544E-05
 0.13780000E+02  0.14677E-05
 0.13830000E+02  0.12781E-05
 0.13880000E+02  0.10694E-05
 0.13929999E+02  0.55660E-06
 0.13980000E+02 -0.21047E-07
 0.14030000E+02 -0.46961E-06
 0.14080000E+02 -0.86832E-06
 0.14130000E+02 -0.12968E-05
 0.14179999E+02 -0.15198E-05
 0.14230000E+02 -0.16006E-05
 0.14280000E+02 -0.15733E-05
 0.14330000E+02 -0.12893E-05
 0.14380000E+02 -0.81353E-06
 0.14429999E+02 -0.21354E-06
 0.14480000E+02  0.22687E-06
 0.14530000E+02  0.57438E-06
 0.14580000E+02  0.96120E-06
 0.14630000E+02  0.11038E-05
 0.14679999E+02  0.91872E-06
 0.14730000E+02  0.54252E-06
 0.14780000E+02  0.16771E-06
 0.14830000E+02 -0.90600E-07
 0.14880000E+02 -0.30715E-06
 0.14929999E+02 -0.41246E-06
 0.14980000E+02 -0.42208E-06
 0.15030000E+02 -0.38766E-06
 0.15080000E+02 -0.17013E-06
 0.15130000E+02  0.50754E-07
 0.15179999E+02  0.20010E-06
 0.15230000E+02  0.30651E-06
 0.15280000E+02  0.45247E-06
 0.15330000E+02  0.66516E-06
 0.15380000E+02  0.65977E-06
 0.15429999E+02  0.52195E-06
 0.15480000E+02  0.41642E-06
 0.15530000E+02  0.30893E-06
 0.15580000E+02  0.50850E-07
 0.15630000E+02 -0.43659E-06
 0.15679999E+02 -0.95474E-06
 0.15730000E+02 -0.14452E-05
 0.15780000E+02 -0.18382E-05
 0.15830000E+02 -0.18800E-05
 0.15880000E+02 -0.14907E-05
 0.15929999E+02 -0.83709E-06
 0.15980000E+02 -0.11706E-06
 0.16030001E+02  0.54738E-06
 0.16080000E+02  0.10538E-05
 0.16129999E+02  0.14523E-05
 0.16180000E+02  0.18483E-05
 0.16230000E+02  0.20243E-05
 0.16280001E+02  0.18421E-05
 0.16330000E+02  0.14599E-05
 0.16379999E+02  0.95739E-06
 0.16430000E+02  0.49779E-06
 0.16480000E+02  0.10964E-06
 0.16530001E+02 -0.22375E-06
 0.16580000E+02 -0.52417E-06
 0.16629999E+02 -0.95888E-06
 0.16680000E+02 -0.12322E-05
 0.16730000E+02 -0.13498E-05
 0.16780001E+02 -0.14369E-05
 0.16830000E+02 -0.13443E-05
 0.16879999E+02 -0.11582E-05
 0.16930000E+02 -0.86947E-06
 0.16980000E+02 -0.64307E-06
 0.17030001E+02 -0.43413E-06
 0.17080000E+02 -0.12604E-06
 0.17129999E+02  0.27524E-06
 0.17180000E+02  0.71295E-06
 0.17230000E+02  0.92369E-06
 0.17280001E+02  0.95890E-06
 0.17330000E+02  0.84693E-06
 0.17379999E+02  0.68006E-06
 0.17430000E+02  0.62774E-06
 0.17480000E+02  0.70045E-06
 0.17530001E+02  0.81794E-06
 0.17580000E+02  0.94615E-06
 0.17629999E+02  0.10569E-05
 0.17680000E+02  0.98872E-06
 0.17730000E+02  0.75272E-06
 0.17780001E+02  0.25897E-06
 0.17830000E+02 -0.37727E-06
 0.17879999E+02 -0.97622E-06
 0.17930000E+02 -0.14622E-05
 0.17980000E+02 -0.15975E-05
 0.18030001E+02 -0.15408E-05
 0.18080000E+02 -0.14559E-05
 0.18129999E+02 -0.12550E-05
 0.18180000E+02 -0.10371E-05
 0.18230000E+02 -0.85022E-06
 0.18280001E+02 -0.56578E-06
 0.18330000E+02 -0.10302E-06
 0.18379999E+02  0.65814E-06
 0.18430000E+02  0.13232E-05
 0.18480000E+02  0.14509E-05
 0.18530001E+02  0.13027E-05
 0.18580000E+02  0.98229E-06
 0.18629999E+02  0.53004E-06
 0.18680000E+02  0.17897E-06
 0.18730000E+02  0.30025E-07
 0.18780001E+02  0.30294E-07
 0.18830000E+02  0.65856E-07
 0.18879999E+02  0.76381E-07
 0.18930000E+02  0.90980E-07
 0.18980000E+02  0.15247E-06
 0.19030001E+02  0.87803E-07
 0.19080000E+02 -0.11583E-06
 0.19129999E+02 -0.34296E-06
 0.19180000E+02 -0.56597E-06
 0.19230000E+02 -0.67020E-06
 0.19280001E+02 -0.63141E-06
 0.19330000E+02 -0.45219E-06
 0.19379999E+02 -0.17982E-06
 0.19430000E+02  0.22639E-06
 0.19480000E+02  0.63368E-06
 0.19530001E+02  0.81316E-06
 0.19580000E+02  0.74153E-06
 0.19629999E+02  0.46026E-06
 0.19680000E+02  0.12879E-06
 0.19730000E+02 -0.23494E-06
 0.19780001E+02 -0.49480E-06
 0.19830000E+02 -0.56387E-06
 0.19879999E+02 -0.42938E-06
 0.19930000E+02 -0.16496E-06
 0.19980000E+02  0.34396E-07
 0.20030001E+02  0.16680E-06
 0.20080000E+02  0.13852E-06
 0.20129999E+02 -0.48071E-07
 0.20180000E+02 -0.23794E-06
 0.20230000E+02 -0.30881E-06
 0.20280001E+02 -0.35933E-06
 0.20330000E+02 -0.27292E-06
 0.20379999E+02  0.58689E-07
 0.20430000E+02  0.28477E-06
 0.20480000E+02  0.38178E-06
 0.20530001E+02  0.32466E-06
 0.20580000E+02  0.14402E-06
 0.20629999E+02 -0.84790E-07
 0.20680000E+02 -0.39509E-06
 0.20730000E+02 -0.54265E-06
 0.20780001E+02 -0.51360E-06
 0.20830000E+02 -0.27859E-06
 0.20879999E+02  0.35639E-07
 0.20930000E+02  0.29215E-06
 0.20980000E+02  0.57177E-06
 0.21030001E+02  0.70327E-06
 0.21080000E+02  0.72666E-06
 0.21129999E+02  0.67661E-06
 0.21180000E+02  0.48019E-06
 0.21230000E+02  0.20439E-06
 0.21280001E+02 -0.73454E-07
 0.21330000E+02 -0.31249E-06
 0.21379999E+02 -0.50840E-06
 0.21430000E+02 -0.59256E-06
 0.21480000E+02 -0.49183E-06
 0.21530001E+02 -0.19701E-06
 0.21580000E+02  0.14424E-06
 0.21629999E+02  0.32864E-06
 0.21680000E+02  0.40397E-06
 0.21730000E+02  0.39091E-06
 0.21780001E+02  0.17315E-06
 0.21830000E+02 -0.18250E-07
 0.21879999E+02 -0.85505E-07
 0.21930000E+02 -0.98886E-07
 0.21980000E+02  0.42230E-07
 0.22030001E+02  0.10614E-06
 0.22080000E+02  0.28881E-08
 0.22129999E+02 -0.24282E-06
 0.22180000E+02 -0.60117E-06
 0.22230000E+02 -0.91428E-06
 0.22280001E+02 -0.11898E-05
 0.22330000E+02 -0.11596E-05
 0.22379999E+02 -0.77633E-06
 0.22430000E+02 -0.18400E-06
 0.22480000E+02  0.49418E-06
 0.22530001E+02  0.10601E-05
 0.22580000E+02  0.14762E-05
 0.22629999E+02  0.15663E-05
 0.22680000E+02  0.12497E-05
 0.22730000E+02  0.64873E-06
 0.22780001E+02 -0.77765E-08
 0.22830000E+02 -0.54708E-06
 0.22879999E+02 -0.85537E-06
 0.22930000E+02 -0.10772E-05
 0.22980000E+02 -0.12483E-05
 0.23030001E+02 -0.10737E-05
 0.23080000E+02 -0.68162E-06
 0.23129999E+02 -0.14496E-06
 0.23180000E+02  0.41715E-06
 0.23230000E+02  0.76385E-06
 0.23280001E+02  0.96362E-06
 0.23330000E+02  0.11157E-05
 0.23379999E+02  0.12505E-05
 0.23430000E+02  0.11811E-05
 0.23480000E+02  0.98677E-06
 0.23530001E+02  0.80416E-06
 0.23580000E+02  0.40249E-06
 0.23629999E+02 -0.14935E-06
 0.23680000E+02 -0.72710E-06
 0.23730000E+02 -0.12954E-05
 0.23780001E+02 -0.16836E-05
 0.23830000E+02 -0.18107E-05
 0.23879999E+02 -0.16132E-05
 0.23930000E+02 -0.11653E-05
 0.23980000E+02 -0.64716E-06
 0.24030001E+02  0.57340E-08
 0.24080000E+02  0.72500E-06
 0.24129999E+02  0.12294E-05
 0.24180000E+02  0.13852E-05
 0.24230000E+02  0.12801E-05
 0.24280001E+02  0.10368E-05
 0.24330000E+02  0.59937E-06
 0.24379999E+02  0.52042E-07
 0.24430000E+02 -0.49705E-06
 0.24480000E+02 -0.90241E-06
 0.24530001E+02 -0.10222E-05
 0.24580000E+02 -0.93776E-06
 0.24629999E+02 -0.73867E-06
 0.24680000E+02 -0.50937E-06
 0.24730000E+02 -0.18821E-06
 0.24780001E+02  0.20928E-06
 0.24830000E+02  0.66035E-06
 0.24879999E+02  0.98336E-06
 0.24930000E+02  0.10721E-05
 0.24980000E+02  0.11866E-05
 0.25030001E+02  0.11786E-05
 0.25080000E+02  0.90184E-06
 0.25129999E+02  0.45767E-06
 0.25180000E+02 -0.81685E-07
 0.25230000E+02 -0.62986E-06
 0.25280001E+02 -0.10418E-05
 0.25330000E+02 -0.12340E-05
 0.25379999E+02 -0.11371E-05
 0.25430000E+02 -0.72992E-06
 0.25480000E+02 -0.31863E-06
 0.25530001E+02 -0.41957E-07
 0.25580000E+02  0.63181E-08
 0.25629999E+02 -0.54447E-07
 0.25680000E+02  0.11246E-06
 0.25730000E+02  0.35922E-06
 0.25780001E+02  0.60686E-06
 0.25830000E+02  0.78813E-06
 0.25879999E+02  0.75716E-06
 0.25930000E+02  0.56301E-06
 0.25980000E+02  0.26771E-06
 0.26030001E+02 -0.16535E-06
 0.26080000E+02 -0.68026E-06
 0.26129999E+02 -0.10096E-05
 0.26180000E+02 -0.10853E-05
 0.26230000E+02 -0.92625E-06
 0.26280001E+02 -0.61602E-06
 0.26330000E+02 -0.19975E-06
 0.26379999E+02  0.17036E-06
 0.26430000E+02  0.31840E-06
 0.26480000E+02  0.33469E-06
 0.26530001E+02  0.25183E-06
 0.26580000E+02  0.21436E-06
 0.26629999E+02  0.23954E-06
 0.26680000E+02  0.29557E-06
 0.26730000E+02  0.42345E-06
 0.26780001E+02  0.58300E-06
 0.26830000E+02  0.64009E-06
 0.26879999E+02  0.56839E-06
 0.26930000E+02  0.45513E-06
 0.26980000E+02  0.21022E-06
 0.27030001E+02 -0.38440E-07
 0.27080000E+02 -0.20850E-06
 0.27129999E+02 -0.25759E-06
 0.27180000E+02 -0.24104E-06
 0.27230000E+02 -0.25557E-06
 0.27280001E+02 -0.21225E-06
 0.27330000E+02 -0.27675E-06
 0.27379999E+02 -0.51202E-06
 0.27430000E+02 -0.70441E-06
 0.27480000E+02 -0.78488E-06
 0.27530001E+02 -0.74674E-06
 0.27580000E+02 -0.43885E-06
 0.27629999E+02 -0.76456E-07
 0.27680000E+02  0.20470E-06
 0.27730000E+02  0.48903E-06
 0.27780001E+02  0.73318E-06
 0.27830000E+02  0.94337E-06
 0.27879999E+02  0.97093E-06
 0.27930000E+02  0.88423E-06
 0.27980000E+02  0.71850E-06
 0.28030001E+02  0.44102E-06
 0.28080000E+02  0.17073E-06
 0.28129999E+02 -0.94199E-07
 0.28180000E+02 -0.35190E-06
 0.28230000E+02 -0.49907E-06
 0.28280001E+02 -0.61853E-06
 0.28330000E+02 -0.78562E-06
 0.28379999E+02 -0.71016E-06
 0.28430000E+02 -0.49539E-06
 0.28480000E+02 -0.42177E-06
 0.28530001E+02 -0.49292E-06
 0.28580000E+02 -0.66137E-06
 0.28629999E+02 -0.74869E-06
 0.28680000E+02 -0.61360E-06
 0.28730000E+02 -0.22785E-06
 0.28780001E+02  0.34679E-06
 0.28830000E+02  0.97385E-06
 0.28879999E+02  0.15231E-05
 0.28930000E+02  0.18697E-05
 0.28980000E+02  0.18124E-05
 0.29030001E+02  0.12928E-05
 0.29080000E+02  0.55223E-06
 0.29129999E+02 -0.12000E-06
 0.29180000E+02 -0.63908E-06
 0.29230000E+02 -0.10363E-05
 0.29280001E+02 -0.12819E-05
 0.29330000E+02 -0.13317E-05
 0.29379999E+02 -0.11781E-05
 0.29430000E+02 -0.95605E-06
 0.29480000E+02 -0.75050E-06
 0.29530001E+02 -0.55329E-06
 0.29580000E+02 -0.29496E-06
 0.29629999E+02  0.12771E-06
 0.29680000E+02  0.47752E-06
 0.29730000E+02  0.74774E-06
 0.29780001E+02  0.10069E-05
 0.29830000E+02  0.10518E-05
 0.29879999E+02  0.10715E-05
 0.29930000E+02  0.10581E-05
 0.29980000E+02  0.91044E-06
 0.30030001E+02  0.76741E-06
 0.30080000E+02  0.52313E-06
 0.30129999E+02  0.13946E-06
 0.30180000E+02 -0.30184E-06
 0.30230000E+02 -0.78088E-06
 0.30280001E+02 -0.13222E-05
 0.30330000E+02 -0.17536E-05
 0.30379999E+02 -0.18598E-05
 0.30430000E+02 -0.17627E-05
 0.30480000E+02 -0.14287E-05
 0.30530001E+02 -0.82202E-06
 0.30580000E+02 -0.13898E-06
 0.30629999E+02  0.49969E-06
 0.30680000E+02  0.11072E-05
 0.30730000E+02  0.16367E-05
 0.30780001E+02  0.18315E-05
 0.30830000E+02  0.17251E-05
 0.30879999E+02  0.13794E-05
 0.30930000E+02  0.92317E-06
 0.30980000E+02  0.60029E-06
 0.31030001E+02  0.25218E-06
 0.31080000E+02 -0.18013E-06
 0.31129999E+02 -0.58913E-06
 0.31180000E+02 -0.84257E-06
 0.31230000E+02 -0.88976E-06
 0.31280001E+02 -0.77862E-06
 0.31330000E+02 -0.64987E-06
 0.31379999E+02 -0.56214E-06
 0.31430000E+02 -0.40413E-06
 0.31480000E+02 -0.22870E-06
 0.31530001E+02 -0.54899E-07
 0.31580000E+02  0.12836E-06
 0.31629999E+02  0.21460E-06
 0.31680000E+02  0.10583E-06
 0.31730000E+02 -0.33770E-07
 0.31780001E+02 -0.14189E-06
 0.31830000E+02 -0.28469E-06
 0.31879999E+02 -0.33847E-06
 0.31930000E+02 -0.21514E-06
 0.31980000E+02  0.68445E-07
 0.32029999E+02  0.48860E-06
 0.32080002E+02  0.92796E-06
 0.32130001E+02  0.10332E-05
 0.32180000E+02  0.92547E-06
 0.32230000E+02  0.67526E-06
 0.32279999E+02  0.32356E-06
 0.32330002E+02  0.29410E-07
 0.32380001E+02 -0.31544E-06
 0.32430000E+02 -0.41051E-06
 0.32480000E+02 -0.32663E-06
 0.32529999E+02  0.11385E-05
 0.32580002E+02  0.49671E-05
 0.32630001E+02  0.11971E-04
 0.32680000E+02  0.19747E-04
 0.32730000E+02  0.22451E-04
 0.32779999E+02  0.18660E-04
 0.32830002E+02  0.10078E-04
 0.32880001E+02  0.38469E-05
 0.32930000E+02 -0.58656E-05
 0.32980000E+02 -0.25018E-04
 0.33029999E+02 -0.38149E-04
 0.33080002E+02 -0.41733E-04
 0.33130001E+02 -0.37841E-04
 0.33180000E+02 -0.31756E-04
 0.33230000E+02 -0.19678E-04
 0.33279999E+02  0.34313E-05
 0.33330002E+02  0.19035E-04
 0.33380001E+02  0.36842E-04
 0.33430000E+02  0.43974E-04
 0.33480000E+02  0.19526E-04
 0.33529999E+02  0.99141E-05
 0.33580002E+02  0.98776E-05
 0.33630001E+02 -0.13943E-04
 0.33680000E+02 -0.30195E-04
 0.33730000E+02 -0.35540E-04
 0.33779999E+02 -0.47508E-04
 0.33830002E+02 -0.48920E-04
 0.33880001E+02 -0.79949E-05
 0.33930000E+02  0.24134E-04
 0.33980000E+02  0.21112E-05
 0.34029999E+02  0.11504E-04
 0.34080002E+02  0.29538E-04
 0.34130001E+02  0.24493E-04
 0.34180000E+02  0.23234E-04
 0.34230000E+02  0.22857E-04
 0.34279999E+02  0.31893E-04
 0.34330002E+02  0.99675E-05
 0.34380001E+02  0.39444E-05
 0.34430000E+02  0.28231E-05
 0.34480000E+02  0.14134E-05
 0.34529999E+02  0.37016E-04
 0.34580002E+02  0.13951E-04
 0.34630001E+02 -0.28163E-04
 0.34680000E+02 -0.42686E-04
 0.34730000E+02 -0.30766E-04
 0.34779999E+02  0.16975E-04
 0.34830002E+02  0.30630E-04
 0.34880001E+02  0.24378E-04
 0.34930000E+02  0.66016E-05
 0.34980000E+02 -0.10641E-04
 0.35029999E+02  0.10523E-04
 0.35080002E+02  0.14639E-04
 0.35130001E+02 -0.86146E-05
 0.35180000E+02 -0.28712E-04
 0.35230000E+02 -0.19657E-04
 0.35279999E+02 -0.71743E-05
 0.35330002E+02 -0.15780E-04
 0.35380001E+02 -0.15067E-05
 0.35430000E+02  0.14151E-04
 0.35480000E+02  0.22649E-04
 0.35529999E+02  0.30278E-04
 0.35580002E+02  0.15716E-04
 0.35630001E+02 -0.22780E-04
 0.35680000E+02 -0.48037E-04
 0.35730000E+02 -0.23841E-04
 0.35779999E+02 -0.14861E-05
 0.35830002E+02 -0.34870E-05
 0.35880001E+02 -0.92875E-05
 0.35930000E+02 -0.24976E-04
 0.35980000E+02 -0.31223E-04
 0.36029999E+02 -0.19771E-04
 0.36080002E+02  0.22177E-05
 0.36130001E+02  0.23535E-04
 0.36180000E+02  0.17640E-04
 0.36230000E+02  0.10726E-04
 0.36279999E+02  0.29446E-04
 0.36330002E+02  0.48125E-04
 0.36380001E+02  0.33776E-04
 0.36430000E+02  0.16492E-04
 0.36480000E+02  0.18433E-05
 0.36529999E+02 -0.38808E-04
 0.36580002E+02 -0.47946E-04
 0.36630001E+02 -0.32775E-04
 0.36680000E+02 -0.33933E-04
 0.36730000E+02 -0.47585E-04
 0.36779999E+02 -0.28193E-04
 0.36830002E+02  0.11297E-04
 0.36880001E+02  0.20528E-05
 0.36930000E+02  0.32270E-04
 0.36980000E+02  0.79114E-04
 0.37029999E+02  0.52856E-04
 0.37080002E+02  0.28314E-04
 0.37130001E+02  0.24457E-04
 0.37180000E+02  0.12588E-04
 0.37230000E+02  0.47791E-06
 0.37279999E+02 -0.34097E-05
 0.37330002E+02 -0.16050E-04
 0.37380001E+02 -0.35733E-04
 0.37430000E+02 -0.29960E-04
 0.37480000E+02 -0.26500E-04
 0.37529999E+02 -0.39875E-04
 0.37580002E+02 -0.17031E-04
 0.37630001E+02  0.19164E-04
 0.37680000E+02  0.14790E-04
 0.37730000E+02  0.41621E-05
 0.37779999E+02  0.16676E-04
 0.37830002E+02  0.35723E-04
 0.37880001E+02  0.31340E-04
 0.37930000E+02  0.17530E-04
 0.37980000E+02  0.67757E-05
 0.38029999E+02 -0.10621E-04
 0.38080002E+02 -0.33743E-05
 0.38130001E+02  0.16237E-04
 0.38180000E+02  0.26916E-04
 0.38230000E+02  0.10512E-04
 0.38279999E+02 -0.29231E-04
 0.38330002E+02 -0.54096E-04
 0.38380001E+02 -0.66750E-04
 0.38430000E+02 -0.56528E-04
 0.38480000E+02 -0.43250E-04
 0.38529999E+02 -0.52570E-04
 0.38580002E+02 -0.58578E-04
 0.38630001E+02 -0.18460E-04
 0.38680000E+02  0.56850E-04
 0.38730000E+02  0.83916E-04
 0.38779999E+02  0.71309E-04
 0.38830002E+02  0.55697E-04
 0.38880001E+02  0.36527E-04
 0.38930000E+02  0.43553E-04
 0.38980000E+02  0.41059E-04
 0.39029999E+02  0.52316E-05
 0.39080002E+02 -0.25560E-04
 0.39130001E+02 -0.34401E-04
 0.39180000E+02 -0.17204E-04
 0.39230000E+02 -0.25521E-04
 0.39279999E+02 -0.57071E-04
 0.39330002E+02 -0.34187E-04
 0.39380001E+02  0.21170E-04
 0.39430000E+02  0.46795E-04
 0.39480000E+02  0.44532E-04
 0.39529999E+02  0.30784E-04
 0.39580002E+02  0.93004E-05
 0.39630001E+02  0.66592E-05
 0.39680000E+02  0.21073E-04
 0.39730000E+02  0.20603E-04
 0.39779999E+02  0.19136E-04
 0.39830002E+02  0.14959E-04
 0.39880001E+02 -0.24466E-04
 0.39930000E+02 -0.62061E-04
 0.39980000E+02 -0.66014E-04
 0.40029999E+02 -0.50387E-04
 0.40080002E+02 -0.32137E-04
 0.40130001E+02 -0.27485E-04
 0.40180000E+02 -0.27956E-04
 0.40230000E+02 -0.36108E-04
 0.40279999E+02 -0.20148E-04
 0.40330002E+02  0.15266E-04
 0.40380001E+02  0.28835E-04
 0.40430000E+02  0.32935E-04
 0.40480000E+02  0.26147E-04
 0.40529999E+02  0.18972E-04
 0.40580002E+02  0.21251E-04
 0.40630001E+02  0.22507E-04
 0.40680000E+02  0.18172E-04
 0.40730000E+02  0.28838E-04
 0.40779999E+02  0.50411E-04
 0.40830002E+02  0.42436E-04
 0.40880001E+02  0.22927E-04
 0.40930000E+02 -0.25409E-05
 0.40980000E+02 -0.37655E-04
 0.41029999E+02 -0.50045E-04
 0.41080002E+02 -0.53862E-04
 0.41130001E+02 -0.70111E-04
 0.41180000E+02 -0.79674E-04
 0.41230000E+02 -0.63533E-04
 0.41279999E+02 -0.29465E-04
 0.41330002E+02  0.26820E-04
 0.41380001E+02  0.75084E-04
 0.41430000E+02  0.79609E-04
 0.41480000E+02  0.71969E-04
 0.41529999E+02  0.65062E-04
 0.41580002E+02  0.65485E-04
 0.41630001E+02  0.56018E-04
 0.41680000E+02  0.37062E-04
 0.41730000E+02  0.11124E-04
 0.41779999E+02 -0.44080E-04
 0.41830002E+02 -0.90421E-04
 0.41880001E+02 -0.11011E-03
 0.41930000E+02 -0.90273E-04
 0.41980000E+02 -0.39750E-04
 0.42029999E+02 -0.15852E-04
 0.42080002E+02 -0.20787E-04
 0.42130001E+02 -0.25253E-04
 0.42180000E+02 -0.50273E-05
 0.42230000E+02  0.41238E-04
 0.42279999E+02  0.76382E-04
 0.42330002E+02  0.85204E-04
 0.42380001E+02  0.62604E-04
 0.42430000E+02  0.25528E-04
 0.42480000E+02  0.24034E-04
 0.42529999E+02  0.22817E-04
 0.42580002E+02 -0.20714E-04
 0.42630001E+02 -0.66142E-04
 0.42680000E+02 -0.76873E-04
 0.42730000E+02 -0.51936E-04
 0.42779999E+02 -0.19011E-04
 0.42830002E+02  0.13490E-06
 0.42880001E+02  0.55543E-05
 0.42930000E+02  0.13412E-04
 0.42980000E+02  0.26037E-04
 0.43029999E+02  0.36756E-04
 0.43080002E+02  0.50705E-04
 0.43130001E+02  0.47822E-04
 0.43180000E+02  0.25271E-04
 0.43230000E+02 -0.45996E-05
 0.43279999E+02 -0.36580E-04
 0.43330002E+02 -0.41007E-04
 0.43380001E+02 -0.32259E-04
 0.43430000E+02 -0.39840E-04
 0.43480000E+02 -0.42102E-04
 0.43529999E+02 -0.31200E-04
 0.43580002E+02 -0.11781E-04
 0.43630001E+02  0.84685E-05
 0.43680000E+02  0.19331E-04
 0.43730000E+02  0.21229E-04
 0.43779999E+02  0.16594E-04
 0.43830002E+02  0.13909E-04
 0.43880001E+02  0.86102E-05
 0.43930000E+02  0.54135E-05
 0.43980000E+02  0.16082E-04
 0.44029999E+02  0.34997E-04
 0.44080002E+02  0.43640E-04
 0.44130001E+02  0.27820E-04
 0.44180000E+02  0.57338E-05
 0.44230000E+02 -0.35976E-05
 0.44279999E+02  0.11383E-05
 0.44330002E+02  0.10579E-04
 0.44380001E+02  0.11414E-04
 0.44430000E+02 -0.51726E-05
 0.44480000E+02 -0.30166E-04
 0.44529999E+02 -0.47709E-04
 0.44580002E+02 -0.45945E-04
 0.44630001E+02 -0.30037E-04
 0.44680000E+02 -0.32368E-04
 0.44730000E+02 -0.43936E-04
 0.44779999E+02 -0.26979E-04
 0.44830002E+02  0.98813E-05
 0.44880001E+02  0.20093E-04
 0.44930000E+02  0.10489E-04
 0.44980000E+02  0.10670E-04
 0.45029999E+02  0.13744E-04
 0.45080002E+02  0.25435E-04
 0.45130001E+02  0.27597E-04
 0.45180000E+02  0.16437E-04
 0.45230000E+02  0.16549E-04
 0.45279999E+02  0.13069E-04
 0.45330002E+02  0.48386E-05
 0.45380001E+02 -0.27592E-05
 0.45430000E+02 -0.11034E-04
 0.45480000E+02  0.20515E-05
 0.45529999E+02  0.19619E-04
 0.45580002E+02  0.33941E-04
 0.45630001E+02  0.43003E-04
 0.45680000E+02  0.19277E-04
 0.45730000E+02 -0.12377E-04
 0.45779999E+02 -0.45207E-04
 0.45830002E+02 -0.63515E-04
 0.45880001E+02 -0.56530E-04
 0.45930000E+02 -0.51281E-04
 0.45980000E+02 -0.33925E-04
 0.46029999E+02 -0.15375E-04
 0.46080002E+02  0.40584E-05
 0.46130001E+02  0.33477E-04
 0.46180000E+02  0.56152E-04
 0.46230000E+02  0.78514E-04
 0.46279999E+02  0.77980E-04
 0.46330002E+02  0.35943E-04
 0.46380001E+02 -0.12566E-04
 0.46430000E+02 -0.37749E-04
 0.46480000E+02 -0.35939E-04
 0.46529999E+02 -0.17990E-04
 0.46580002E+02 -0.22737E-05
 0.46630001E+02 -0.73352E-05
 0.46680000E+02 -0.34469E-04
 0.46730000E+02 -0.46343E-04
 0.46779999E+02 -0.15879E-04
 0.46830002E+02  0.29457E-04
 0.46880001E+02  0.49052E-04
 0.46930000E+02  0.31165E-04
 0.46980000E+02 -0.57743E-05
 0.47029999E+02 -0.30637E-04
 0.47080002E+02 -0.23005E-04
 0.47130001E+02 -0.33785E-05
 0.47180000E+02  0.26395E-05
 0.47230000E+02  0.64690E-05
 0.47279999E+02  0.76231E-05
 0.47330002E+02  0.11349E-05
 0.47380001E+02 -0.82474E-05
 0.47430000E+02 -0.21329E-04
 0.47480000E+02 -0.16911E-04
 0.47529999E+02 -0.28676E-05
 0.47580002E+02 -0.59497E-05
 0.47630001E+02 -0.11528E-04
 0.47680000E+02  0.68748E-05
 0.47730000E+02  0.41858E-04
 0.47779999E+02  0.53211E-04
 0.47830002E+02  0.41372E-04
 0.47880001E+02  0.16053E-04
 0.47930000E+02 -0.17882E-04
 0.47980000E+02 -0.29654E-04
 0.48029999E+02 -0.34198E-04
 0.48080002E+02 -0.40372E-04
 0.48130001E+02 -0.19347E-04
 0.48180000E+02  0.11454E-04
 0.48230000E+02  0.20112E-04
 0.48279999E+02  0.19295E-04
 0.48330002E+02  0.29641E-04
 0.48380001E+02  0.18718E-04
 0.48430000E+02 -0.31031E-04
 0.48480000E+02 -0.52478E-04
 0.48529999E+02 -0.23653E-04
 0.48580002E+02  0.50567E-05
 0.48630001E+02  0.24948E-04
 0.48680000E+02  0.36155E-04
 0.48730000E+02  0.25476E-04
 0.48779999E+02  0.39289E-05
 0.48830002E+02 -0.48856E-05
 0.48880001E+02  0.25176E-05
 0.48930000E+02  0.10652E-04
 0.48980000E+02  0.23240E-04
 0.49029999E+02  0.30564E-04
 0.49080002E+02  0.13346E-04
 0.49130001E+02 -0.96845E-05
 0.49180000E+02 -0.23206E-04
 0.49230000E+02 -0.39905E-04
 0.49279999E+02 -0.55919E-04
 0.49330002E+02 -0.45207E-04
 0.49380001E+02 -0.90655E-05
 0.49430000E+02  0.16140E-04
 0.49480000E+02  0.16012E-04
 0.49529999E+02  0.15964E-04
 0.49580002E+02  0.16373E-04
 0.49630001E+02  0.40229E-05
 0.49680000E+02  0.37996E-06
 0.49730000E+02  0.10228E-04
 0.49779999E+02  0.27496E-05
 0.49830002E+02 -0.29260E-04
 0.49880001E+02 -0.37688E-04
 0.49930000E+02 -0.98177E-05
 0.49980000E+02  0.73376E-05
 0.50029999E+02  0.15954E-04
 0.50080002E+02  0.22984E-04
 0.50130001E+02  0.10008E-04
 0.50180000E+02 -0.15249E-04
 0.50230000E+02 -0.23359E-04
 0.50279999E+02 -0.70367E-05
 0.50330002E+02 -0.35181E-05
 0.50380001E+02 -0.12886E-04
 0.50430000E+02 -0.14879E-04
 0.50480000E+02 -0.93666E-06
 0.50529999E+02  0.32259E-04
 0.50580002E+02  0.61363E-04
 0.50630001E+02  0.69552E-04
 0.50680000E+02  0.54639E-04
 0.50730000E+02  0.32391E-04
 0.50779999E+02  0.11376E-04
 0.50830002E+02 -0.19791E-04
 0.50880001E+02 -0.44565E-04
 0.50930000E+02 -0.39722E-04
 0.50980000E+02 -0.37520E-04
 0.51029999E+02 -0.53787E-04
 0.51080002E+02 -0.50604E-04
 0.51130001E+02 -0.25179E-04
 0.51180000E+02  0.28359E-05
 0.51230000E+02  0.84850E-05
 0.51279999E+02 -0.72465E-05
 0.51330002E+02 -0.14638E-04
 0.51380001E+02 -0.52632E-05
 0.51430000E+02  0.22328E-04
 0.51480000E+02  0.51400E-04
 0.51529999E+02  0.72827E-04
 0.51580002E+02  0.67406E-04
 0.51630001E+02  0.31932E-04
 0.51680000E+02  0.10543E-04
 0.51730000E+02 -0.36813E-05
 0.51779999E+02 -0.28936E-04
 0.51830002E+02 -0.44628E-04
 0.51880001E+02 -0.40356E-04
 0.51930000E+02 -0.37513E-04
 0.51980000E+02 -0.46658E-04
 0.52029999E+02 -0.42491E-04
 0.52080002E+02 -0.19942E-04
 0.52130001E+02 -0.43689E-06
 0.52180000E+02  0.13452E-04
 0.52230000E+02  0.31308E-04
 0.52279999E+02  0.29159E-04
 0.52330002E+02  0.89357E-05
 0.52380001E+02  0.17013E-04
 0.52430000E+02  0.42876E-04
 0.52480000E+02  0.60207E-04
 0.52529999E+02  0.70880E-04
 0.52580002E+02  0.57704E-04
 0.52630001E+02  0.14465E-04
 0.52680000E+02 -0.24436E-04
 0.52730000E+02 -0.44021E-04
 0.52779999E+02 -0.64809E-04
 0.52830002E+02 -0.79815E-04
 0.52880001E+02 -0.73821E-04
 0.52930000E+02 -0.56890E-04
 0.52980000E+02 -0.36897E-04
 0.53029999E+02 -0.18068E-04
 0.53080002E+02 -0.28317E-05
 0.53130001E+02  0.14206E-04
 0.53180000E+02  0.33775E-04
 0.53230000E+02  0.57662E-04
 0.53279999E+02  0.73761E-04
 0.53330002E+02  0.66312E-04
 0.53380001E+02  0.50115E-04
 0.53430000E+02  0.32522E-04
 0.53480000E+02  0.10939E-04
 0.53529999E+02 -0.18847E-04
 0.53580002E+02 -0.48711E-04
 0.53630001E+02 -0.64158E-04
 0.53680000E+02 -0.67015E-04
 0.53730000E+02 -0.55858E-04
 0.53779999E+02 -0.33773E-04
 0.53830002E+02 -0.26978E-05
 0.53880001E+02  0.20950E-04
 0.53930000E+02  0.35874E-04
 0.53980000E+02  0.58024E-04
 0.54029999E+02  0.67191E-04
 0.54080002E+02  0.48276E-04
 0.54130001E+02  0.16720E-04
 0.54180000E+02 -0.23044E-05
 0.54230000E+02 -0.97729E-05
 0.54279999E+02 -0.20197E-04
 0.54330002E+02 -0.24164E-04
 0.54380001E+02 -0.19183E-04
 0.54430000E+02 -0.22469E-04
 0.54480000E+02 -0.31218E-04
 0.54529999E+02 -0.22756E-04
 0.54580002E+02 -0.79612E-05
 0.54630001E+02 -0.15174E-04
 0.54680000E+02 -0.19993E-04
 0.54730000E+02 -0.58708E-05
 0.54779999E+02 -0.40901E-05
 0.54830002E+02 -0.71747E-05
 0.54880001E+02  0.92851E-06
 0.54930000E+02  0.46817E-06
 0.54980000E+02  0.75510E-06
 0.55029999E+02  0.17389E-04
 0.55080002E+02  0.25527E-04
 0.55130001E+02  0.19584E-04
 0.55180000E+02  0.24789E-04
 0.55230000E+02  0.30170E-04
 0.55279999E+02  0.59488E-05
 0.55330002E+02 -0.17177E-04
 0.55380001E+02 -0.14877E-04
 0.55430000E+02 -0.60125E-05
 0.55480000E+02  0.12114E-04
 0.55529999E+02  0.26510E-04
 0.55580002E+02  0.30295E-04
 0.55630001E+02  0.35724E-04
 0.55680000E+02  0.35888E-04
 0.55730000E+02  0.17850E-04
 0.55779999E+02 -0.18148E-04
 0.55830002E+02 -0.52759E-04
 0.55880001E+02 -0.73961E-04
 0.55930000E+02 -0.68461E-04
 0.55980000E+02 -0.34998E-04
 0.56029999E+02  0.23729E-05
 0.56080002E+02  0.20761E-04
 0.56130001E+02  0.23956E-04
 0.56180000E+02  0.32809E-04
 0.56230000E+02  0.35490E-04
 0.56279999E+02  0.22598E-04
 0.56330002E+02  0.12316E-04
 0.56380001E+02 -0.70287E-06
 0.56430000E+02 -0.18273E-04
 0.56480000E+02 -0.18781E-04
 0.56529999E+02 -0.23872E-05
 0.56580002E+02  0.10108E-04
 0.56630001E+02  0.32988E-05
 0.56680000E+02 -0.15600E-04
 0.56730000E+02 -0.30005E-04
 0.56779999E+02 -0.24783E-04
 0.56830002E+02 -0.18980E-05
 0.56880001E+02  0.18009E-04
 0.56930000E+02  0.21152E-04
 0.56980000E+02  0.72167E-05
 0.57029999E+02 -0.73835E-06
 0.57080002E+02  0.73214E-05
 0.57130001E+02  0.13722E-04
 0.57180000E+02  0.55304E-05
 0.57230000E+02 -0.47436E-05
 0.57279999E+02 -0.46606E-05
 0.57330002E+02 -0.59972E-05
 0.57380001E+02 -0.44854E-05
 0.57430000E+02 -0.16457E-05
 0.57480000E+02  0.81309E-05
 0.57529999E+02  0.29141E-04
 0.57580002E+02  0.28844E-04
 0.57630001E+02  0.12573E-04
 0.57680000E+02 -0.80185E-05
 0.57730000E+02 -0.30440E-04
 0.57779999E+02 -0.57903E-04
 0.57830002E+02 -0.85441E-04
 0.57880001E+02 -0.69143E-04
 0.57930000E+02 -0.32633E-04
 0.57980000E+02 -0.12654E-04
 0.58029999E+02  0.11169E-04
 0.58080002E+02  0.41682E-04
 0.58130001E+02  0.64367E-04
 0.58180000E+02  0.72212E-04
 0.58230000E+02  0.65647E-04
 0.58279999E+02  0.45637E-04
 0.58330002E+02  0.10271E-04
 0.58380001E+02 -0.28387E-04
 0.58430000E+02 -0.39087E-04
 0.58480000E+02 -0.14873E-04
 0.58529999E+02  0.15633E-04
 0.58580002E+02  0.29745E-04
 0.58630001E+02  0.27882E-04
 0.58680000E+02  0.45598E-05
 0.58730000E+02 -0.38974E-04
 0.58779999E+02 -0.55266E-04
 0.58830002E+02 -0.37231E-04
 0.58880001E+02 -0.18868E-04
 0.58930000E+02  0.21203E-05
 0.58980000E+02  0.19914E-04
 0.59029999E+02  0.45224E-04
 0.59080002E+02  0.70458E-04
 0.59130001E+02  0.53336E-04
 0.59180000E+02  0.34449E-05
 0.59230000E+02 -0.44897E-04
 0.59279999E+02 -0.74033E-04
 0.59330002E+02 -0.95025E-04
 0.59380001E+02 -0.83153E-04
 0.59430000E+02 -0.10314E-04
 0.59480000E+02  0.59401E-04
 0.59529999E+02  0.68733E-04
 0.59580002E+02  0.55808E-04
 0.59630001E+02  0.48508E-04
 0.59680000E+02  0.63659E-05
 0.59730000E+02 -0.48075E-04
 0.59779999E+02 -0.22538E-04
 0.59830002E+02  0.54603E-04
 0.59880001E+02  0.59123E-04
 0.59930000E+02  0.24570E-04
 0.59980000E+02  0.48705E-04
 0.60029999E+02  0.72891E-04
 0.60080002E+02  0.42517E-05
 0.60130001E+02 -0.91222E-04
 0.60180000E+02 -0.94210E-04
 0.60230000E+02 -0.43407E-04
 0.60279999E+02 -0.22620E-04
 0.60330002E+02 -0.32465E-04
 0.60380001E+02 -0.35372E-04
 0.60430000E+02 -0.11813E-04
 0.60480000E+02  0.47394E-05
 0.60529999E+02 -0.89383E-05
 0.60580002E+02  0.71709E-05
 0.60630001E+02  0.55522E-04
 0.60680000E+02  0.39118E-04
 0.60730000E+02 -0.18223E-04
 0.60779999E+02 -0.90018E-05
 0.60830002E+02  0.53320E-04
 0.60880001E+02  0.32916E-04
 0.60930000E+02 -0.82353E-04
 0.60980000E+02 -0.13469E-03
 0.61029999E+02 -0.70268E-04
 0.61080002E+02 -0.41211E-05
 0.61130001E+02  0.13592E-04
 0.61180000E+02  0.44311E-04
 0.61230000E+02  0.67809E-04
 0.61279999E+02  0.67498E-04
 0.61330002E+02  0.47469E-04
 0.61380001E+02 -0.24434E-04
 0.61430000E+02 -0.76119E-04
 0.61480000E+02 -0.39583E-04
 0.61529999E+02 -0.61325E-05
 0.61580002E+02 -0.30819E-04
 0.61630001E+02 -0.33153E-04
 0.61680000E+02 -0.19744E-04
 0.61730000E+02 -0.39871E-04
 0.61779999E+02 -0.28360E-04
 0.61830002E+02  0.57424E-04
 0.61880001E+02  0.12477E-03
 0.61930000E+02  0.10148E-03
 0.61980000E+02  0.46796E-04
 0.62029999E+02  0.17686E-04
 0.62080002E+02  0.28000E-04
 0.62130001E+02  0.41522E-04
 0.62180000E+02  0.26570E-04
 0.62230000E+02 -0.12984E-04
 0.62279999E+02 -0.55788E-04
 0.62330002E+02 -0.11538E-04
 0.62380001E+02  0.44196E-04
 0.62430000E+02 -0.29888E-05
 0.62480000E+02 -0.44033E-04
 0.62529999E+02 -0.32534E-04
 0.62580002E+02 -0.32046E-04
 0.62630001E+02 -0.60518E-04
 0.62680000E+02 -0.78677E-04
 0.62730000E+02 -0.39778E-04
 0.62779999E+02  0.45360E-04
 0.62830002E+02  0.97036E-04
 0.62880001E+02  0.59806E-04
 0.62930000E+02  0.77398E-05
 0.62980000E+02  0.30724E-05
 0.63029999E+02  0.92042E-05
 0.63080002E+02  0.24717E-04
 0.63130001E+02  0.62504E-04
 0.63180000E+02  0.73115E-04
 0.63230000E+02  0.15102E-05
 0.63279999E+02 -0.10390E-03
 0.63330002E+02 -0.12324E-03
 0.63380001E+02 -0.69597E-04
 0.63430000E+02 -0.40100E-04
 0.63480000E+02 -0.49294E-04
 0.63529999E+02 -0.40075E-04
 0.63580002E+02  0.15400E-04
 0.63630001E+02  0.74047E-04
 0.63680000E+02  0.93876E-04
 0.63730000E+02  0.66803E-04
 0.63779999E+02  0.23632E-04
 0.63830002E+02 -0.99873E-05
 0.63880001E+02 -0.16881E-04
 0.63930000E+02 -0.85395E-05
 0.63980000E+02 -0.95543E-05
 0.64029999E+02  0.43783E-05
 0.64080002E+02  0.26378E-04
 0.64129997E+02  0.16259E-04
 0.64180000E+02 -0.16010E-04
 0.64230003E+02 -0.32266E-04
 0.64279999E+02 -0.69785E-04
 0.64330002E+02 -0.12713E-03
 0.64379997E+02 -0.10640E-03
 0.64430000E+02 -0.13145E-04
 0.64480003E+02  0.56560E-04
 0.64529999E+02  0.63983E-04
 0.64580002E+02  0.41765E-04
 0.64629997E+02  0.28453E-04
 0.64680000E+02  0.15792E-04
 0.64730003E+02 -0.36370E-04
 0.64779999E+02 -0.96514E-04
 0.64830002E+02 -0.77553E-04
 0.64879997E+02 -0.10809E-04
 0.64930000E+02  0.12481E-04
 0.64980003E+02  0.31559E-04
 0.65029999E+02  0.10494E-03
 0.65080002E+02  0.19375E-03
 0.65129997E+02  0.21824E-03
 0.65180000E+02  0.14866E-03
 0.65230003E+02  0.26190E-04
 0.65279999E+02 -0.67579E-04
 0.65330002E+02 -0.63193E-04
 0.65379997E+02 -0.41756E-04
 0.65430000E+02 -0.66949E-04
 0.65480003E+02 -0.82668E-04
 0.65529999E+02 -0.58645E-04
 0.65580002E+02 -0.12122E-04
 0.65629997E+02  0.83164E-05
 0.65680000E+02  0.75479E-05
 0.65730003E+02  0.14344E-04
 0.65779999E+02  0.37808E-04
 0.65830002E+02  0.53578E-04
 0.65879997E+02  0.20913E-04
 0.65930000E+02 -0.67803E-05
 0.65980003E+02 -0.78428E-05
 0.66029999E+02 -0.21852E-04
 0.66080002E+02 -0.27692E-04
 0.66129997E+02 -0.26726E-04
 0.66180000E+02 -0.38562E-04
 0.66230003E+02 -0.55998E-04
 0.66279999E+02 -0.64555E-04
 0.66330002E+02 -0.55008E-04
 0.66379997E+02 -0.65037E-04
 0.66430000E+02 -0.85999E-04
 0.66480003E+02 -0.53800E-04
 0.66529999E+02  0.20018E-04
 0.66580002E+02  0.80828E-04
 0.66629997E+02  0.96046E-04
 0.66680000E+02  0.65268E-04
 0.66730003E+02  0.95199E-05
 0.66779999E+02 -0.58512E-04
 0.66830002E+02 -0.10186E-03
 0.66879997E+02 -0.86162E-04
 0.66930000E+02 -0.35734E-04
 0.66980003E+02  0.20477E-04
 0.67029999E+02  0.57025E-04
 0.67080002E+02  0.66394E-04
 0.67129997E+02  0.52089E-04
 0.67180000E+02  0.15778E-04
 0.67230003E+02  0.16656E-04
 0.67279999E+02  0.71321E-04
 0.67330002E+02  0.11084E-03
 0.67379997E+02  0.78066E-04
 0.67430000E+02 -0.56452E-05
 0.67480003E+02 -0.50780E-04
 0.67529999E+02 -0.38704E-04
 0.67580002E+02 -0.17932E-04
 0.67629997E+02 -0.22558E-04
 0.67680000E+02 -0.40318E-04
 0.67730003E+02 -0.11057E-04
 0.67779999E+02  0.53694E-04
 0.67830002E+02  0.94267E-04
 0.67879997E+02  0.90019E-04
 0.67930000E+02  0.58752E-04
 0.67980003E+02  0.43773E-04
 0.68029999E+02  0.21216E-04
 0.68080002E+02 -0.45372E-04
 0.68129997E+02 -0.11537E-03
 0.68180000E+02 -0.14869E-03
 0.68230003E+02 -0.12230E-03
 0.68279999E+02 -0.45790E-04
 0.68330002E+02  0.14764E-04
 0.68379997E+02  0.30804E-04
 0.68430000E+02  0.38083E-04
 0.68480003E+02  0.40116E-04
 0.68529999E+02  0.26251E-04
 0.68580002E+02  0.68108E-05
 0.68629997E+02 -0.17988E-04
 0.68680000E+02 -0.36195E-04
 0.68730003E+02 -0.45089E-04
 0.68779999E+02 -0.52332E-04
 0.68830002E+02 -0.43099E-04
 0.68879997E+02  0.18210E-05
 0.68930000E+02  0.71324E-04
 0.68980003E+02  0.12232E-03
 0.69029999E+02  0.13087E-03
 0.69080002E+02  0.10566E-03
 0.69129997E+02  0.48944E-04
 0.69180000E+02 -0.23763E-04
 0.69230003E+02 -0.73574E-04
 0.69279999E+02 -0.98813E-04
 0.69330002E+02 -0.11196E-03
 0.69379997E+02 -0.89181E-04
 0.69430000E+02 -0.34725E-04
 0.69480003E+02 -0.43948E-05
 0.69529999E+02 -0.43995E-05
 0.69580002E+02  0.10500E-04
 0.69629997E+02  0.47702E-04
 0.69680000E+02  0.67773E-04
 0.69730003E+02  0.52437E-04
 0.69779999E+02  0.13393E-04
 0.69830002E+02 -0.29599E-04
 0.69879997E+02 -0.38673E-04
 0.69930000E+02 -0.29497E-04
 0.69980003E+02 -0.18519E-04
 0.70029999E+02  0.50633E-05
 0.70080002E+02  0.12655E-04
 0.70129997E+02  0.53288E-05
 0.70180000E+02 -0.16129E-04
 0.70230003E+02 -0.48543E-04
 0.70279999E+02 -0.59799E-04
 0.70330002E+02 -0.60237E-04
 0.70379997E+02 -0.57838E-04
 0.70430000E+02 -0.20544E-04
 0.70480003E+02  0.52659E-04
 0.70529999E+02  0.10438E-03
 0.70580002E+02  0.10883E-03
 0.70629997E+02  0.94572E-04
 0.70680000E+02  0.61236E-04
 0.70730003E+02  0.20372E-04
 0.70779999E+02  0.31680E-05
 0.70830002E+02 -0.28558E-05
 0.70879997E+02 -0.14609E-06
 0.70930000E+02  0.62271E-05
 0.70980003E+02  0.90114E-05
 0.71029999E+02  0.18689E-04
 0.71080002E+02  0.20359E-04
 0.71129997E+02  0.95323E-05
 0.71180000E+02 -0.46609E-05
 0.71230003E+02 -0.11040E-04
 0.71279999E+02 -0.10542E-04
 0.71330002E+02 -0.17591E-04
 0.71379997E+02 -0.27895E-04
 0.71430000E+02 -0.49447E-04
 0.71480003E+02 -0.90048E-04
 0.71529999E+02 -0.11179E-03
 0.71580002E+02 -0.79929E-04
 0.71629997E+02 -0.24872E-04
 0.71680000E+02  0.22459E-04
 0.71730003E+02  0.60305E-04
 0.71779999E+02  0.69842E-04
 0.71830002E+02  0.57188E-04
 0.71879997E+02  0.54874E-04
 0.71930000E+02  0.55047E-04
 0.71980003E+02  0.32523E-04
 0.72029999E+02  0.32608E-05
 0.72080002E+02 -0.51073E-05
 0.72129997E+02 -0.58728E-06
 0.72180000E+02 -0.96512E-05
 0.72230003E+02 -0.38485E-04
 0.72279999E+02 -0.69626E-04
 0.72330002E+02 -0.88847E-04
 0.72379997E+02 -0.93643E-04
 0.72430000E+02 -0.78761E-04
 0.72480003E+02 -0.53989E-04
 0.72529999E+02 -0.25419E-04
 0.72580002E+02  0.19869E-04
 0.72629997E+02  0.61986E-04
 0.72680000E+02  0.82562E-04
 0.72730003E+02  0.89338E-04
 0.72779999E+02  0.87161E-04
 0.72830002E+02  0.73057E-04
 0.72879997E+02  0.58626E-04
 0.72930000E+02  0.60344E-04
 0.72980003E+02  0.53982E-04
 0.73029999E+02  0.30002E-04
 0.73080002E+02  0.53710E-06
 0.73129997E+02 -0.50651E-04
 0.73180000E+02 -0.12474E-03
 0.73230003E+02 -0.16169E-03
 0.73279999E+02 -0.11841E-03
 0.73330002E+02 -0.32253E-04
 0.73379997E+02  0.48962E-04
 0.73430000E+02  0.88944E-04
 0.73480003E+02  0.83849E-04
 0.73529999E+02  0.68617E-04
 0.73580002E+02  0.46075E-04
 0.73629997E+02  0.84247E-05
 0.73680000E+02 -0.21559E-04
 0.73730003E+02 -0.30323E-04
 0.73779999E+02 -0.25219E-04
 0.73830002E+02 -0.27529E-04
 0.73879997E+02 -0.39658E-04
 0.73930000E+02 -0.37403E-04
 0.73980003E+02 -0.24970E-04
 0.74029999E+02 -0.23532E-04
 0.74080002E+02 -0.33334E-04
 0.74129997E+02 -0.22448E-04
 0.74180000E+02  0.10163E-04
 0.74230003E+02  0.26825E-04
 0.74279999E+02  0.23181E-04
 0.74330002E+02  0.12582E-04
 0.74379997E+02 -0.26201E-05
 0.74430000E+02 -0.15758E-04
 0.74480003E+02 -0.13118E-04
 0.74529999E+02 -0.12937E-04
 0.74580002E+02 -0.19160E-04
 0.74629997E+02 -0.13587E-04
 0.74680000E+02 -0.89310E-05
 0.74730003E+02  0.16001E-07
 0.74779999E+02  0.21546E-04
 0.74830002E+02  0.52508E-04
 0.74879997E+02  0.92473E-04
 0.74930000E+02  0.12060E-03
 0.74980003E+02  0.11718E-03
 0.75029999E+02  0.89828E-04
 0.75080002E+02  0.58853E-04
 0.75129997E+02  0.15610E-04
 0.75180000E+02 -0.41763E-04
 0.75230003E+02 -0.80208E-04
 0.75279999E+02 -0.94037E-04
 0.75330002E+02 -0.10453E-03
 0.75379997E+02 -0.11432E-03
 0.75430000E+02 -0.10038E-03
 0.75480003E+02 -0.58460E-04
 0.75529999E+02 -0.62160E-05
 0.75580002E+02  0.43689E-04
 0.75629997E+02  0.56567E-04
 0.75680000E+02  0.35952E-04
 0.75730003E+02  0.21044E-04
 0.75779999E+02  0.21321E-04
 0.75830002E+02  0.42419E-04
 0.75879997E+02  0.58969E-04
 0.75930000E+02  0.45368E-04
 0.75980003E+02  0.86536E-05
 0.76029999E+02 -0.36896E-04
 0.76080002E+02 -0.68614E-04
 0.76129997E+02 -0.72401E-04
 0.76180000E+02 -0.50106E-04
 0.76230003E+02 -0.26794E-04
 0.76279999E+02 -0.13024E-04
 0.76330002E+02  0.21677E-05
 0.76379997E+02  0.89713E-05
 0.76430000E+02 -0.82022E-05
 0.76480003E+02 -0.40355E-04
 0.76529999E+02 -0.46005E-04
 0.76580002E+02 -0.17115E-05
 0.76629997E+02  0.56872E-04
 0.76680000E+02  0.84000E-04
 0.76730003E+02  0.69374E-04
 0.76779999E+02  0.32792E-04
 0.76830002E+02 -0.60918E-05
 0.76879997E+02 -0.39525E-04
 0.76930000E+02 -0.45839E-04
 0.76980003E+02 -0.23667E-04
 0.77029999E+02 -0.22314E-06
 0.77080002E+02  0.23974E-04
 0.77129997E+02  0.48390E-04
 0.77180000E+02  0.51343E-04
 0.77230003E+02  0.33119E-04
 0.77279999E+02  0.21979E-04
 0.77330002E+02  0.27713E-04
 0.77379997E+02  0.31507E-04
 0.77430000E+02  0.22092E-04
 0.77480003E+02  0.54000E-05
 0.77529999E+02 -0.14406E-04
 0.77580002E+02 -0.33784E-04
 0.77629997E+02 -0.43575E-04
 0.77680000E+02 -0.42601E-04
 0.77730003E+02 -0.32836E-04
 0.77779999E+02 -0.12876E-04
 0.77830002E+02  0.38446E-05
 0.77879997E+02 -0.19695E-06
 0.77930000E+02 -0.12056E-04
 0.77980003E+02 -0.15520E-04
 0.78029999E+02 -0.68975E-05
 0.78080002E+02  0.21949E-04
 0.78129997E+02  0.55654E-04
 0.78180000E+02  0.66192E-04
 0.78230003E+02  0.47503E-04
 0.78279999E+02  0.13465E-04
 0.78330002E+02 -0.27777E-04
 0.78379997E+02 -0.66770E-04
 0.78430000E+02 -0.85936E-04
 0.78480003E+02 -0.92845E-04
 0.78529999E+02 -0.92107E-04
 0.78580002E+02 -0.81750E-04
 0.78629997E+02 -0.57227E-04
 0.78680000E+02 -0.11545E-04
 0.78730003E+02  0.30407E-04
 0.78779999E+02  0.51995E-04
 0.78830002E+02  0.64749E-04
 0.78879997E+02  0.75834E-04
 0.78930000E+02  0.76402E-04
 0.78980003E+02  0.65343E-04
 0.79029999E+02  0.52685E-04
 0.79080002E+02  0.35905E-04
 0.79129997E+02  0.84756E-05
 0.79180000E+02 -0.24142E-04
 0.79230003E+02 -0.45405E-04
 0.79279999E+02 -0.53331E-04
 0.79330002E+02 -0.54579E-04
 0.79379997E+02 -0.50626E-04
 0.79430000E+02 -0.40074E-04
 0.79480003E+02 -0.24127E-04
 0.79529999E+02 -0.12859E-04
 0.79580002E+02  0.14509E-07
 0.79629997E+02  0.25148E-04
 0.79680000E+02  0.58845E-04
 0.79730003E+02  0.93082E-04
 0.79779999E+02  0.11718E-03
 0.79830002E+02  0.11793E-03
 0.79879997E+02  0.85700E-04
 0.79930000E+02  0.29523E-04
 0.79980003E+02 -0.34370E-04
 0.80029999E+02 -0.83339E-04
 0.80080002E+02 -0.93185E-04
 0.80129997E+02 -0.68208E-04
 0.80180000E+02 -0.31790E-04
 0.80230003E+02 -0.14594E-04
 0.80279999E+02 -0.23739E-04
 0.80330002E+02 -0.37399E-04
 0.80379997E+02 -0.44783E-04
 0.80430000E+02 -0.38089E-04
 0.80480003E+02 -0.19840E-04
 0.80529999E+02  0.17367E-05
 0.80580002E+02  0.32469E-04
 0.80629997E+02  0.67609E-04
 0.80680000E+02  0.85971E-04
 0.80730003E+02  0.72860E-04
 0.80779999E+02  0.31153E-04
 0.80830002E+02 -0.23146E-04
 0.80879997E+02 -0.64304E-04
 0.80930000E+02 -0.73236E-04
 0.80980003E+02 -0.51139E-04
 0.81029999E+02 -0.22660E-04
 0.81080002E+02 -0.18832E-04
 0.81129997E+02 -0.39968E-04
 0.81180000E+02 -0.53520E-04
 0.81230003E+02 -0.39110E-04
 0.81279999E+02 -0.63097E-05
 0.81330002E+02  0.26781E-04
 0.81379997E+02  0.46289E-04
 0.81430000E+02  0.60727E-04
 0.81480003E+02  0.70450E-04
 0.81529999E+02  0.54460E-04
 0.81580002E+02  0.10930E-04
 0.81629997E+02 -0.36569E-04
 0.81680000E+02 -0.47927E-04
 0.81730003E+02 -0.11179E-04
 0.81779999E+02  0.41229E-04
 0.81830002E+02  0.76103E-04
 0.81879997E+02  0.84575E-04
 0.81930000E+02  0.74396E-04
 0.81980003E+02  0.50891E-04
 0.82029999E+02  0.21791E-04
 0.82080002E+02 -0.85071E-05
 0.82129997E+02 -0.37708E-04
 0.82180000E+02 -0.50281E-04
 0.82230003E+02 -0.44765E-04
 0.82279999E+02 -0.38468E-04
 0.82330002E+02 -0.36051E-04
 0.82379997E+02 -0.28038E-04
 0.82430000E+02 -0.14411E-04
 0.82480003E+02  0.68439E-07
 0.82529999E+02  0.10781E-04
 0.82580002E+02  0.97921E-05
 0.82629997E+02  0.40254E-05
 0.82680000E+02 -0.97248E-05
 0.82730003E+02 -0.39245E-04
 0.82779999E+02 -0.69020E-04
 0.82830002E+02 -0.84395E-04
 0.82879997E+02 -0.77058E-04
 0.82930000E+02 -0.50180E-04
 0.82980003E+02 -0.18065E-04
 0.83029999E+02  0.90515E-05
 0.83080002E+02  0.38117E-04
 0.83129997E+02  0.74426E-04
 0.83180000E+02  0.96917E-04
 0.83230003E+02  0.96971E-04
 0.83279999E+02  0.85826E-04
 0.83330002E+02  0.62774E-04
 0.83379997E+02  0.24783E-04
 0.83430000E+02 -0.16823E-04
 0.83480003E+02 -0.44685E-04
 0.83529999E+02 -0.52792E-04
 0.83580002E+02 -0.49084E-04
 0.83629997E+02 -0.35071E-04
 0.83680000E+02 -0.10534E-04
 0.83730003E+02  0.11110E-04
 0.83779999E+02  0.23238E-04
 0.83830002E+02  0.20072E-04
 0.83879997E+02  0.26791E-06
 0.83930000E+02 -0.17023E-04
 0.83980003E+02 -0.22626E-04
 0.84029999E+02 -0.22295E-04
 0.84080002E+02 -0.13633E-04
 0.84129997E+02  0.79902E-05
 0.84180000E+02  0.30326E-04
 0.84230003E+02  0.40730E-04
 0.84279999E+02  0.37492E-04
 0.84330002E+02  0.25446E-04
 0.84379997E+02  0.10887E-04
 0.84430000E+02 -0.83106E-05
 0.84480003E+02 -0.25339E-04
 0.84529999E+02 -0.34176E-04
 0.84580002E+02 -0.36843E-04
 0.84629997E+02 -0.32404E-04
 0.84680000E+02 -0.27305E-04
 0.84730003E+02 -0.31107E-04
 0.84779999E+02 -0.39597E-04
 0.84830002E+02 -0.31575E-04
 0.84879997E+02 -0.25309E-05
 0.84930000E+02  0.29425E-04
 0.84980003E+02  0.48527E-04
 0.85029999E+02  0.49825E-04
 0.85080002E+02  0.46781E-04
 0.85129997E+02  0.47023E-04
 0.85180000E+02  0.42312E-04
 0.85230003E+02  0.32187E-04
 0.85279999E+02  0.23499E-04
 0.85330002E+02  0.11512E-04
 0.85379997E+02 -0.14927E-04
 0.85430000E+02 -0.48848E-04
 0.85480003E+02 -0.75207E-04
 0.85529999E+02 -0.84454E-04
 0.85580002E+02 -0.74302E-04
 0.85629997E+02 -0.52635E-04
 0.85680000E+02 -0.25688E-04
 0.85730003E+02  0.79441E-05
 0.85779999E+02  0.43339E-04
 0.85830002E+02  0.61993E-04
 0.85879997E+02  0.63193E-04
 0.85930000E+02  0.64032E-04
 0.85980003E+02  0.58086E-04
 0.86029999E+02  0.36119E-04
 0.86080002E+02  0.13221E-04
 0.86129997E+02 -0.19875E-05
 0.86180000E+02 -0.10665E-04
 0.86230003E+02 -0.10065E-04
 0.86279999E+02 -0.96632E-05
 0.86330002E+02 -0.21401E-04
 0.86379997E+02 -0.43111E-04
 0.86430000E+02 -0.63681E-04
 0.86480003E+02 -0.65447E-04
 0.86529999E+02 -0.44947E-04
 0.86580002E+02 -0.14024E-04
 0.86629997E+02  0.20467E-04
 0.86680000E+02  0.47594E-04
 0.86730003E+02  0.59009E-04
 0.86779999E+02  0.57883E-04
 0.86830002E+02  0.46088E-04
 0.86879997E+02  0.22348E-04
 0.86930000E+02 -0.75157E-05
 0.86980003E+02 -0.33311E-04
 0.87029999E+02 -0.50467E-04
 0.87080002E+02 -0.49981E-04
 0.87129997E+02 -0.31497E-04
 0.87180000E+02 -0.70322E-05
 0.87230003E+02  0.13759E-04
 0.87279999E+02  0.19973E-04
 0.87330002E+02  0.16220E-04
 0.87379997E+02  0.13783E-04
 0.87430000E+02  0.14608E-04
 0.87480003E+02  0.21703E-04
 0.87529999E+02  0.33143E-04
 0.87580002E+02  0.35953E-04
 0.87629997E+02  0.20993E-04
 0.87680000E+02 -0.14724E-05
 0.87730003E+02 -0.21028E-04
 0.87779999E+02 -0.39469E-04
 0.87830002E+02 -0.54506E-04
 0.87879997E+02 -0.59353E-04
 0.87930000E+02 -0.49720E-04
 0.87980003E+02 -0.28190E-04
 0.88029999E+02 -0.50929E-05
 0.88080002E+02  0.10811E-04
 0.88129997E+02  0.18023E-04
 0.88180000E+02  0.21616E-04
 0.88230003E+02  0.23324E-04
 0.88279999E+02  0.21436E-04
 0.88330002E+02  0.17676E-04
 0.88379997E+02  0.12286E-04
 0.88430000E+02  0.75280E-05
 0.88480003E+02  0.83757E-05
 0.88529999E+02  0.16274E-04
 0.88580002E+02  0.27635E-04
 0.88629997E+02  0.39782E-04
 0.88680000E+02  0.50233E-04
 0.88730003E+02  0.49825E-04
 0.88779999E+02  0.30921E-04
 0.88830002E+02 -0.37859E-05
 0.88879997E+02 -0.42604E-04
 0.88930000E+02 -0.75709E-04
 0.88980003E+02 -0.98332E-04
 0.89029999E+02 -0.10687E-03
 0.89080002E+02 -0.99426E-04
 0.89129997E+02 -0.81362E-04
 0.89180000E+02 -0.60637E-04
 0.89230003E+02 -0.27178E-04
 0.89279999E+02  0.26631E-04
 0.89330002E+02  0.84324E-04
 0.89379997E+02  0.12818E-03
 0.89430000E+02  0.14194E-03
 0.89480003E+02  0.11489E-03
 0.89529999E+02  0.65597E-04
 0.89580002E+02  0.17691E-04
 0.89629997E+02 -0.25318E-04
 0.89680000E+02 -0.53120E-04
 0.89730003E+02 -0.53260E-04
 0.89779999E+02 -0.36786E-04
 0.89830002E+02 -0.18849E-04
 0.89879997E+02 -0.19544E-05
 0.89930000E+02  0.91323E-05
 0.89980003E+02  0.78348E-05
 0.90029999E+02 -0.37136E-05
 0.90080002E+02 -0.14772E-04
 0.90129997E+02 -0.17882E-04
 0.90180000E+02 -0.17548E-04
 0.90230003E+02 -0.13072E-04
 0.90279999E+02 -0.61801E-05
 0.90330002E+02 -0.29623E-05
 0.90379997E+02  0.20814E-05
 0.90430000E+02  0.95592E-05
 0.90480003E+02  0.14265E-04
 0.90529999E+02  0.16038E-04
 0.90580002E+02  0.15925E-04
 0.90629997E+02  0.84350E-05
 0.90680000E+02 -0.13576E-04
 0.90730003E+02 -0.39179E-04
 0.90779999E+02 -0.48418E-04
 0.90830002E+02 -0.33867E-04
 0.90879997E+02 -0.16381E-05
 0.90930000E+02  0.26191E-04
 0.90980003E+02  0.33895E-04
 0.91029999E+02  0.28397E-04
 0.91080002E+02  0.20141E-04
 0.91129997E+02  0.16268E-04
 0.91180000E+02  0.15538E-04
 0.91230003E+02  0.15633E-04
 0.91279999E+02  0.17119E-04
 0.91330002E+02  0.19491E-04
 0.91379997E+02  0.21186E-04
 0.91430000E+02  0.12442E-04
 0.91480003E+02 -0.12244E-04
 0.91529999E+02 -0.45542E-04
 0.91580002E+02 -0.72669E-04
 0.91629997E+02 -0.84263E-04
 0.91680000E+02 -0.76899E-04
 0.91730003E+02 -0.45120E-04
 0.91779999E+02  0.48080E-05
 0.91830002E+02  0.58331E-04
 0.91879997E+02  0.99914E-04
 0.91930000E+02  0.11044E-03
 0.91980003E+02  0.82781E-04
 0.92029999E+02  0.33185E-04
 0.92080002E+02 -0.12166E-04
 0.92129997E+02 -0.38164E-04
 0.92180000E+02 -0.44116E-04
 0.92230003E+02 -0.33839E-04
 0.92279999E+02 -0.12991E-04
 0.92330002E+02  0.61979E-05
 0.92379997E+02  0.10892E-04
 0.92430000E+02 -0.23001E-05
 0.92480003E+02 -0.26768E-04
 0.92529999E+02 -0.48440E-04
 0.92580002E+02 -0.54675E-04
 0.92629997E+02 -0.43585E-04
 0.92680000E+02 -0.23939E-04
 0.92730003E+02 -0.35906E-05
 0.92779999E+02  0.16983E-04
 0.92830002E+02  0.35129E-04
 0.92879997E+02  0.47470E-04
 0.92930000E+02  0.55137E-04
 0.92980003E+02  0.57930E-04
 0.93029999E+02  0.54893E-04
 0.93080002E+02  0.43631E-04
 0.93129997E+02  0.26537E-04
 0.93180000E+02  0.10208E-04
 0.93230003E+02 -0.12043E-04
 0.93279999E+02 -0.41654E-04
 0.93330002E+02 -0.60854E-04
 0.93379997E+02 -0.61299E-04
 0.93430000E+02 -0.47995E-04
 0.93480003E+02 -0.26335E-04
 0.93529999E+02 -0.72045E-05
 0.93580002E+02  0.12165E-05
 0.93629997E+02  0.34535E-05
 0.93680000E+02  0.74242E-05
 0.93730003E+02  0.15487E-04
 0.93779999E+02  0.24862E-04
 0.93830002E+02  0.34010E-04
 0.93879997E+02  0.43752E-04
 0.93930000E+02  0.50594E-04
 0.93980003E+02  0.48759E-04
 0.94029999E+02  0.38527E-04
 0.94080002E+02  0.18679E-04
 0.94129997E+02 -0.14294E-04
 0.94180000E+02 -0.50687E-04
 0.94230003E+02 -0.74588E-04
 0.94279999E+02 -0.80881E-04
 0.94330002E+02 -0.75811E-04
 0.94379997E+02 -0.70047E-04
 0.94430000E+02 -0.70050E-04
 0.94480003E+02 -0.68785E-04
 0.94529999E+02 -0.53598E-04
 0.94580002E+02 -0.26909E-04
 0.94629997E+02  0.30435E-05
 0.94680000E+02  0.34359E-04
 0.94730003E+02  0.63526E-04
 0.94779999E+02  0.87455E-04
 0.94830002E+02  0.10470E-03
 0.94879997E+02  0.11321E-03
 0.94930000E+02  0.10850E-03
 0.94980003E+02  0.87494E-04
 0.95029999E+02  0.55469E-04
 0.95080002E+02  0.21708E-04
 0.95129997E+02 -0.66336E-05
 0.95180000E+02 -0.27277E-04
 0.95230003E+02 -0.39303E-04
 0.95279999E+02 -0.43697E-04
 0.95330002E+02 -0.42188E-04
 0.95379997E+02 -0.35037E-04
 0.95430000E+02 -0.24718E-04
 0.95480003E+02 -0.13907E-04
 0.95529999E+02 -0.87423E-05
 0.95580002E+02 -0.15281E-04
 0.95629997E+02 -0.32988E-04
 0.95680000E+02 -0.50116E-04
 0.95730003E+02 -0.52696E-04
 0.95779999E+02 -0.40414E-04
 0.95830002E+02 -0.14595E-04
 0.95879997E+02  0.19681E-04
 0.95930000E+02  0.51259E-04
 0.95980003E+02  0.71191E-04
 0.96029999E+02  0.70888E-04
 0.96080002E+02  0.47830E-04
 0.96129997E+02  0.94788E-05
 0.96180000E+02 -0.27860E-04
 0.96230003E+02 -0.52714E-04
 0.96279999E+02 -0.60948E-04
 0.96330002E+02 -0.47429E-04
 0.96379997E+02 -0.17839E-04
 0.96430000E+02  0.10666E-04
 0.96480003E+02  0.23999E-04
 0.96529999E+02  0.16066E-04
 0.96580002E+02 -0.81427E-05
 0.96629997E+02 -0.34476E-04
 0.96680000E+02 -0.48214E-04
 0.96730003E+02 -0.43103E-04
 0.96779999E+02 -0.24508E-04
 0.96830002E+02  0.92783E-06
 0.96879997E+02  0.30551E-04
 0.96930000E+02  0.59863E-04
 0.96980003E+02  0.77673E-04
 0.97029999E+02  0.75837E-04
 0.97080002E+02  0.56570E-04
 0.97129997E+02  0.24365E-04
 0.97180000E+02 -0.11774E-04
 0.97230003E+02 -0.36297E-04
 0.97279999E+02 -0.40853E-04
 0.97330002E+02 -0.31623E-04
 0.97379997E+02 -0.20723E-04
 0.97430000E+02 -0.16331E-04
 0.97480003E+02 -0.15776E-04
 0.97529999E+02 -0.11891E-04
 0.97580002E+02 -0.38839E-05
 0.97629997E+02  0.50623E-05
 0.97680000E+02  0.11066E-04
 0.97730003E+02  0.12559E-04
 0.97779999E+02  0.11677E-04
 0.97830002E+02  0.14902E-04
 0.97879997E+02  0.23367E-04
 0.97930000E+02  0.26409E-04
 0.97980003E+02  0.17765E-04
 0.98029999E+02 -0.86879E-06
 0.98080002E+02 -0.21601E-04
 0.98129997E+02 -0.33392E-04
 0.98180000E+02 -0.31094E-04
 0.98230003E+02 -0.17351E-04
 0.98279999E+02 -0.30809E-05
 0.98330002E+02  0.42610E-05
 0.98379997E+02  0.58887E-05
 0.98430000E+02  0.38835E-05
 0.98480003E+02 -0.50587E-07
 0.98529999E+02 -0.42211E-05
 0.98580002E+02 -0.86339E-05
 0.98629997E+02 -0.94301E-05
 0.98680000E+02  0.95510E-06
 0.98730003E+02  0.18069E-04
 0.98779999E+02  0.29439E-04
 0.98830002E+02  0.29250E-04
 0.98879997E+02  0.19683E-04
 0.98930000E+02  0.62701E-05
 0.98980003E+02 -0.71897E-05
 0.99029999E+02 -0.17466E-04
 0.99080002E+02 -0.22508E-04
 0.99129997E+02 -0.23193E-04
 0.99180000E+02 -0.23130E-04
 0.99230003E+02 -0.23973E-04
 0.99279999E+02 -0.23751E-04
 0.99330002E+02 -0.21007E-04
 0.99379997E+02 -0.15991E-04
 0.99430000E+02 -0.11150E-04
 0.99480003E+02 -0.32219E-05
 0.99529999E+02  0.10375E-04
 0.99580002E+02  0.22874E-04
 0.99629997E+02  0.29640E-04
 0.99680000E+02  0.31765E-04
 0.99730003E+02  0.31349E-04
 0.99779999E+02  0.27337E-04
 0.99830002E+02  0.21935E-04
 0.99879997E+02  0.18886E-04
 0.99930000E+02  0.17513E-04
 0.99980003E+02  0.16296E-04
 0.10003000E+03  0.10637E-04
 0.10008000E+03  0.13690E-05
 0.10013000E+03 -0.56263E-05
 0.10018000E+03 -0.90146E-05
 0.10023000E+03 -0.11483E-04
 0.10028000E+03 -0.19344E-04
 0.10033000E+03 -0.34777E-04
 0.10038000E+03 -0.49352E-04
 0.10043000E+03 -0.54522E-04
 0.10048000E+03 -0.50374E-04
 0.10053000E+03 -0.38073E-04
 0.10058000E+03 -0.19730E-04
 0.10063000E+03  0.54684E-06
 0.10068000E+03  0.20430E-04
 0.10073000E+03  0.37197E-04
 0.10078000E+03  0.49356E-04
 0.10083000E+03  0.55262E-04
 0.10088000E+03  0.52573E-04
 0.10093000E+03  0.42365E-04
 0.10098000E+03  0.27792E-04
 0.10103000E+03  0.11922E-04
 0.10108000E+03  0.30389E-06
 0.10113000E+03 -0.20096E-06
 0.10118000E+03  0.82255E-05
 0.10123000E+03  0.14978E-04
 0.10128000E+03  0.14949E-04
 0.10133000E+03  0.66475E-05
 0.10138000E+03 -0.13084E-04
 0.10143000E+03 -0.39510E-04
 0.10148000E+03 -0.59746E-04
 0.10153000E+03 -0.63772E-04
 0.10158000E+03 -0.51668E-04
 0.10163000E+03 -0.29520E-04
 0.10168000E+03 -0.46153E-05
 0.10173000E+03  0.12885E-04
 0.10178000E+03  0.17794E-04
 0.10183000E+03  0.14060E-04
 0.10188000E+03  0.49861E-05
 0.10193000E+03 -0.55880E-05
 0.10198000E+03 -0.62481E-05
 0.10203000E+03  0.65610E-05
 0.10208000E+03  0.23091E-04
 0.10213000E+03  0.34650E-04
 0.10218000E+03  0.35286E-04
 0.10223000E+03  0.24722E-04
 0.10228000E+03  0.79125E-05
 0.10233000E+03 -0.10825E-04
 0.10238000E+03 -0.25222E-04
 0.10243000E+03 -0.27462E-04
 0.10248000E+03 -0.16191E-04
 0.10253000E+03  0.12463E-05
 0.10258000E+03  0.14839E-04
 0.10263000E+03  0.16182E-04
 0.10268000E+03  0.43889E-05
 0.10273000E+03 -0.12759E-04
 0.10278000E+03 -0.26027E-04
 0.10283000E+03 -0.28690E-04
 0.10288000E+03 -0.17996E-04
 0.10293000E+03  0.17382E-05
 0.10298000E+03  0.22789E-04
 0.10303000E+03  0.37278E-04
 0.10308000E+03  0.40186E-04
 0.10313000E+03  0.33865E-04
 0.10318000E+03  0.22757E-04
 0.10323000E+03  0.96178E-05
 0.10328000E+03 -0.40774E-05
 0.10333000E+03 -0.14307E-04
 0.10338000E+03 -0.18628E-04
 0.10343000E+03 -0.20833E-04
 0.10348000E+03 -0.24163E-04
 0.10353000E+03 -0.29284E-04
 0.10358000E+03 -0.32358E-04
 0.10363000E+03 -0.32108E-04
 0.10368000E+03 -0.30149E-04
 0.10373000E+03 -0.24603E-04
 0.10378000E+03 -0.16596E-04
 0.10383000E+03 -0.63622E-05
 0.10388000E+03  0.63490E-05
 0.10393000E+03  0.20514E-04
 0.10398000E+03  0.33886E-04
 0.10403000E+03  0.40571E-04
 0.10408000E+03  0.39309E-04
 0.10413000E+03  0.31362E-04
 0.10418000E+03  0.17565E-04
 0.10423000E+03  0.22891E-05
 0.10428000E+03 -0.91162E-05
 0.10433000E+03 -0.13756E-04
 0.10438000E+03 -0.12344E-04
 0.10443000E+03 -0.91373E-05
 0.10448000E+03 -0.59517E-05
 0.10453000E+03 -0.78169E-06
 0.10458000E+03  0.53964E-05
 0.10463000E+03  0.11211E-04
 0.10468000E+03  0.14102E-04
 0.10473000E+03  0.10746E-04
 0.10478000E+03  0.50775E-05
 0.10483000E+03  0.12098E-05
 0.10488000E+03  0.50034E-06
 0.10493000E+03  0.45247E-05
 0.10498000E+03  0.95446E-05
 0.10503000E+03  0.99140E-05
 0.10508000E+03  0.41242E-05
 0.10513000E+03 -0.65623E-05
 0.10518000E+03 -0.19437E-04
 0.10523000E+03 -0.29234E-04
 0.10528000E+03 -0.32648E-04
 0.10533000E+03 -0.32275E-04
 0.10538000E+03 -0.30963E-04
 0.10543000E+03 -0.28371E-04
 0.10548000E+03 -0.23041E-04
 0.10553000E+03 -0.14937E-04
 0.10558000E+03 -0.43604E-05
 0.10563000E+03  0.73337E-05
 0.10568000E+03  0.16788E-04
 0.10573000E+03  0.24428E-04
 0.10578000E+03  0.29836E-04
 0.10583000E+03  0.29246E-04
 0.10588000E+03  0.25281E-04
 0.10593000E+03  0.21206E-04
 0.10598000E+03  0.16232E-04
 0.10603000E+03  0.11733E-04
 0.10608000E+03  0.10066E-04
 0.10613000E+03  0.11278E-04
 0.10618000E+03  0.13156E-04
 0.10623000E+03  0.13381E-04
 0.10628000E+03  0.11479E-04
 0.10633000E+03  0.79830E-05
 0.10638000E+03  0.19529E-05
 0.10643000E+03 -0.46204E-05
 0.10648000E+03 -0.82791E-05
 0.10653000E+03 -0.11164E-04
 0.10658000E+03 -0.14799E-04
 0.10663000E+03 -0.16700E-04
 0.10668000E+03 -0.16148E-04
 0.10673000E+03 -0.14628E-04
 0.10678000E+03 -0.11409E-04
 0.10683000E+03 -0.61042E-05
 0.10688000E+03 -0.26126E-06
 0.10693000E+03  0.53569E-05
 0.10698000E+03  0.98650E-05
 0.10703000E+03  0.10816E-04
 0.10708000E+03  0.36489E-05
 0.10713000E+03 -0.12709E-04
 0.10718000E+03 -0.32879E-04
 0.10723000E+03 -0.47602E-04
 0.10728000E+03 -0.48932E-04
 0.10733000E+03 -0.37853E-04
 0.10738000E+03 -0.19714E-04
 0.10743000E+03  0.10314E-05
 0.10748000E+03  0.21166E-04
 0.10753000E+03  0.40180E-04
 0.10758000E+03  0.54832E-04
 0.10763000E+03  0.59834E-04
 0.10768000E+03  0.54835E-04
 0.10773000E+03  0.42451E-04
 0.10778000E+03  0.25365E-04
 0.10783000E+03  0.84646E-05
 0.10788000E+03 -0.38785E-05
 0.10793000E+03 -0.11717E-04
 0.10798000E+03 -0.15788E-04
 0.10803000E+03 -0.17690E-04
 0.10808000E+03 -0.20017E-04
 0.10813000E+03 -0.22848E-04
 0.10818000E+03 -0.28472E-04
 0.10823000E+03 -0.37716E-04
 0.10828000E+03 -0.43841E-04
 0.10833000E+03 -0.43678E-04
 0.10838000E+03 -0.40051E-04
 0.10843000E+03 -0.32681E-04
 0.10848000E+03 -0.19439E-04
 0.10853000E+03 -0.18927E-06
 0.10858000E+03  0.21916E-04
 0.10863000E+03  0.41310E-04
 0.10868000E+03  0.54816E-04
 0.10873000E+03  0.63778E-04
 0.10878000E+03  0.68358E-04
 0.10883000E+03  0.63754E-04
 0.10888000E+03  0.47661E-04
 0.10893000E+03  0.24109E-04
 0.10898000E+03 -0.10953E-05
 0.10903000E+03 -0.23736E-04
 0.10908000E+03 -0.41104E-04
 0.10913000E+03 -0.51270E-04
 0.10918000E+03 -0.51788E-04
 0.10923000E+03 -0.41606E-04
 0.10928000E+03 -0.26476E-04
 0.10933000E+03 -0.13657E-04
 0.10938000E+03 -0.50370E-05
 0.10943000E+03 -0.29020E-06
 0.10948000E+03  0.69532E-06
 0.10953000E+03  0.11472E-08
 0.10958000E+03  0.25680E-05
 0.10963000E+03  0.11398E-04
 0.10968000E+03  0.23938E-04
 0.10973000E+03  0.34811E-04
 0.10978000E+03  0.39393E-04
 0.10983000E+03  0.34857E-04
 0.10988000E+03  0.20256E-04
 0.10993000E+03 -0.70947E-06
 0.10998000E+03 -0.18847E-04
 0.11003000E+03 -0.26529E-04
 0.11008000E+03 -0.22575E-04
 0.11013000E+03 -0.10419E-04
 0.11018000E+03  0.45489E-05
 0.11023000E+03  0.16957E-04
 0.11028000E+03  0.20593E-04
 0.11033000E+03  0.11920E-04
 0.11038000E+03 -0.41484E-05
 0.11043000E+03 -0.18648E-04
 0.11048000E+03 -0.25226E-04
 0.11053000E+03 -0.22382E-04
 0.11058000E+03 -0.13340E-04
 0.11063000E+03 -0.22998E-05
 0.11068000E+03  0.54110E-05
 0.11073000E+03  0.45686E-05
 0.11078000E+03 -0.24354E-05
 0.11083000E+03 -0.96628E-05
 0.11088000E+03 -0.13975E-04
 0.11093000E+03 -0.13734E-04
 0.11098000E+03 -0.84706E-05
 0.11103000E+03  0.51571E-06
 0.11108000E+03  0.96519E-05
 0.11113000E+03  0.15183E-04
 0.11118000E+03  0.14926E-04
 0.11123000E+03  0.99737E-05
 0.11128000E+03  0.48683E-05
 0.11133000E+03  0.42149E-05
 0.11138000E+03  0.80204E-05
 0.11143000E+03  0.11115E-04
 0.11148000E+03  0.10344E-04
 0.11153000E+03  0.56832E-05
 0.11158000E+03 -0.29181E-05
 0.11163000E+03 -0.13308E-04
 0.11168000E+03 -0.21320E-04
 0.11173000E+03 -0.25447E-04
 0.11178000E+03 -0.25850E-04
 0.11183000E+03 -0.20095E-04
 0.11188000E+03 -0.77444E-05
 0.11193000E+03  0.82235E-05
 0.11198000E+03  0.23281E-04
 0.11203000E+03  0.32254E-04
 0.11208000E+03  0.32541E-04
 0.11213000E+03  0.23551E-04
 0.11218000E+03  0.92584E-05
 0.11223000E+03 -0.50546E-05
 0.11228000E+03 -0.16247E-04
 0.11233000E+03 -0.21489E-04
 0.11238000E+03 -0.22781E-04
 0.11243000E+03 -0.24208E-04
 0.11248000E+03 -0.26463E-04
 0.11253000E+03 -0.26342E-04
 0.11258000E+03 -0.21089E-04
 0.11263000E+03 -0.13740E-04
 0.11268000E+03 -0.73375E-05
 0.11273000E+03 -0.18321E-06
 0.11278000E+03  0.10035E-04
 0.11283000E+03  0.23965E-04
 0.11288000E+03  0.38992E-04
 0.11293000E+03  0.49698E-04
 0.11298000E+03  0.54104E-04
 0.11303000E+03  0.52205E-04
 0.11308000E+03  0.43379E-04
 0.11313000E+03  0.29950E-04
 0.11318000E+03  0.14519E-04
 0.11323000E+03 -0.21490E-05
 0.11328000E+03 -0.19041E-04
 0.11333000E+03 -0.34918E-04
 0.11338000E+03 -0.49347E-04
 0.11343000E+03 -0.60899E-04
 0.11348000E+03 -0.67682E-04
 0.11353000E+03 -0.68429E-04
 0.11358000E+03 -0.60851E-04
 0.11363000E+03 -0.45718E-04
 0.11368000E+03 -0.25748E-04
 0.11373000E+03 -0.21608E-05
 0.11378000E+03  0.22807E-04
 0.11383000E+03  0.48052E-04
 0.11388000E+03  0.71192E-04
 0.11393000E+03  0.85604E-04
 0.11398000E+03  0.88811E-04
 0.11403000E+03  0.83070E-04
 0.11408000E+03  0.68278E-04
 0.11413000E+03  0.44832E-04
 0.11418000E+03  0.15058E-04
 0.11423000E+03 -0.18251E-04
 0.11428000E+03 -0.48622E-04
 0.11433000E+03 -0.69443E-04
 0.11438000E+03 -0.77870E-04
 0.11443000E+03 -0.73767E-04
 0.11448000E+03 -0.60698E-04
 0.11453000E+03 -0.42448E-04
 0.11458000E+03 -0.21894E-04
 0.11463000E+03 -0.47031E-05
 0.11468000E+03  0.74421E-05
 0.11473000E+03  0.17170E-04
 0.11478000E+03  0.25548E-04
 0.11483000E+03  0.33451E-04
 0.11488000E+03  0.39740E-04
 0.11493000E+03  0.43705E-04
 0.11498000E+03  0.44212E-04
 0.11503000E+03  0.37500E-04
 0.11508000E+03  0.22927E-04
 0.11513000E+03  0.44427E-05
 0.11518000E+03 -0.11284E-04
 0.11523000E+03 -0.20465E-04
 0.11528000E+03 -0.23312E-04
 0.11533000E+03 -0.21889E-04
 0.11538000E+03 -0.19480E-04
 0.11543000E+03 -0.15547E-04
 0.11548000E+03 -0.11009E-04
 0.11553000E+03 -0.99041E-05
 0.11558000E+03 -0.12745E-04
 0.11563000E+03 -0.18663E-04
 0.11568000E+03 -0.24173E-04
 0.11573000E+03 -0.23815E-04
 0.11578000E+03 -0.15391E-04
 0.11583000E+03 -0.22465E-05
 0.11588000E+03  0.10319E-04
 0.11593000E+03  0.19420E-04
 0.11598000E+03  0.23772E-04
 0.11603000E+03  0.23696E-04
 0.11608000E+03  0.20745E-04
 0.11613000E+03  0.17229E-04
 0.11618000E+03  0.13370E-04
 0.11623000E+03  0.72934E-05
 0.11628000E+03 -0.17058E-05
 0.11633000E+03 -0.11521E-04
 0.11638000E+03 -0.17255E-04
 0.11643000E+03 -0.16079E-04
 0.11648000E+03 -0.10373E-04
 0.11653000E+03 -0.46799E-05
 0.11658000E+03 -0.85650E-06
 0.11663000E+03  0.22270E-05
 0.11668000E+03  0.67245E-05
 0.11673000E+03  0.13186E-04
 0.11678000E+03  0.18953E-04
 0.11683000E+03  0.20227E-04
 0.11688000E+03  0.14931E-04
 0.11693000E+03  0.47993E-05
 0.11698000E+03 -0.59356E-05
 0.11703000E+03 -0.14329E-04
 0.11708000E+03 -0.20622E-04
 0.11713000E+03 -0.25515E-04
 0.11718000E+03 -0.28338E-04
 0.11723000E+03 -0.27822E-04
 0.11728000E+03 -0.21339E-04
 0.11733000E+03 -0.86634E-05
 0.11738000E+03  0.47316E-05
 0.11743000E+03  0.13088E-04
 0.11748000E+03  0.15313E-04
 0.11753000E+03  0.14246E-04
 0.11758000E+03  0.12876E-04
 0.11763000E+03  0.12843E-04
 0.11768000E+03  0.13736E-04
 0.11773000E+03  0.13186E-04
 0.11778000E+03  0.10124E-04
 0.11783000E+03  0.58497E-05
 0.11788000E+03  0.31643E-05
 0.11793000E+03  0.24249E-05
 0.11798000E+03  0.81792E-06
 0.11803000E+03 -0.31304E-05
 0.11808000E+03 -0.93917E-05
 0.11813000E+03 -0.16314E-04
 0.11818000E+03 -0.20400E-04
 0.11823000E+03 -0.20108E-04
 0.11828000E+03 -0.16741E-04
 0.11833000E+03 -0.11163E-04
 0.11838000E+03 -0.40498E-05
 0.11843000E+03  0.28194E-05
 0.11848000E+03  0.93669E-05
 0.11853000E+03  0.16838E-04
 0.11858000E+03  0.24374E-04
 0.11863000E+03  0.29352E-04
 0.11868000E+03  0.31634E-04
 0.11873000E+03  0.31859E-04
 0.11878000E+03  0.29271E-04
 0.11883000E+03  0.24597E-04
 0.11888000E+03  0.17636E-04
 0.11893000E+03  0.90575E-05
 0.11898000E+03  0.22529E-06
 0.11903000E+03 -0.98022E-05
 0.11908000E+03 -0.21081E-04
 0.11913000E+03 -0.32630E-04
 0.11918000E+03 -0.42723E-04
 0.11923000E+03 -0.48097E-04
 0.11928000E+03 -0.45970E-04
 0.11933000E+03 -0.36399E-04
 0.11938000E+03 -0.20313E-04
 0.11943000E+03 -0.14081E-05
 0.11948000E+03  0.12875E-04
 0.11953000E+03  0.18850E-04
 0.11958000E+03  0.18910E-04
 0.11963000E+03  0.16921E-04
 0.11968000E+03  0.14653E-04
 0.11973000E+03  0.11680E-04
 0.11978000E+03  0.59387E-05
 0.11983000E+03 -0.28596E-05
 0.11988000E+03 -0.11056E-04
 0.11993000E+03 -0.15095E-04
 0.11998000E+03 -0.13552E-04
 0.12003000E+03 -0.71876E-05
 0.12008000E+03  0.14321E-05
 0.12013000E+03  0.98517E-05
 0.12018000E+03  0.16164E-04
 0.12023000E+03  0.19891E-04
 0.12028000E+03  0.20479E-04
 0.12033000E+03  0.16537E-04
 0.12038000E+03  0.79667E-05
 0.12043000E+03 -0.35159E-05
 0.12048000E+03 -0.13289E-04
 0.12053000E+03 -0.18590E-04
 0.12058000E+03 -0.20808E-04
 0.12063000E+03 -0.20802E-04
 0.12068000E+03 -0.17344E-04
 0.12073000E+03 -0.97761E-05
 0.12078000E+03 -0.85527E-06
 0.12083000E+03  0.62809E-05
 0.12088000E+03  0.10103E-04
 0.12093000E+03  0.11634E-04
 0.12098000E+03  0.13409E-04
 0.12103000E+03  0.14980E-04
 0.12108000E+03  0.14473E-04
 0.12113000E+03  0.10967E-04
 0.12118000E+03  0.48818E-05
 0.12123000E+03 -0.23156E-05
 0.12128000E+03 -0.88723E-05
 0.12133000E+03 -0.11514E-04
 0.12138000E+03 -0.81701E-05
 0.12143000E+03 -0.96517E-06
 0.12148000E+03  0.71611E-05
 0.12153000E+03  0.13294E-04
 0.12158000E+03  0.14806E-04
 0.12163000E+03  0.12939E-04
 0.12168000E+03  0.10821E-04
 0.12173000E+03  0.10149E-04
 0.12178000E+03  0.10237E-04
 0.12183000E+03  0.82333E-05
 0.12188000E+03  0.32003E-05
 0.12193000E+03 -0.28563E-05
 0.12198000E+03 -0.78564E-05
 0.12203000E+03 -0.11477E-04
 0.12208000E+03 -0.13636E-04
 0.12213000E+03 -0.12689E-04
 0.12218000E+03 -0.86880E-05
 0.12223000E+03 -0.36700E-05
 0.12228000E+03  0.44190E-06
 0.12233000E+03  0.93506E-06
 0.12238000E+03 -0.28704E-05
 0.12243000E+03 -0.78997E-05
 0.12248000E+03 -0.12671E-04
 0.12253000E+03 -0.16678E-04
 0.12258000E+03 -0.16069E-04
 0.12263000E+03 -0.90748E-05
 0.12268000E+03  0.42703E-06
 0.12273000E+03  0.82886E-05
 0.12278000E+03  0.13396E-04
 0.12283000E+03  0.15690E-04
 0.12288000E+03  0.15135E-04
 0.12293000E+03  0.13074E-04
 0.12298000E+03  0.11422E-04
 0.12303000E+03  0.11441E-04
 0.12308000E+03  0.12533E-04
 0.12313000E+03  0.12409E-04
 0.12318000E+03  0.93068E-05
 0.12323000E+03  0.27842E-05
 0.12328000E+03 -0.52549E-05
 0.12333000E+03 -0.13520E-04
 0.12338000E+03 -0.22371E-04
 0.12343000E+03 -0.30034E-04
 0.12348000E+03 -0.34191E-04
 0.12353000E+03 -0.34879E-04
 0.12358000E+03 -0.32450E-04
 0.12363000E+03 -0.25176E-04
 0.12368000E+03 -0.13730E-04
 0.12373000E+03 -0.20752E-05
 0.12378000E+03  0.64064E-05
 0.12383000E+03  0.99956E-05
 0.12388000E+03  0.10442E-04
 0.12393000E+03  0.96883E-05
 0.12398000E+03  0.81293E-05
 0.12403000E+03  0.73876E-05
 0.12408000E+03  0.91799E-05
 0.12413000E+03  0.14257E-04
 0.12418000E+03  0.21279E-04
 0.12423000E+03  0.26052E-04
 0.12428000E+03  0.25604E-04
 0.12433000E+03  0.21557E-04
 0.12438000E+03  0.16300E-04
 0.12443000E+03  0.10498E-04
 0.12448000E+03  0.54094E-05
 0.12453000E+03  0.13899E-05
 0.12458000E+03 -0.32420E-05
 0.12463000E+03 -0.90657E-05
 0.12468000E+03 -0.12771E-04
 0.12473000E+03 -0.11614E-04
 0.12478000E+03 -0.10267E-04
 0.12483000E+03 -0.13397E-04
 0.12488000E+03 -0.19192E-04
 0.12493000E+03 -0.24252E-04
 0.12498000E+03 -0.26333E-04
 0.12503000E+03 -0.25274E-04
 0.12508000E+03 -0.21536E-04
 0.12513000E+03 -0.15006E-04
 0.12518000E+03 -0.52808E-05
 0.12523000E+03  0.71022E-05
 0.12528000E+03  0.19803E-04
 0.12533000E+03  0.30749E-04
 0.12538000E+03  0.38157E-04
 0.12543000E+03  0.40436E-04
 0.12548000E+03  0.37554E-04
 0.12553000E+03  0.31354E-04
 0.12558000E+03  0.23753E-04
 0.12563000E+03  0.15778E-04
 0.12568000E+03  0.78364E-05
 0.12573000E+03 -0.43894E-06
 0.12578000E+03 -0.86247E-05
 0.12583000E+03 -0.15332E-04
 0.12588000E+03 -0.19786E-04
 0.12593000E+03 -0.21953E-04
 0.12598000E+03 -0.22314E-04
 0.12603000E+03 -0.20669E-04
 0.12608000E+03 -0.16732E-04
 0.12613000E+03 -0.12115E-04
 0.12618000E+03 -0.87107E-05
 0.12623000E+03 -0.61811E-05
 0.12628000E+03 -0.18154E-05
 0.12633000E+03  0.56385E-05
 0.12638000E+03  0.14147E-04
 0.12643000E+03  0.21281E-04
 0.12648000E+03  0.25282E-04
 0.12653000E+03  0.24448E-04
 0.12658000E+03  0.19191E-04
 0.12663000E+03  0.12409E-04
 0.12668000E+03  0.65776E-05
 0.12673000E+03  0.19884E-05
 0.12678000E+03 -0.34606E-05
 0.12683000E+03 -0.10659E-04
 0.12688000E+03 -0.18711E-04
 0.12693000E+03 -0.25440E-04
 0.12698000E+03 -0.28318E-04
 0.12703000E+03 -0.28139E-04
 0.12708000E+03 -0.26297E-04
 0.12713000E+03 -0.23303E-04
 0.12718000E+03 -0.19793E-04
 0.12723000E+03 -0.15945E-04
 0.12728000E+03 -0.11309E-04
 0.12733000E+03 -0.48242E-05
 0.12738000E+03  0.32949E-05
 0.12743000E+03  0.11253E-04
 0.12748000E+03  0.18394E-04
 0.12753000E+03  0.24933E-04
 0.12758000E+03  0.28895E-04
 0.12763000E+03  0.27916E-04
 0.12768000E+03  0.22171E-04
 0.12773000E+03  0.13576E-04
 0.12778000E+03  0.43204E-05
 0.12783000E+03 -0.35970E-05
 0.12788000E+03 -0.85047E-05
 0.12793000E+03 -0.10911E-04
 0.12798000E+03 -0.12354E-04
 0.12803000E+03 -0.14172E-04
 0.12808000E+03 -0.17179E-04
 0.12813000E+03 -0.18727E-04
 0.12818001E+03 -0.16181E-04
 0.12823000E+03 -0.10504E-04
 0.12828000E+03 -0.32550E-05
 0.12833000E+03  0.44864E-05
 0.12838000E+03  0.11502E-04
 0.12843001E+03  0.17866E-04
 0.12848000E+03  0.23226E-04
 0.12853000E+03  0.25336E-04
 0.12858000E+03  0.23263E-04
 0.12863000E+03  0.17487E-04
 0.12868001E+03  0.97630E-05
 0.12873000E+03  0.23894E-05
 0.12878000E+03 -0.49891E-05
 0.12883000E+03 -0.13237E-04
 0.12888000E+03 -0.21268E-04
 0.12893001E+03 -0.26583E-04
 0.12898000E+03 -0.26455E-04
 0.12903000E+03 -0.20266E-04
 0.12908000E+03 -0.95896E-05
 0.12913000E+03  0.19637E-05
 0.12918001E+03  0.11064E-04
 0.12923000E+03  0.16509E-04
 0.12928000E+03  0.17506E-04
 0.12933000E+03  0.15187E-04
 0.12938000E+03  0.11950E-04
 0.12943001E+03  0.90051E-05
 0.12948000E+03  0.68103E-05
 0.12953000E+03  0.58828E-05
 0.12958000E+03  0.60282E-05
 0.12963000E+03  0.53378E-05
 0.12968001E+03  0.18132E-05
 0.12973000E+03 -0.52238E-05
 0.12978000E+03 -0.13902E-04
 0.12983000E+03 -0.20948E-04
 0.12988000E+03 -0.24386E-04
 0.12993001E+03 -0.24409E-04
 0.12998000E+03 -0.22156E-04
 0.13003000E+03 -0.16943E-04
 0.13008000E+03 -0.85712E-05
 0.13013000E+03  0.12244E-05
 0.13018001E+03  0.10885E-04
 0.13023000E+03  0.18821E-04
 0.13028000E+03  0.24416E-04
 0.13033000E+03  0.28276E-04
 0.13038000E+03  0.30042E-04
 0.13043001E+03  0.28217E-04
 0.13048000E+03  0.21727E-04
 0.13053000E+03  0.10730E-04
 0.13058000E+03 -0.24798E-05
 0.13063000E+03 -0.14173E-04
 0.13068001E+03 -0.21622E-04
 0.13073000E+03 -0.24069E-04
 0.13078000E+03 -0.22206E-04
 0.13083000E+03 -0.16959E-04
 0.13088000E+03 -0.97367E-05
 0.13093001E+03 -0.23877E-05
 0.13098000E+03  0.39156E-05
 0.13103000E+03  0.83407E-05
 0.13108000E+03  0.11220E-04
 0.13113000E+03  0.13372E-04
 0.13118001E+03  0.13964E-04
 0.13123000E+03  0.12569E-04
 0.13128000E+03  0.10531E-04
 0.13133000E+03  0.89782E-05
 0.13138000E+03  0.75886E-05
 0.13143001E+03  0.52843E-05
 0.13148000E+03  0.14472E-05
 0.13153000E+03 -0.40995E-05
 0.13158000E+03 -0.11533E-04
 0.13163000E+03 -0.20313E-04
 0.13168001E+03 -0.28023E-04
 0.13173000E+03 -0.31877E-04
 0.13178000E+03 -0.30589E-04
 0.13183000E+03 -0.23189E-04
 0.13188000E+03 -0.10278E-04
 0.13193001E+03  0.49178E-05
 0.13198000E+03  0.18126E-04
 0.13203000E+03  0.26047E-04
 0.13208000E+03  0.28159E-04
 0.13213000E+03  0.25153E-04
 0.13218001E+03  0.18406E-04
 0.13223000E+03  0.10099E-04
 0.13228000E+03  0.25734E-05
 0.13233000E+03 -0.37984E-05
 0.13238000E+03 -0.10192E-04
 0.13243001E+03 -0.15576E-04
 0.13248000E+03 -0.18578E-04
 0.13253000E+03 -0.18388E-04
 0.13258000E+03 -0.14480E-04
 0.13263000E+03 -0.79040E-05
 0.13268001E+03 -0.76948E-06
 0.13273000E+03  0.48016E-05
 0.13278000E+03  0.79053E-05
 0.13283000E+03  0.90027E-05
 0.13288000E+03  0.92687E-05
 0.13293001E+03  0.98138E-05
 0.13298000E+03  0.10686E-04
 0.13303000E+03  0.10766E-04
 0.13308000E+03  0.98060E-05
 0.13313000E+03  0.79018E-05
 0.13318001E+03  0.47416E-05
 0.13323000E+03  0.12063E-05
 0.13328000E+03 -0.19123E-05
 0.13333000E+03 -0.42997E-05
 0.13338000E+03 -0.62260E-05
 0.13343001E+03 -0.82708E-05
 0.13348000E+03 -0.94145E-05
 0.13353000E+03 -0.83286E-05
 0.13358000E+03 -0.46130E-05
 0.13363000E+03  0.31357E-06
 0.13368001E+03  0.37570E-05
 0.13373000E+03  0.45337E-05
 0.13378000E+03  0.31325E-05
 0.13383000E+03  0.41468E-06
 0.13388000E+03 -0.30520E-05
 0.13393001E+03 -0.58858E-05
 0.13398000E+03 -0.71128E-05
 0.13403000E+03 -0.73201E-05
 0.13408000E+03 -0.61473E-05
 0.13413000E+03 -0.29190E-05
 0.13418001E+03  0.11913E-05
 0.13423000E+03  0.42075E-05
 0.13428000E+03  0.52465E-05
 0.13433000E+03  0.47445E-05
 0.13438000E+03  0.42136E-05
 0.13443001E+03  0.43776E-05
 0.13448000E+03  0.44298E-05
 0.13453000E+03  0.40817E-05
 0.13458000E+03  0.34943E-05
 0.13463000E+03  0.27984E-05
 0.13468001E+03  0.15848E-05
 0.13473000E+03 -0.16122E-05
 0.13478000E+03 -0.70817E-05
 0.13483000E+03 -0.12989E-04
 0.13488000E+03 -0.17504E-04
 0.13493001E+03 -0.19270E-04
 0.13498000E+03 -0.17068E-04
 0.13503000E+03 -0.10963E-04
 0.13508000E+03 -0.22870E-05
 0.13513000E+03  0.72850E-05
 0.13518001E+03  0.16214E-04
 0.13523000E+03  0.23566E-04
 0.13528000E+03  0.28372E-04
 0.13533000E+03  0.28788E-04
 0.13538000E+03  0.23969E-04
 0.13543001E+03  0.14764E-04
 0.13548000E+03  0.26955E-05
 0.13553000E+03 -0.96672E-05
 0.13558000E+03 -0.19706E-04
 0.13563000E+03 -0.25414E-04
 0.13568001E+03 -0.26108E-04
 0.13573000E+03 -0.23001E-04
 0.13578000E+03 -0.17420E-04
 0.13583000E+03 -0.10620E-04
 0.13588000E+03 -0.39244E-05
 0.13593001E+03  0.19370E-05
 0.13598000E+03  0.67442E-05
 0.13603000E+03  0.10602E-04
 0.13608000E+03  0.12655E-04
 0.13613000E+03  0.12089E-04
 0.13618001E+03  0.97260E-05
 0.13623000E+03  0.63057E-05
 0.13628000E+03  0.40782E-05
 0.13633000E+03  0.53127E-05
 0.13638000E+03  0.82563E-05
 0.13643001E+03  0.11807E-04
 0.13648000E+03  0.15132E-04
 0.13653000E+03  0.15272E-04
 0.13658000E+03  0.11679E-04
 0.13663000E+03  0.50147E-05
 0.13668001E+03 -0.38479E-05
 0.13673000E+03 -0.11471E-04
 0.13678000E+03 -0.15716E-04
 0.13683000E+03 -0.18007E-04
 0.13688000E+03 -0.19126E-04
 0.13693001E+03 -0.19408E-04
 0.13698000E+03 -0.19380E-04
 0.13703000E+03 -0.18308E-04
 0.13708000E+03 -0.14602E-04
 0.13713000E+03 -0.79489E-05
 0.13718001E+03 -0.11274E-05
 0.13723000E+03  0.52400E-05
 0.13728000E+03  0.11782E-04
 0.13733000E+03  0.17110E-04
 0.13738000E+03  0.21290E-04
 0.13743001E+03  0.24732E-04
 0.13748000E+03  0.27020E-04
 0.13753000E+03  0.25596E-04
 0.13758000E+03  0.19897E-04
 0.13763000E+03  0.13781E-04
 0.13768001E+03  0.83335E-05
 0.13773000E+03  0.33826E-05
 0.13778000E+03 -0.18786E-05
 0.13783000E+03 -0.62652E-05
 0.13788000E+03 -0.85047E-05
 0.13793001E+03 -0.10082E-04
 0.13798000E+03 -0.10052E-04
 0.13803000E+03 -0.11413E-04
 0.13808000E+03 -0.15007E-04
 0.13813000E+03 -0.17920E-04
 0.13818001E+03 -0.17739E-04
 0.13823000E+03 -0.12562E-04
 0.13828000E+03 -0.61811E-05
 0.13833000E+03 -0.11916E-06
 0.13838000E+03  0.40472E-05
 0.13843001E+03  0.42106E-05
 0.13848000E+03  0.18318E-05
 0.13853000E+03 -0.14582E-05
 0.13858000E+03 -0.32111E-05
 0.13863000E+03 -0.39502E-05
 0.13868001E+03 -0.51050E-05
 0.13873000E+03 -0.55794E-05
 0.13878000E+03 -0.42694E-05
 0.13883000E+03 -0.50123E-06
 0.13888000E+03  0.36962E-05
 0.13893001E+03  0.48921E-05
 0.13898000E+03  0.35260E-05
 0.13903000E+03  0.25432E-05
 0.13908000E+03  0.44494E-05
 0.13913000E+03  0.73142E-05
 0.13918001E+03  0.80476E-05
 0.13923000E+03  0.63000E-05
 0.13928000E+03  0.17859E-05
 0.13933000E+03 -0.54971E-05
 0.13938000E+03 -0.12928E-04
 0.13943001E+03 -0.18026E-04
 0.13948000E+03 -0.22856E-04
 0.13953000E+03 -0.25587E-04
 0.13958000E+03 -0.26130E-04
 0.13963000E+03 -0.25231E-04
 0.13968001E+03 -0.19588E-04
 0.13973000E+03 -0.91431E-05
 0.13978000E+03  0.46975E-05
 0.13983000E+03  0.17184E-04
 0.13988000E+03  0.27154E-04
 0.13993001E+03  0.33473E-04
 0.13998000E+03  0.33991E-04
 0.14003000E+03  0.30844E-04
 0.14008000E+03  0.24315E-04
 0.14013000E+03  0.17103E-04
 0.14018001E+03  0.10687E-04
 0.14023000E+03  0.34943E-05
 0.14028000E+03 -0.29818E-05
 0.14033000E+03 -0.79372E-05
 0.14038000E+03 -0.10475E-04
 0.14043001E+03 -0.10004E-04
 0.14048000E+03 -0.89254E-05
 0.14053000E+03 -0.75922E-05
 0.14058000E+03 -0.54267E-05
 0.14063000E+03 -0.17610E-05
 0.14068001E+03  0.30046E-05
 0.14073000E+03  0.58848E-05
 0.14078000E+03  0.59800E-05
 0.14083000E+03  0.39419E-05
 0.14088000E+03  0.81542E-06
 0.14093001E+03 -0.17619E-05
 0.14098000E+03 -0.28916E-05
 0.14103000E+03 -0.21647E-05
 0.14108000E+03  0.49945E-06
 0.14113000E+03  0.47815E-05
 0.14118001E+03  0.10038E-04
 0.14123000E+03  0.12604E-04
 0.14128000E+03  0.98573E-05
 0.14133000E+03  0.46766E-05
 0.14138000E+03 -0.52883E-06
 0.14143001E+03 -0.57208E-05
 0.14148000E+03 -0.10360E-04
 0.14153000E+03 -0.11786E-04
 0.14158000E+03 -0.99940E-05
 0.14163000E+03 -0.75951E-05
 0.14168001E+03 -0.35197E-05
 0.14173000E+03  0.14949E-05
 0.14178000E+03  0.45712E-05
 0.14183000E+03  0.63922E-05
 0.14188000E+03  0.71088E-05
 0.14193001E+03  0.58767E-05
 0.14198000E+03  0.37639E-05
 0.14203000E+03  0.31190E-05
 0.14208000E+03  0.42618E-05
 0.14213000E+03  0.53630E-05
 0.14218001E+03  0.68694E-05
 0.14223000E+03  0.73556E-05
 0.14228000E+03  0.43714E-05
 0.14233000E+03 -0.34361E-06
 0.14238000E+03 -0.47944E-05
 0.14243001E+03 -0.10628E-04
 0.14248000E+03 -0.17711E-04
 0.14253000E+03 -0.21085E-04
 0.14258000E+03 -0.20183E-04
 0.14263000E+03 -0.17802E-04
 0.14268001E+03 -0.13863E-04
 0.14273000E+03 -0.76247E-05
 0.14278000E+03 -0.19328E-05
 0.14283000E+03  0.13231E-05
 0.14288000E+03  0.40246E-05
 0.14293001E+03  0.57867E-05
 0.14298000E+03  0.50538E-05
 0.14303000E+03  0.20873E-05
 0.14308000E+03 -0.68529E-06
 0.14313000E+03 -0.35997E-05
 0.14318001E+03 -0.67644E-05
 0.14323000E+03 -0.89058E-05
 0.14328000E+03 -0.11561E-04
 0.14333000E+03 -0.13120E-04
 0.14338000E+03 -0.12880E-04
 0.14343001E+03 -0.10014E-04
 0.14348000E+03 -0.40972E-05
 0.14353000E+03  0.14300E-05
 0.14358000E+03  0.82828E-05
 0.14363000E+03  0.17024E-04
 0.14368001E+03  0.25238E-04
 0.14373000E+03  0.31404E-04
 0.14378000E+03  0.33315E-04
 0.14383000E+03  0.30072E-04
 0.14388000E+03  0.21918E-04
 0.14393001E+03  0.12066E-04
 0.14398000E+03  0.33352E-05
 0.14403000E+03 -0.36771E-05
 0.14408000E+03 -0.84111E-05
 0.14413000E+03 -0.97739E-05
 0.14418001E+03 -0.83187E-05
 0.14423000E+03 -0.57544E-05
 0.14428000E+03 -0.23400E-05
 0.14433000E+03  0.10778E-06
 0.14438000E+03  0.10956E-05
 0.14443001E+03  0.16507E-05
 0.14448000E+03  0.91138E-06
 0.14453000E+03 -0.18040E-05
 0.14458000E+03 -0.54191E-05
 0.14463000E+03 -0.82514E-05
 0.14468001E+03 -0.90808E-05
 0.14473000E+03 -0.61521E-05
 0.14478000E+03 -0.76462E-06
 0.14483000E+03  0.33948E-05
 0.14488000E+03  0.65646E-05
 0.14493001E+03  0.89007E-05
 0.14498000E+03  0.86948E-05
 0.14503000E+03  0.65097E-05
 0.14508000E+03  0.34494E-05
 0.14513000E+03  0.50074E-06
 0.14518001E+03 -0.22560E-05
 0.14523000E+03 -0.41927E-05
 0.14528000E+03 -0.49531E-05
 0.14533000E+03 -0.71015E-05
 0.14538000E+03 -0.97784E-05
 0.14543001E+03 -0.11179E-04
 0.14548000E+03 -0.12300E-04
 0.14553000E+03 -0.13080E-04
 0.14558000E+03 -0.12124E-04
 0.14563000E+03 -0.98075E-05
 0.14568001E+03 -0.83578E-05
 0.14573000E+03 -0.62655E-05
 0.14578000E+03 -0.27736E-05
 0.14583000E+03 -0.10890E-05
 0.14588000E+03 -0.12512E-05
 0.14593001E+03 -0.20681E-05
 0.14598000E+03 -0.36486E-05
 0.14603000E+03 -0.51621E-05
 0.14608000E+03 -0.62896E-05
 0.14613000E+03 -0.72089E-05
 0.14618001E+03 -0.77947E-05
 0.14623000E+03 -0.58139E-05
 0.14628000E+03 -0.13345E-05
 0.14633000E+03  0.31273E-05
 0.14638000E+03  0.87457E-05
 0.14643001E+03  0.15348E-04
 0.14648000E+03  0.21587E-04
 0.14653000E+03  0.25525E-04
 0.14658000E+03  0.26088E-04
 0.14663000E+03  0.23963E-04
 0.14668001E+03  0.19369E-04
 0.14673000E+03  0.12648E-04
 0.14678000E+03  0.39419E-05
 0.14683000E+03 -0.35723E-05
 0.14688000E+03 -0.85502E-05
 0.14693001E+03 -0.10969E-04
 0.14698000E+03 -0.95467E-05
 0.14703000E+03 -0.43587E-05
 0.14708000E+03  0.27212E-05
 0.14713000E+03  0.81323E-05
 0.14718001E+03  0.11807E-04
 0.14723000E+03  0.13231E-04
 0.14728000E+03  0.10586E-04
 0.14733000E+03  0.57686E-05
 0.14738000E+03 -0.49298E-07
 0.14743001E+03 -0.78958E-05
 0.14748000E+03 -0.17041E-04
 0.14753000E+03 -0.24608E-04
 0.14758000E+03 -0.29132E-04
 0.14763000E+03 -0.30720E-04
 0.14768001E+03 -0.28666E-04
 0.14773000E+03 -0.22802E-04
 0.14778000E+03 -0.15030E-04
 0.14783000E+03 -0.80207E-05
 0.14788000E+03 -0.16688E-05
 0.14793001E+03  0.56687E-05
 0.14798000E+03  0.12887E-04
 0.14803000E+03  0.19230E-04
 0.14808000E+03  0.25575E-04
 0.14813000E+03  0.30729E-04
 0.14818001E+03  0.33552E-04
 0.14823000E+03  0.34658E-04
 0.14828000E+03  0.34312E-04
 0.14833000E+03  0.31833E-04
 0.14838000E+03  0.25224E-04
 0.14843001E+03  0.15504E-04
 0.14848000E+03  0.40687E-05
 0.14853000E+03 -0.90902E-05
 0.14858000E+03 -0.20892E-04
 0.14863000E+03 -0.29897E-04
 0.14868001E+03 -0.35395E-04
 0.14873000E+03 -0.37239E-04
 0.14878000E+03 -0.35804E-04
 0.14883000E+03 -0.31476E-04
 0.14888000E+03 -0.27124E-04
 0.14893001E+03 -0.22722E-04
 0.14898000E+03 -0.16617E-04
 0.14903000E+03 -0.96226E-05
 0.14908000E+03 -0.29138E-05
 0.14913000E+03  0.37423E-05
 0.14918001E+03  0.94755E-05
 0.14923000E+03  0.12722E-04
 0.14928000E+03  0.14182E-04
 0.14933000E+03  0.14145E-04
 0.14938000E+03  0.12839E-04
 0.14943001E+03  0.10455E-04
 0.14948000E+03  0.80576E-05
 0.14953000E+03  0.63113E-05
 0.14958000E+03  0.34609E-05
 0.14963000E+03  0.73631E-06
 0.14968001E+03 -0.15152E-05
 0.14973000E+03 -0.42618E-05
 0.14978000E+03 -0.62597E-05
 0.14983000E+03 -0.65077E-05
 0.14988000E+03 -0.45882E-05
 0.14993001E+03 -0.13882E-05
 0.14998000E+03  0.36326E-05
