-0.20000458E-01  0.22227E-05
 0.29999543E-01  0.19770E-05
 0.79999544E-01  0.19170E-06
 0.12999955E+00  0.44535E-07
 0.17999955E+00 -0.72936E-06
 0.22999954E+00 -0.17998E-05
 0.27999955E+00 -0.59647E-06
 0.32999954E+00 -0.68443E-06
 0.37999955E+00 -0.51402E-06
 0.42999956E+00 -0.30360E-06
 0.47999954E+00 -0.89275E-06
 0.52999955E+00 -0.15973E-05
 0.57999957E+00 -0.86688E-06
 0.62999958E+00  0.79269E-06
 0.67999953E+00  0.94051E-06
 0.72999954E+00  0.62498E-06
 0.77999955E+00  0.42204E-06
 0.82999957E+00  0.28218E-06
 0.87999958E+00 -0.86637E-06
 0.92999953E+00 -0.13119E-05
 0.97999954E+00 -0.16712E-06
 0.10299996E+01  0.77695E-07
 0.10799996E+01  0.55434E-06
 0.11299995E+01  0.14774E-05
 0.11799996E+01  0.12736E-05
 0.12299995E+01  0.25511E-06
 0.12799996E+01 -0.26455E-06
 0.13299996E+01 -0.11323E-06
 0.13799995E+01 -0.75829E-07
 0.14299996E+01 -0.20486E-06
 0.14799995E+01  0.67463E-06
 0.15299996E+01  0.13003E-05
 0.15799996E+01  0.77285E-07
 0.16299995E+01 -0.45620E-06
 0.16799996E+01  0.60621E-07
 0.17299995E+01  0.53703E-07
 0.17799996E+01 -0.18163E-06
 0.18299996E+01  0.17466E-06
 0.18799995E+01  0.39040E-06
 0.19299996E+01 -0.32873E-06
 0.19799995E+01 -0.35747E-06
 0.20299995E+01  0.18150E-07
 0.20799997E+01 -0.18921E-06
 0.21299996E+01 -0.64178E-06
 0.21799996E+01 -0.26820E-06
 0.22299995E+01  0.66124E-06
 0.22799995E+01  0.33607E-06
 0.23299997E+01  0.32456E-06
 0.23799996E+01  0.30002E-06
 0.24299996E+01 -0.83201E-06
 0.24799995E+01 -0.13143E-05
 0.25299995E+01 -0.31249E-06
 0.25799997E+01  0.73443E-06
 0.26299996E+01  0.24705E-06
 0.26799996E+01  0.25373E-07
 0.27299995E+01  0.73374E-07
 0.27799995E+01 -0.57385E-06
 0.28299997E+01 -0.78373E-06
 0.28799996E+01 -0.83972E-07
 0.29299996E+01  0.68089E-06
 0.29799995E+01  0.24604E-06
 0.30299995E+01 -0.35175E-06
 0.30799997E+01 -0.93217E-08
 0.31299996E+01 -0.16702E-06
 0.31799996E+01 -0.82247E-06
 0.32299995E+01 -0.18006E-06
 0.32799995E+01  0.77113E-07
 0.33299997E+01 -0.67430E-06
 0.33799996E+01 -0.50595E-07
 0.34299996E+01  0.54315E-06
 0.34799995E+01  0.56722E-07
 0.35299995E+01 -0.30436E-06
 0.35799997E+01 -0.34473E-06
 0.36299996E+01 -0.12144E-06
 0.36799996E+01 -0.24487E-07
 0.37299995E+01  0.35917E-06
 0.37799995E+01  0.80169E-06
 0.38299997E+01  0.33116E-06
 0.38799996E+01 -0.40329E-06
 0.39299996E+01  0.12169E-06
 0.39799995E+01  0.26403E-06
 0.40299997E+01 -0.66005E-06
 0.40799994E+01  0.29092E-06
 0.41299996E+01  0.37974E-06
 0.41799998E+01 -0.22136E-06
 0.42299995E+01  0.67239E-06
 0.42799997E+01  0.43418E-06
 0.43299994E+01  0.16251E-06
 0.43799996E+01  0.32263E-08
 0.44299998E+01 -0.19084E-06
 0.44799995E+01  0.22829E-06
 0.45299997E+01  0.20890E-06
 0.45799994E+01 -0.34169E-07
 0.46299996E+01  0.44788E-06
 0.46799998E+01  0.73125E-06
 0.47299995E+01 -0.17430E-06
 0.47799997E+01 -0.81683E-07
 0.48299994E+01  0.12812E-06
 0.48799996E+01 -0.35735E-06
 0.49299998E+01  0.20268E-06
 0.49799995E+01  0.68306E-06
 0.50299997E+01  0.57858E-06
 0.50799994E+01  0.17359E-06
 0.51299996E+01 -0.24776E-06
 0.51799998E+01 -0.45608E-06
 0.52299995E+01 -0.95657E-06
 0.52799997E+01 -0.97032E-06
 0.53299994E+01 -0.17306E-06
 0.53799996E+01  0.63349E-06
 0.54299998E+01  0.69890E-06
 0.54799995E+01  0.40720E-06
 0.55299997E+01  0.83032E-07
 0.55799994E+01 -0.84949E-06
 0.56299996E+01 -0.10649E-05
 0.56799998E+01 -0.35501E-06
 0.57299995E+01  0.52414E-07
 0.57799997E+01 -0.88923E-07
 0.58299994E+01 -0.94776E-07
 0.58799996E+01 -0.11765E-06
 0.59299998E+01 -0.36854E-06
 0.59799995E+01  0.14171E-06
 0.60299997E+01  0.29083E-06
 0.60799994E+01 -0.96434E-07
 0.61299996E+01 -0.31287E-06
 0.61799998E+01 -0.52075E-06
 0.62299995E+01 -0.36147E-06
 0.62799997E+01 -0.22645E-06
 0.63299994E+01 -0.13440E-06
 0.63799996E+01  0.14292E-06
 0.64299998E+01  0.20492E-06
 0.64799995E+01  0.29951E-06
 0.65299997E+01  0.71290E-06
 0.65799994E+01  0.70564E-06
 0.66299996E+01  0.16728E-07
 0.66799998E+01 -0.64157E-06
 0.67299995E+01 -0.91168E-06
 0.67799997E+01 -0.54322E-06
 0.68299994E+01  0.39738E-06
 0.68799996E+01  0.10171E-05
 0.69299998E+01  0.90766E-06
 0.69799995E+01  0.22612E-06
 0.70299997E+01 -0.37300E-06
 0.70799994E+01 -0.68782E-06
 0.71299996E+01 -0.67536E-06
 0.71799998E+01 -0.19920E-07
 0.72299995E+01  0.37786E-06
 0.72799997E+01  0.29584E-06
 0.73299994E+01  0.47152E-06
 0.73799996E+01  0.55904E-06
 0.74299998E+01  0.39332E-06
 0.74799995E+01  0.29872E-06
 0.75299997E+01  0.28202E-07
 0.75799994E+01 -0.75371E-08
 0.76299996E+01  0.36340E-07
 0.76799998E+01 -0.17362E-07
 0.77299995E+01  0.10998E-06
 0.77799997E+01  0.27521E-07
 0.78299994E+01  0.27793E-06
 0.78799996E+01  0.42639E-06
 0.79299998E+01  0.10164E-06
 0.79799995E+01 -0.12116E-06
 0.80299997E+01 -0.46833E-07
 0.80799999E+01 -0.79415E-07
 0.81300001E+01 -0.30524E-06
 0.81799994E+01 -0.11623E-06
 0.82299995E+01 -0.19570E-06
 0.82799997E+01 -0.25259E-06
 0.83299999E+01 -0.28024E-06
 0.83800001E+01 -0.34930E-06
 0.84299994E+01 -0.18604E-06
 0.84799995E+01 -0.28024E-06
 0.85299997E+01  0.61192E-07
 0.85799999E+01  0.49675E-06
 0.86300001E+01  0.25628E-06
 0.86799994E+01 -0.10692E-06
 0.87299995E+01 -0.33636E-06
 0.87799997E+01 -0.66271E-06
 0.88299999E+01 -0.19122E-06
 0.88800001E+01  0.27802E-06
 0.89299994E+01  0.19511E-06
 0.89799995E+01  0.33121E-06
 0.90299997E+01 -0.15166E-06
 0.90799999E+01 -0.54845E-06
 0.91300001E+01 -0.57303E-06
 0.91799994E+01 -0.59749E-06
 0.92299995E+01 -0.11456E-06
 0.92799997E+01  0.44114E-06
 0.93299999E+01  0.66790E-06
 0.93800001E+01  0.77241E-06
 0.94299994E+01  0.12691E-06
 0.94799995E+01 -0.73771E-06
 0.95299997E+01 -0.67416E-06
 0.95799999E+01 -0.26355E-06
 0.96300001E+01  0.19154E-06
 0.96799994E+01  0.63606E-06
 0.97299995E+01  0.46780E-06
 0.97799997E+01 -0.36381E-06
 0.98299999E+01 -0.68463E-06
 0.98800001E+01 -0.40768E-06
 0.99299994E+01  0.36787E-06
 0.99799995E+01  0.86628E-06
 0.10030000E+02  0.65171E-06
 0.10080000E+02  0.27972E-06
 0.10130000E+02 -0.63053E-06
 0.10179999E+02 -0.70923E-06
 0.10230000E+02 -0.32339E-06
 0.10280000E+02 -0.11360E-06
 0.10330000E+02  0.38904E-06
 0.10380000E+02  0.71962E-06
 0.10429999E+02  0.87510E-06
 0.10480000E+02  0.55446E-06
 0.10530000E+02  0.36920E-06
 0.10580000E+02  0.12270E-06
 0.10630000E+02 -0.33802E-06
 0.10679999E+02 -0.31358E-06
 0.10730000E+02 -0.98316E-07
 0.10780000E+02  0.42189E-06
 0.10830000E+02  0.81710E-06
 0.10880000E+02  0.64850E-06
 0.10929999E+02  0.61841E-07
 0.10980000E+02 -0.68090E-06
 0.11030000E+02 -0.93962E-06
 0.11080000E+02 -0.71565E-06
 0.11130000E+02 -0.15682E-06
 0.11179999E+02  0.25237E-06
 0.11230000E+02  0.30487E-06
 0.11280000E+02 -0.95845E-07
 0.11330000E+02 -0.70666E-06
 0.11380000E+02 -0.61520E-06
 0.11429999E+02 -0.49821E-06
 0.11480000E+02 -0.35261E-06
 0.11530000E+02  0.14971E-06
 0.11580000E+02  0.25491E-06
 0.11630000E+02 -0.16400E-06
 0.11679999E+02 -0.35458E-06
 0.11730000E+02 -0.18100E-06
 0.11780000E+02 -0.34766E-07
 0.11830000E+02  0.51625E-06
 0.11880000E+02  0.55704E-06
 0.11929999E+02  0.17312E-06
 0.11980000E+02 -0.22100E-07
 0.12030000E+02 -0.14807E-06
 0.12080000E+02  0.22219E-06
 0.12130000E+02  0.40490E-06
 0.12179999E+02  0.31643E-06
 0.12230000E+02  0.48423E-07
 0.12280000E+02 -0.14063E-07
 0.12330000E+02  0.27414E-06
 0.12380000E+02  0.50824E-06
 0.12429999E+02  0.78049E-06
 0.12480000E+02  0.26738E-06
 0.12530000E+02 -0.50198E-06
 0.12580000E+02 -0.57066E-06
 0.12630000E+02 -0.62741E-06
 0.12679999E+02 -0.31554E-06
 0.12730000E+02  0.23570E-06
 0.12780000E+02  0.37045E-06
 0.12830000E+02  0.22090E-06
 0.12880000E+02 -0.27847E-06
 0.12929999E+02 -0.57509E-06
 0.12980000E+02 -0.80951E-06
 0.13030000E+02 -0.83627E-06
 0.13080000E+02 -0.29871E-06
 0.13130000E+02  0.12478E-06
 0.13179999E+02  0.36727E-06
 0.13230000E+02  0.25907E-06
 0.13280000E+02 -0.58997E-07
 0.13330000E+02 -0.39955E-06
 0.13380000E+02 -0.72079E-06
 0.13429999E+02 -0.44885E-06
 0.13480000E+02  0.98949E-07
 0.13530000E+02  0.44488E-06
 0.13580000E+02  0.51771E-06
 0.13630000E+02  0.31916E-06
 0.13679999E+02 -0.11641E-06
 0.13730000E+02 -0.59645E-06
 0.13780000E+02 -0.37778E-06
 0.13830000E+02  0.20015E-06
 0.13880000E+02  0.46944E-06
 0.13929999E+02  0.78138E-06
 0.13980000E+02  0.10880E-05
 0.14030000E+02  0.98462E-06
 0.14080000E+02  0.24860E-06
 0.14130000E+02 -0.20906E-06
 0.14179999E+02 -0.18536E-06
 0.14230000E+02 -0.20492E-06
 0.14280000E+02  0.23943E-06
 0.14330000E+02  0.56629E-06
 0.14380000E+02  0.60950E-06
 0.14429999E+02  0.58570E-06
 0.14480000E+02  0.18478E-06
 0.14530000E+02 -0.74461E-07
 0.14580000E+02 -0.37222E-06
 0.14630000E+02 -0.70768E-06
 0.14679999E+02 -0.14040E-06
 0.14730000E+02  0.20542E-06
 0.14780000E+02 -0.32250E-06
 0.14830000E+02 -0.45801E-07
 0.14880000E+02  0.28173E-06
 0.14929999E+02 -0.31880E-06
 0.14980000E+02 -0.53831E-06
 0.15030000E+02 -0.42963E-06
 0.15080000E+02 -0.41707E-06
 0.15130000E+02 -0.16802E-06
 0.15179999E+02  0.16178E-06
 0.15230000E+02  0.59579E-06
 0.15280000E+02  0.22037E-06
 0.15330000E+02 -0.60330E-06
 0.15380000E+02 -0.49627E-06
 0.15429999E+02 -0.36230E-06
 0.15480000E+02 -0.63298E-06
 0.15530000E+02 -0.34456E-06
 0.15580000E+02  0.28307E-06
 0.15630000E+02 -0.53805E-07
 0.15679999E+02 -0.61866E-07
 0.15730000E+02  0.30836E-06
 0.15780000E+02 -0.41607E-07
 0.15830000E+02 -0.41420E-06
 0.15880000E+02 -0.46968E-06
 0.15929999E+02  0.26314E-06
 0.15980000E+02  0.42686E-06
 0.16030001E+02  0.68584E-07
 0.16080000E+02  0.35138E-06
 0.16129999E+02  0.18757E-06
 0.16180000E+02 -0.76507E-06
 0.16230000E+02 -0.73030E-06
 0.16280001E+02  0.64782E-07
 0.16330000E+02 -0.55507E-07
 0.16379999E+02  0.12767E-06
 0.16430000E+02  0.77334E-06
 0.16480000E+02  0.79818E-06
 0.16530001E+02  0.22299E-06
 0.16580000E+02 -0.54354E-07
 0.16629999E+02  0.11074E-06
 0.16680000E+02 -0.83772E-07
 0.16730000E+02 -0.18779E-06
 0.16780001E+02  0.42633E-06
 0.16830000E+02  0.76813E-06
 0.16879999E+02  0.21533E-06
 0.16930000E+02  0.29539E-06
 0.16980000E+02  0.34465E-06
 0.17030001E+02 -0.23827E-06
 0.17080000E+02 -0.24293E-06
 0.17129999E+02  0.57463E-07
 0.17180000E+02  0.44380E-07
 0.17230000E+02 -0.38128E-06
 0.17280001E+02 -0.20358E-06
 0.17330000E+02  0.16606E-06
 0.17379999E+02  0.44817E-07
 0.17430000E+02 -0.53090E-07
 0.17480000E+02 -0.51789E-07
 0.17530001E+02 -0.39156E-07
 0.17580000E+02 -0.45562E-06
 0.17629999E+02 -0.33860E-06
 0.17680000E+02  0.14426E-06
 0.17730000E+02 -0.30232E-06
 0.17780001E+02 -0.21439E-06
 0.17830000E+02  0.36968E-06
 0.17879999E+02  0.67922E-07
 0.17930000E+02 -0.24054E-06
 0.17980000E+02 -0.16955E-06
 0.18030001E+02  0.58895E-07
 0.18080000E+02 -0.11374E-06
 0.18129999E+02 -0.12112E-06
 0.18180000E+02  0.51144E-06
 0.18230000E+02  0.31085E-06
 0.18280001E+02 -0.92257E-07
 0.18330000E+02  0.32136E-07
 0.18379999E+02  0.18953E-06
 0.18430000E+02  0.10213E-06
 0.18480000E+02  0.16229E-07
 0.18530001E+02  0.19787E-06
 0.18580000E+02  0.28193E-06
 0.18629999E+02  0.49689E-07
 0.18680000E+02 -0.56151E-07
 0.18730000E+02  0.48508E-07
 0.18780001E+02 -0.32234E-06
 0.18830000E+02 -0.31789E-06
 0.18879999E+02  0.50380E-07
 0.18930000E+02  0.83943E-07
 0.18980000E+02 -0.17113E-07
 0.19030001E+02 -0.18239E-06
 0.19080000E+02 -0.17572E-06
 0.19129999E+02 -0.17896E-06
 0.19180000E+02 -0.17812E-06
 0.19230000E+02  0.13662E-07
 0.19280001E+02 -0.40099E-07
 0.19330000E+02 -0.46342E-06
 0.19379999E+02 -0.42019E-06
 0.19430000E+02 -0.25202E-07
 0.19480000E+02  0.65942E-07
 0.19530001E+02  0.19166E-06
 0.19580000E+02  0.25180E-06
 0.19629999E+02  0.51194E-07
 0.19680000E+02  0.13864E-06
 0.19730000E+02  0.21796E-06
 0.19780001E+02  0.10431E-05
 0.19830000E+02  0.20333E-05
 0.19879999E+02  0.19373E-05
 0.19930000E+02  0.14999E-05
 0.19980000E+02 -0.10308E-05
 0.20030001E+02 -0.42373E-05
 0.20080000E+02 -0.81161E-05
 0.20129999E+02 -0.10131E-04
 0.20180000E+02 -0.81951E-05
 0.20230000E+02 -0.42812E-05
 0.20280001E+02  0.50930E-05
 0.20330000E+02  0.12057E-04
 0.20379999E+02  0.17317E-04
 0.20430000E+02  0.19652E-04
 0.20480000E+02  0.12411E-04
 0.20530001E+02  0.55276E-05
 0.20580000E+02 -0.91123E-05
 0.20629999E+02 -0.25582E-04
 0.20680000E+02 -0.28533E-04
 0.20730000E+02 -0.26440E-04
 0.20780001E+02 -0.23171E-05
 0.20830000E+02  0.38238E-04
 0.20879999E+02  0.61095E-04
 0.20930000E+02  0.55337E-04
 0.20980000E+02  0.15536E-06
 0.21030001E+02 -0.69023E-04
 0.21080000E+02 -0.97296E-04
 0.21129999E+02 -0.78642E-04
 0.21180000E+02 -0.12540E-04
 0.21230000E+02  0.52888E-04
 0.21280001E+02  0.72907E-04
 0.21330000E+02  0.49213E-04
 0.21379999E+02  0.17705E-04
 0.21430000E+02  0.21165E-04
 0.21480000E+02  0.47845E-04
 0.21530001E+02  0.56518E-04
 0.21580000E+02 -0.12384E-04
 0.21629999E+02 -0.11616E-03
 0.21680000E+02 -0.16768E-03
 0.21730000E+02 -0.13509E-03
 0.21780001E+02  0.25611E-04
 0.21830000E+02  0.20362E-03
 0.21879999E+02  0.25607E-03
 0.21930000E+02  0.17223E-03
 0.21980000E+02 -0.66142E-04
 0.22030001E+02 -0.32794E-03
 0.22080000E+02 -0.36262E-03
 0.22129999E+02 -0.16532E-03
 0.22180000E+02  0.16207E-03
 0.22230000E+02  0.40278E-03
 0.22280001E+02  0.30102E-03
 0.22330000E+02 -0.13206E-04
 0.22379999E+02 -0.32470E-03
 0.22430000E+02 -0.34127E-03
 0.22480000E+02  0.27977E-04
 0.22530001E+02  0.35978E-03
 0.22580000E+02  0.36609E-03
 0.22629999E+02  0.43168E-04
 0.22680000E+02 -0.25724E-03
 0.22730000E+02 -0.29001E-03
 0.22780001E+02 -0.12473E-03
 0.22830000E+02  0.16167E-03
 0.22879999E+02  0.19822E-03
 0.22930000E+02 -0.47274E-04
 0.22980000E+02 -0.19944E-03
 0.23030001E+02 -0.14824E-03
 0.23080000E+02  0.50546E-04
 0.23129999E+02  0.21238E-03
 0.23180000E+02  0.21856E-03
 0.23230000E+02  0.12923E-03
 0.23280001E+02 -0.11636E-03
 0.23330000E+02 -0.37742E-03
 0.23379999E+02 -0.35103E-03
 0.23430000E+02 -0.10589E-03
 0.23480000E+02  0.17679E-03
 0.23530001E+02  0.38161E-03
 0.23580000E+02  0.41902E-03
 0.23629999E+02  0.21791E-03
 0.23680000E+02 -0.12925E-03
 0.23730000E+02 -0.36220E-03
 0.23780001E+02 -0.32945E-03
 0.23830000E+02 -0.95692E-04
 0.23879999E+02  0.16804E-03
 0.23930000E+02  0.31585E-03
 0.23980000E+02  0.11374E-03
 0.24030001E+02 -0.23790E-03
 0.24080000E+02 -0.25567E-03
 0.24129999E+02 -0.80622E-04
 0.24180000E+02  0.59405E-04
 0.24230000E+02  0.21471E-03
 0.24280001E+02  0.16066E-03
 0.24330000E+02 -0.99756E-04
 0.24379999E+02 -0.16865E-03
 0.24430000E+02 -0.32820E-04
 0.24480000E+02  0.12432E-03
 0.24530001E+02  0.11619E-03
 0.24580000E+02  0.67524E-04
 0.24629999E+02  0.99760E-04
 0.24680000E+02 -0.45038E-05
 0.24730000E+02 -0.66303E-04
 0.24780001E+02 -0.16252E-04
 0.24830000E+02 -0.25228E-04
 0.24879999E+02 -0.59249E-04
 0.24930000E+02 -0.11538E-03
 0.24980000E+02 -0.15573E-03
 0.25030001E+02 -0.55001E-04
 0.25080000E+02  0.90511E-04
 0.25129999E+02  0.11316E-03
 0.25180000E+02  0.67561E-04
 0.25230000E+02 -0.34170E-04
 0.25280001E+02 -0.10795E-03
 0.25330000E+02 -0.20884E-04
 0.25379999E+02  0.71508E-04
 0.25430000E+02  0.30879E-04
 0.25480000E+02 -0.16312E-04
 0.25530001E+02 -0.10386E-04
 0.25580000E+02  0.46212E-04
 0.25629999E+02  0.10504E-03
 0.25680000E+02  0.22947E-04
 0.25730000E+02 -0.71495E-04
 0.25780001E+02 -0.10643E-03
 0.25830000E+02 -0.90950E-04
 0.25879999E+02 -0.65116E-05
 0.25930000E+02  0.28781E-04
 0.25980000E+02  0.82868E-04
 0.26030001E+02  0.13335E-03
 0.26080000E+02  0.92340E-04
 0.26129999E+02  0.26599E-04
 0.26180000E+02 -0.33005E-04
 0.26230000E+02 -0.51315E-04
 0.26280001E+02 -0.46709E-04
 0.26330000E+02 -0.60579E-04
 0.26379999E+02 -0.56557E-04
 0.26430000E+02  0.23179E-04
 0.26480000E+02  0.10315E-03
 0.26530001E+02  0.52544E-04
 0.26580000E+02 -0.15186E-03
 0.26629999E+02 -0.26825E-03
 0.26680000E+02 -0.33454E-04
 0.26730000E+02  0.28942E-03
 0.26780001E+02  0.32419E-03
 0.26830000E+02  0.14742E-03
 0.26879999E+02  0.80214E-05
 0.26930000E+02 -0.12210E-03
 0.26980000E+02 -0.17980E-03
 0.27030001E+02 -0.11845E-03
 0.27080000E+02 -0.12351E-03
 0.27129999E+02 -0.11236E-03
 0.27180000E+02 -0.12189E-03
 0.27230000E+02 -0.11255E-03
 0.27280001E+02  0.50996E-04
 0.27330000E+02  0.17149E-03
 0.27379999E+02  0.17185E-03
 0.27430000E+02  0.75740E-04
 0.27480000E+02  0.84752E-05
 0.27530001E+02  0.18684E-04
 0.27580000E+02 -0.19488E-04
 0.27629999E+02 -0.29130E-04
 0.27680000E+02 -0.34710E-04
 0.27730000E+02 -0.73238E-04
 0.27780001E+02  0.35015E-04
 0.27830000E+02  0.18036E-03
 0.27879999E+02  0.19333E-03
 0.27930000E+02  0.10324E-03
 0.27980000E+02 -0.90600E-04
 0.28030001E+02 -0.25674E-03
 0.28080000E+02 -0.24809E-03
 0.28129999E+02 -0.16953E-03
 0.28180000E+02 -0.84396E-04
 0.28230000E+02  0.10498E-03
 0.28280001E+02  0.26559E-03
 0.28330000E+02  0.27659E-03
 0.28379999E+02  0.23644E-03
 0.28430000E+02  0.13483E-03
 0.28480000E+02 -0.53264E-04
 0.28530001E+02 -0.23486E-03
 0.28580000E+02 -0.33746E-03
 0.28629999E+02 -0.27282E-03
 0.28680000E+02 -0.10796E-03
 0.28730000E+02  0.17323E-04
 0.28780001E+02  0.16986E-03
 0.28830000E+02  0.17595E-03
 0.28879999E+02  0.59079E-04
 0.28930000E+02  0.25971E-04
 0.28980000E+02 -0.43542E-04
 0.29030001E+02 -0.78790E-04
 0.29080000E+02 -0.11788E-03
 0.29129999E+02 -0.15488E-03
 0.29180000E+02 -0.17390E-04
 0.29230000E+02  0.13968E-03
 0.29280001E+02  0.28664E-03
 0.29330000E+02  0.37511E-03
 0.29379999E+02  0.23276E-03
 0.29430000E+02  0.92956E-04
 0.29480000E+02  0.39347E-04
 0.29530001E+02 -0.15337E-03
 0.29580000E+02 -0.33383E-03
 0.29629999E+02 -0.35221E-03
 0.29680000E+02 -0.30710E-03
 0.29730000E+02 -0.22615E-03
 0.29780001E+02 -0.13513E-03
 0.29830000E+02 -0.51523E-05
 0.29879999E+02  0.16720E-03
 0.29930000E+02  0.29350E-03
 0.29980000E+02  0.36731E-03
 0.30030001E+02  0.30320E-03
 0.30080000E+02  0.69743E-04
 0.30129999E+02 -0.40153E-04
 0.30180000E+02  0.25228E-05
 0.30230000E+02 -0.16447E-04
 0.30280001E+02 -0.75580E-04
 0.30330000E+02 -0.19627E-03
 0.30379999E+02 -0.26677E-03
 0.30430000E+02 -0.18413E-03
 0.30480000E+02 -0.12844E-03
 0.30530001E+02 -0.59866E-04
 0.30580000E+02  0.10224E-03
 0.30629999E+02  0.26030E-03
 0.30680000E+02  0.27899E-03
 0.30730000E+02  0.11342E-03
 0.30780001E+02 -0.10080E-03
 0.30830000E+02 -0.21787E-03
 0.30879999E+02 -0.11740E-03
 0.30930000E+02  0.93720E-04
 0.30980000E+02  0.20277E-03
 0.31030001E+02  0.15067E-03
 0.31080000E+02  0.15868E-04
 0.31129999E+02 -0.71545E-04
 0.31180000E+02 -0.70968E-04
 0.31230000E+02  0.52567E-05
 0.31280001E+02  0.11937E-04
 0.31330000E+02 -0.59058E-04
 0.31379999E+02 -0.98941E-04
 0.31430000E+02 -0.10017E-03
 0.31480000E+02 -0.77662E-04
 0.31530001E+02 -0.14552E-03
 0.31580000E+02 -0.14719E-03
 0.31629999E+02  0.43617E-04
 0.31680000E+02  0.16765E-03
 0.31730000E+02  0.22168E-03
 0.31780001E+02  0.25505E-03
 0.31830000E+02  0.16214E-03
 0.31879999E+02  0.48614E-04
 0.31930000E+02 -0.50831E-04
 0.31980000E+02 -0.18472E-03
 0.32029999E+02 -0.27258E-03
 0.32080002E+02 -0.21366E-03
 0.32130001E+02 -0.72695E-04
 0.32180000E+02  0.31440E-04
 0.32230000E+02  0.16018E-03
 0.32279999E+02  0.22797E-03
 0.32330002E+02  0.22550E-03
 0.32380001E+02  0.26461E-03
 0.32430000E+02  0.17664E-03
 0.32480000E+02 -0.10767E-03
 0.32529999E+02 -0.36112E-03
 0.32580002E+02 -0.35725E-03
 0.32630001E+02 -0.17982E-03
 0.32680000E+02 -0.34645E-05
 0.32730000E+02  0.86105E-04
 0.32779999E+02  0.39269E-04
 0.32830002E+02 -0.29953E-04
 0.32880001E+02 -0.56405E-04
 0.32930000E+02  0.90103E-05
 0.32980000E+02  0.14629E-03
 0.33029999E+02  0.15207E-03
 0.33080002E+02  0.89150E-04
 0.33130001E+02  0.11324E-03
 0.33180000E+02  0.74340E-04
 0.33230000E+02 -0.74520E-04
 0.33279999E+02 -0.13100E-03
 0.33330002E+02 -0.11905E-03
 0.33380001E+02 -0.75165E-04
 0.33430000E+02  0.10048E-03
 0.33480000E+02  0.26135E-03
 0.33529999E+02  0.23581E-03
 0.33580002E+02  0.26299E-04
 0.33630001E+02 -0.17829E-03
 0.33680000E+02 -0.25493E-03
 0.33730000E+02 -0.27580E-03
 0.33779999E+02 -0.17272E-03
 0.33830002E+02 -0.33571E-04
 0.33880001E+02 -0.20367E-04
 0.33930000E+02  0.26840E-04
 0.33980000E+02  0.10525E-03
 0.34029999E+02  0.86907E-04
 0.34080002E+02  0.32969E-04
 0.34130001E+02 -0.74421E-04
 0.34180000E+02 -0.19227E-03
 0.34230000E+02 -0.14476E-03
 0.34279999E+02  0.57433E-04
 0.34330002E+02  0.30540E-03
 0.34380001E+02  0.47259E-03
 0.34430000E+02  0.47998E-03
 0.34480000E+02  0.33413E-03
 0.34529999E+02 -0.78408E-04
 0.34580002E+02 -0.56820E-03
 0.34630001E+02 -0.83218E-03
 0.34680000E+02 -0.92373E-03
 0.34730000E+02 -0.78624E-03
 0.34779999E+02 -0.35159E-03
 0.34830002E+02  0.33484E-03
 0.34880001E+02  0.10338E-02
 0.34930000E+02  0.13034E-02
 0.34980000E+02  0.10254E-02
 0.35029999E+02  0.42790E-03
 0.35080002E+02 -0.19502E-03
 0.35130001E+02 -0.49819E-03
 0.35180000E+02 -0.32915E-03
 0.35230000E+02 -0.34394E-04
 0.35279999E+02  0.10147E-03
 0.35330002E+02  0.12987E-03
 0.35380001E+02  0.16750E-03
 0.35430000E+02  0.26685E-03
 0.35480000E+02  0.21325E-03
 0.35529999E+02 -0.19415E-03
 0.35580002E+02 -0.87904E-03
 0.35630001E+02 -0.14261E-02
 0.35680000E+02 -0.13719E-02
 0.35730000E+02 -0.60767E-03
 0.35779999E+02  0.52165E-03
 0.35830002E+02  0.12514E-02
 0.35880001E+02  0.12757E-02
 0.35930000E+02  0.99423E-03
 0.35980000E+02  0.61499E-03
 0.36029999E+02 -0.44134E-04
 0.36080002E+02 -0.87196E-03
 0.36130001E+02 -0.13891E-02
 0.36180000E+02 -0.12900E-02
 0.36230000E+02 -0.44903E-03
 0.36279999E+02  0.75679E-03
 0.36330002E+02  0.15058E-02
 0.36380001E+02  0.14551E-02
 0.36430000E+02  0.84922E-03
 0.36480000E+02  0.11248E-03
 0.36529999E+02 -0.39282E-03
 0.36580002E+02 -0.58385E-03
 0.36630001E+02 -0.68469E-03
 0.36680000E+02 -0.78651E-03
 0.36730000E+02 -0.72512E-03
 0.36779999E+02 -0.47962E-03
 0.36830002E+02 -0.18997E-03
 0.36880001E+02  0.53264E-04
 0.36930000E+02  0.24205E-03
 0.36980000E+02  0.41991E-03
 0.37029999E+02  0.64812E-03
 0.37080002E+02  0.70367E-03
 0.37130001E+02  0.42970E-03
 0.37180000E+02  0.67267E-04
 0.37230000E+02 -0.21317E-03
 0.37279999E+02 -0.41772E-03
 0.37330002E+02 -0.65083E-03
 0.37380001E+02 -0.83595E-03
 0.37430000E+02 -0.75734E-03
 0.37480000E+02 -0.28517E-03
 0.37529999E+02  0.38230E-03
 0.37580002E+02  0.73718E-03
 0.37630001E+02  0.82093E-03
 0.37680000E+02  0.98968E-03
 0.37730000E+02  0.98220E-03
 0.37779999E+02  0.38801E-03
 0.37830002E+02 -0.44065E-03
 0.37880001E+02 -0.80130E-03
 0.37930000E+02 -0.67968E-03
 0.37980000E+02 -0.52828E-03
 0.38029999E+02 -0.29440E-03
 0.38080002E+02  0.56645E-04
 0.38130001E+02  0.33357E-03
 0.38180000E+02  0.60465E-03
 0.38230000E+02  0.61091E-03
 0.38279999E+02  0.15403E-03
 0.38330002E+02 -0.65281E-03
 0.38380001E+02 -0.13258E-02
 0.38430000E+02 -0.11902E-02
 0.38480000E+02 -0.35908E-03
 0.38529999E+02  0.58078E-03
 0.38580002E+02  0.90375E-03
 0.38630001E+02  0.53529E-03
 0.38680000E+02  0.25704E-03
 0.38730000E+02  0.37673E-03
 0.38779999E+02  0.56345E-03
 0.38830002E+02  0.46973E-03
 0.38880001E+02  0.58638E-04
 0.38930000E+02 -0.35713E-03
 0.38980000E+02 -0.39014E-03
 0.39029999E+02 -0.46731E-04
 0.39080002E+02  0.36601E-03
 0.39130001E+02  0.49200E-03
 0.39180000E+02  0.75644E-04
 0.39230000E+02 -0.53621E-03
 0.39279999E+02 -0.74427E-03
 0.39330002E+02 -0.61187E-03
 0.39380001E+02 -0.52558E-03
 0.39430000E+02 -0.51889E-03
 0.39480000E+02 -0.46727E-03
 0.39529999E+02 -0.25714E-03
 0.39580002E+02  0.93789E-04
 0.39630001E+02  0.48825E-03
 0.39680000E+02  0.83116E-03
 0.39730000E+02  0.81717E-03
 0.39779999E+02  0.30452E-03
 0.39830002E+02 -0.31249E-03
 0.39880001E+02 -0.66748E-03
 0.39930000E+02 -0.72989E-03
 0.39980000E+02 -0.33955E-03
 0.40029999E+02  0.43184E-03
 0.40080002E+02  0.10940E-02
 0.40130001E+02  0.13521E-02
 0.40180000E+02  0.10587E-02
 0.40230000E+02  0.26807E-03
 0.40279999E+02 -0.70893E-03
 0.40330002E+02 -0.13791E-02
 0.40380001E+02 -0.12415E-02
 0.40430000E+02 -0.36825E-03
 0.40480000E+02  0.48095E-03
 0.40529999E+02  0.53159E-03
 0.40580002E+02 -0.16477E-03
 0.40630001E+02 -0.71488E-03
 0.40680000E+02 -0.31242E-03
 0.40730000E+02  0.76069E-03
 0.40779999E+02  0.15140E-02
 0.40830002E+02  0.13428E-02
 0.40880001E+02  0.32605E-03
 0.40930000E+02 -0.91829E-03
 0.40980000E+02 -0.16865E-02
 0.41029999E+02 -0.16997E-02
 0.41080002E+02 -0.11704E-02
 0.41130001E+02 -0.46655E-03
 0.41180000E+02  0.23972E-03
 0.41230000E+02  0.10008E-02
 0.41279999E+02  0.16747E-02
 0.41330002E+02  0.18326E-02
 0.41380001E+02  0.12912E-02
 0.41430000E+02  0.28315E-03
 0.41480000E+02 -0.67437E-03
 0.41529999E+02 -0.11430E-02
 0.41580002E+02 -0.10886E-02
 0.41630001E+02 -0.60211E-03
 0.41680000E+02  0.42820E-04
 0.41730000E+02  0.40408E-03
 0.41779999E+02  0.45625E-03
 0.41830002E+02  0.35848E-03
 0.41880001E+02  0.11917E-03
 0.41930000E+02 -0.22435E-03
 0.41980000E+02 -0.56928E-03
 0.42029999E+02 -0.67658E-03
 0.42080002E+02 -0.50191E-03
 0.42130001E+02 -0.28804E-03
 0.42180000E+02 -0.35768E-04
 0.42230000E+02  0.37808E-03
 0.42279999E+02  0.71415E-03
 0.42330002E+02  0.74697E-03
 0.42380001E+02  0.60480E-03
 0.42430000E+02  0.40176E-03
 0.42480000E+02  0.51669E-04
 0.42529999E+02 -0.62537E-03
 0.42580002E+02 -0.12632E-02
 0.42630001E+02 -0.12627E-02
 0.42680000E+02 -0.66217E-03
 0.42730000E+02  0.21539E-03
 0.42779999E+02  0.97537E-03
 0.42830002E+02  0.13210E-02
 0.42880001E+02  0.11962E-02
 0.42930000E+02  0.70367E-03
 0.42980000E+02  0.31623E-04
 0.43029999E+02 -0.61352E-03
 0.43080002E+02 -0.92382E-03
 0.43130001E+02 -0.88351E-03
 0.43180000E+02 -0.70303E-03
 0.43230000E+02 -0.33434E-03
 0.43279999E+02  0.24667E-03
 0.43330002E+02  0.67389E-03
 0.43380001E+02  0.53803E-03
 0.43430000E+02 -0.20786E-05
 0.43480000E+02 -0.34747E-03
 0.43529999E+02 -0.19425E-03
 0.43580002E+02  0.25897E-03
 0.43630001E+02  0.61073E-03
 0.43680000E+02  0.49361E-03
 0.43730000E+02 -0.61885E-04
 0.43779999E+02 -0.63736E-03
 0.43830002E+02 -0.74496E-03
 0.43880001E+02 -0.19885E-03
 0.43930000E+02  0.59871E-03
 0.43980000E+02  0.10085E-02
 0.44029999E+02  0.68403E-03
 0.44080002E+02 -0.32367E-04
 0.44130001E+02 -0.47089E-03
 0.44180000E+02 -0.42281E-03
 0.44230000E+02 -0.19958E-03
 0.44279999E+02 -0.18640E-03
 0.44330002E+02 -0.40390E-03
 0.44380001E+02 -0.62632E-03
 0.44430000E+02 -0.65995E-03
 0.44480000E+02 -0.37289E-03
 0.44529999E+02  0.89668E-04
 0.44580002E+02  0.39008E-03
 0.44630001E+02  0.40187E-03
 0.44680000E+02  0.20911E-03
 0.44730000E+02 -0.20330E-04
 0.44779999E+02 -0.12913E-03
 0.44830002E+02 -0.11490E-03
 0.44880001E+02  0.75957E-04
 0.44930000E+02  0.47553E-03
 0.44980000E+02  0.83680E-03
 0.45029999E+02  0.93788E-03
 0.45080002E+02  0.67758E-03
 0.45130001E+02  0.99386E-04
 0.45180000E+02 -0.46954E-03
 0.45230000E+02 -0.73375E-03
 0.45279999E+02 -0.69345E-03
 0.45330002E+02 -0.50086E-03
 0.45380001E+02 -0.28639E-03
 0.45430000E+02 -0.12282E-03
 0.45480000E+02 -0.48641E-04
 0.45529999E+02 -0.60601E-06
 0.45580002E+02  0.13878E-03
 0.45630001E+02  0.25683E-03
 0.45680000E+02  0.16976E-03
 0.45730000E+02 -0.84897E-04
 0.45779999E+02 -0.40679E-03
 0.45830002E+02 -0.58868E-03
 0.45880001E+02 -0.37057E-03
 0.45930000E+02  0.13191E-03
 0.45980000E+02  0.51176E-03
 0.46029999E+02  0.57862E-03
 0.46080002E+02  0.49455E-03
 0.46130001E+02  0.45887E-03
 0.46180000E+02  0.47297E-03
 0.46230000E+02  0.45754E-03
 0.46279999E+02  0.34887E-03
 0.46330002E+02  0.14737E-04
 0.46380001E+02 -0.49034E-03
 0.46430000E+02 -0.80477E-03
 0.46480000E+02 -0.70242E-03
 0.46529999E+02 -0.28326E-03
 0.46580002E+02  0.12635E-03
 0.46630001E+02  0.33814E-03
 0.46680000E+02  0.45263E-03
 0.46730000E+02  0.46206E-03
 0.46779999E+02  0.27611E-03
 0.46830002E+02 -0.78806E-04
 0.46880001E+02 -0.52114E-03
 0.46930000E+02 -0.89054E-03
 0.46980000E+02 -0.96104E-03
 0.47029999E+02 -0.59825E-03
 0.47080002E+02  0.71900E-04
 0.47130001E+02  0.67549E-03
 0.47180000E+02  0.87595E-03
 0.47230000E+02  0.60094E-03
 0.47279999E+02  0.30265E-04
 0.47330002E+02 -0.51753E-03
 0.47380001E+02 -0.81384E-03
 0.47430000E+02 -0.79763E-03
 0.47480000E+02 -0.48562E-03
 0.47529999E+02  0.39474E-05
 0.47580002E+02  0.44126E-03
 0.47630001E+02  0.60382E-03
 0.47680000E+02  0.49828E-03
 0.47730000E+02  0.31156E-03
 0.47779999E+02  0.19726E-03
 0.47830002E+02  0.21286E-03
 0.47880001E+02  0.30012E-03
 0.47930000E+02  0.43009E-03
 0.47980000E+02  0.56151E-03
 0.48029999E+02  0.51026E-03
 0.48080002E+02  0.20021E-03
 0.48130001E+02 -0.18226E-03
 0.48180000E+02 -0.47802E-03
 0.48230000E+02 -0.63506E-03
 0.48279999E+02 -0.54009E-03
 0.48330002E+02 -0.27574E-03
 0.48380001E+02 -0.10166E-03
 0.48430000E+02 -0.15043E-04
 0.48480000E+02  0.96075E-04
 0.48529999E+02  0.12525E-03
 0.48580002E+02 -0.33963E-04
 0.48630001E+02 -0.27310E-03
 0.48680000E+02 -0.41782E-03
 0.48730000E+02 -0.37143E-03
 0.48779999E+02 -0.10806E-03
 0.48830002E+02  0.24698E-03
 0.48880001E+02  0.41470E-03
 0.48930000E+02  0.27797E-03
 0.48980000E+02 -0.92161E-05
 0.49029999E+02 -0.24537E-03
 0.49080002E+02 -0.30488E-03
 0.49130001E+02 -0.15038E-03
 0.49180000E+02  0.13912E-03
 0.49230000E+02  0.41885E-03
 0.49279999E+02  0.60428E-03
 0.49330002E+02  0.66433E-03
 0.49380001E+02  0.51429E-03
 0.49430000E+02  0.13531E-03
 0.49480000E+02 -0.24735E-03
 0.49529999E+02 -0.41059E-03
 0.49580002E+02 -0.37038E-03
 0.49630001E+02 -0.25963E-03
 0.49680000E+02 -0.13346E-03
 0.49730000E+02  0.19806E-04
 0.49779999E+02  0.13259E-03
 0.49830002E+02  0.13848E-03
 0.49880001E+02 -0.16186E-04
 0.49930000E+02 -0.32868E-03
 0.49980000E+02 -0.63331E-03
 0.50029999E+02 -0.71851E-03
 0.50080002E+02 -0.43467E-03
 0.50130001E+02  0.10525E-03
 0.50180000E+02  0.56081E-03
 0.50230000E+02  0.74071E-03
 0.50279999E+02  0.66482E-03
 0.50330002E+02  0.43793E-03
 0.50380001E+02  0.18415E-03
 0.50430000E+02  0.37025E-06
 0.50480000E+02 -0.68325E-04
 0.50529999E+02 -0.10745E-03
 0.50580002E+02 -0.18563E-03
 0.50630001E+02 -0.25481E-03
 0.50680000E+02 -0.27683E-03
 0.50730000E+02 -0.23573E-03
 0.50779999E+02 -0.16468E-03
 0.50830002E+02 -0.10944E-03
 0.50880001E+02 -0.62795E-04
 0.50930000E+02 -0.33033E-04
 0.50980000E+02 -0.49023E-04
 0.51029999E+02 -0.95465E-04
 0.51080002E+02 -0.14652E-03
 0.51130001E+02 -0.19608E-03
 0.51180000E+02 -0.23145E-03
 0.51230000E+02 -0.22543E-03
 0.51279999E+02 -0.10407E-03
 0.51330002E+02  0.18957E-03
 0.51380001E+02  0.58521E-03
 0.51430000E+02  0.92929E-03
 0.51480000E+02  0.10380E-02
 0.51529999E+02  0.78667E-03
 0.51580002E+02  0.25813E-03
 0.51630001E+02 -0.30679E-03
 0.51680000E+02 -0.68157E-03
 0.51730000E+02 -0.78861E-03
 0.51779999E+02 -0.73002E-03
 0.51830002E+02 -0.64642E-03
 0.51880001E+02 -0.54351E-03
 0.51930000E+02 -0.32409E-03
 0.51980000E+02  0.91224E-05
 0.52029999E+02  0.34910E-03
 0.52080002E+02  0.58776E-03
 0.52130001E+02  0.62406E-03
 0.52180000E+02  0.44260E-03
 0.52230000E+02  0.18840E-03
 0.52279999E+02  0.17725E-04
 0.52330002E+02 -0.65606E-04
 0.52380001E+02 -0.93326E-04
 0.52430000E+02 -0.72493E-04
 0.52480000E+02 -0.16619E-04
 0.52529999E+02  0.51450E-04
 0.52580002E+02  0.83523E-04
 0.52630001E+02  0.80852E-04
 0.52680000E+02  0.81141E-04
 0.52730000E+02  0.99352E-04
 0.52779999E+02  0.10334E-03
 0.52830002E+02  0.21229E-04
 0.52880001E+02 -0.17793E-03
 0.52930000E+02 -0.40369E-03
 0.52980000E+02 -0.50167E-03
 0.53029999E+02 -0.41792E-03
 0.53080002E+02 -0.24212E-03
 0.53130001E+02 -0.11337E-03
 0.53180000E+02 -0.47653E-04
 0.53230000E+02  0.54513E-04
 0.53279999E+02  0.24163E-03
 0.53330002E+02  0.44315E-03
 0.53380001E+02  0.52348E-03
 0.53430000E+02  0.43564E-03
 0.53480000E+02  0.24893E-03
 0.53529999E+02  0.87983E-04
 0.53580002E+02  0.39247E-04
 0.53630001E+02  0.17452E-04
 0.53680000E+02 -0.13883E-03
 0.53730000E+02 -0.39954E-03
 0.53779999E+02 -0.55435E-03
 0.53830002E+02 -0.46021E-03
 0.53880001E+02 -0.14396E-03
 0.53930000E+02  0.21523E-03
 0.53980000E+02  0.38611E-03
 0.54029999E+02  0.28170E-03
 0.54080002E+02  0.42460E-04
 0.54130001E+02 -0.12966E-03
 0.54180000E+02 -0.14097E-03
 0.54230000E+02 -0.42564E-04
 0.54279999E+02  0.46951E-04
 0.54330002E+02  0.52701E-04
 0.54380001E+02 -0.52789E-04
 0.54430000E+02 -0.23151E-03
 0.54480000E+02 -0.36049E-03
 0.54529999E+02 -0.33170E-03
 0.54580002E+02 -0.13273E-03
 0.54630001E+02  0.17225E-03
 0.54680000E+02  0.47350E-03
 0.54730000E+02  0.65400E-03
 0.54779999E+02  0.63284E-03
 0.54830002E+02  0.45308E-03
 0.54880001E+02  0.21929E-03
 0.54930000E+02 -0.19756E-04
 0.54980000E+02 -0.22309E-03
 0.55029999E+02 -0.36836E-03
 0.55080002E+02 -0.43942E-03
 0.55130001E+02 -0.42611E-03
 0.55180000E+02 -0.34594E-03
 0.55230000E+02 -0.23762E-03
 0.55279999E+02 -0.15515E-03
 0.55330002E+02 -0.11163E-03
 0.55380001E+02 -0.79075E-04
 0.55430000E+02 -0.12071E-04
 0.55480000E+02  0.10695E-03
 0.55529999E+02  0.23483E-03
 0.55580002E+02  0.30418E-03
 0.55630001E+02  0.31393E-03
 0.55680000E+02  0.32410E-03
 0.55730000E+02  0.33064E-03
 0.55779999E+02  0.27124E-03
 0.55830002E+02  0.11986E-03
 0.55880001E+02 -0.78991E-04
 0.55930000E+02 -0.27314E-03
 0.55980000E+02 -0.42431E-03
 0.56029999E+02 -0.46314E-03
 0.56080002E+02 -0.36151E-03
 0.56130001E+02 -0.18367E-03
 0.56180000E+02  0.19640E-04
 0.56230000E+02  0.26008E-03
 0.56279999E+02  0.48730E-03
 0.56330002E+02  0.57027E-03
 0.56380001E+02  0.46044E-03
 0.56430000E+02  0.21130E-03
 0.56480000E+02 -0.10881E-03
 0.56529999E+02 -0.40301E-03
 0.56580002E+02 -0.52431E-03
 0.56630001E+02 -0.40288E-03
 0.56680000E+02 -0.13083E-03
 0.56730000E+02  0.14668E-03
 0.56779999E+02  0.26265E-03
 0.56830002E+02  0.13358E-03
 0.56880001E+02 -0.15019E-03
 0.56930000E+02 -0.45001E-03
 0.56980000E+02 -0.60507E-03
 0.57029999E+02 -0.50832E-03
 0.57080002E+02 -0.20193E-03
 0.57130001E+02  0.17299E-03
 0.57180000E+02  0.49662E-03
 0.57230000E+02  0.69766E-03
 0.57279999E+02  0.68293E-03
 0.57330002E+02  0.44386E-03
 0.57380001E+02  0.91225E-04
 0.57430000E+02 -0.23100E-03
 0.57480000E+02 -0.43646E-03
 0.57529999E+02 -0.52931E-03
 0.57580002E+02 -0.49445E-03
 0.57630001E+02 -0.32377E-03
 0.57680000E+02 -0.75536E-04
 0.57730000E+02  0.17049E-03
 0.57779999E+02  0.37664E-03
 0.57830002E+02  0.51885E-03
 0.57880001E+02  0.53819E-03
 0.57930000E+02  0.42687E-03
 0.57980000E+02  0.24076E-03
 0.58029999E+02  0.35605E-04
 0.58080002E+02 -0.16510E-03
 0.58130001E+02 -0.34862E-03
 0.58180000E+02 -0.45282E-03
 0.58230000E+02 -0.41153E-03
 0.58279999E+02 -0.22542E-03
 0.58330002E+02  0.55625E-04
 0.58380001E+02  0.32926E-03
 0.58430000E+02  0.47651E-03
 0.58480000E+02  0.44255E-03
 0.58529999E+02  0.26012E-03
 0.58580002E+02  0.19664E-04
 0.58630001E+02 -0.20623E-03
 0.58680000E+02 -0.37019E-03
 0.58730000E+02 -0.43010E-03
 0.58779999E+02 -0.36809E-03
 0.58830002E+02 -0.22398E-03
 0.58880001E+02 -0.84120E-04
 0.58930000E+02 -0.34899E-06
 0.58980000E+02  0.29470E-04
 0.59029999E+02  0.29123E-04
 0.59080002E+02  0.16294E-04
 0.59130001E+02 -0.17170E-04
 0.59180000E+02 -0.61075E-04
 0.59230000E+02 -0.43016E-04
 0.59279999E+02  0.78013E-04
 0.59330002E+02  0.25769E-03
 0.59380001E+02  0.41526E-03
 0.59430000E+02  0.44770E-03
 0.59480000E+02  0.31308E-03
 0.59529999E+02  0.79924E-04
 0.59580002E+02 -0.14913E-03
 0.59630001E+02 -0.29630E-03
 0.59680000E+02 -0.33693E-03
 0.59730000E+02 -0.27924E-03
 0.59779999E+02 -0.14685E-03
 0.59830002E+02  0.10028E-05
 0.59880001E+02  0.90868E-04
 0.59930000E+02  0.85502E-04
 0.59980000E+02  0.65235E-05
 0.60029999E+02 -0.10507E-03
 0.60080002E+02 -0.21913E-03
 0.60130001E+02 -0.28252E-03
 0.60180000E+02 -0.23628E-03
 0.60230000E+02 -0.79654E-04
 0.60279999E+02  0.15023E-03
 0.60330002E+02  0.38044E-03
 0.60380001E+02  0.50954E-03
 0.60430000E+02  0.49016E-03
 0.60480000E+02  0.34304E-03
 0.60529999E+02  0.12234E-03
 0.60580002E+02 -0.11440E-03
 0.60630001E+02 -0.32077E-03
 0.60680000E+02 -0.44991E-03
 0.60730000E+02 -0.47229E-03
 0.60779999E+02 -0.40037E-03
 0.60830002E+02 -0.25215E-03
 0.60880001E+02 -0.44590E-04
 0.60930000E+02  0.18117E-03
 0.60980000E+02  0.35943E-03
 0.61029999E+02  0.43711E-03
 0.61080002E+02  0.41736E-03
 0.61130001E+02  0.30442E-03
 0.61180000E+02  0.86115E-04
 0.61230000E+02 -0.19056E-03
 0.61279999E+02 -0.41411E-03
 0.61330002E+02 -0.47484E-03
 0.61380001E+02 -0.32751E-03
 0.61430000E+02 -0.15136E-04
 0.61480000E+02  0.35431E-03
 0.61529999E+02  0.62123E-03
 0.61580002E+02  0.66904E-03
 0.61630001E+02  0.51904E-03
 0.61680000E+02  0.24963E-03
 0.61730000E+02 -0.65440E-04
 0.61779999E+02 -0.34578E-03
 0.61830002E+02 -0.51855E-03
 0.61880001E+02 -0.57506E-03
 0.61930000E+02 -0.55657E-03
 0.61980000E+02 -0.48201E-03
 0.62029999E+02 -0.35471E-03
 0.62080002E+02 -0.18881E-03
 0.62130001E+02 -0.16470E-04
 0.62180000E+02  0.13369E-03
 0.62230000E+02  0.22857E-03
 0.62279999E+02  0.23908E-03
 0.62330002E+02  0.19047E-03
 0.62380001E+02  0.14874E-03
 0.62430000E+02  0.16100E-03
 0.62480000E+02  0.19362E-03
 0.62529999E+02  0.17127E-03
 0.62580002E+02  0.77838E-04
 0.62630001E+02 -0.35895E-04
 0.62680000E+02 -0.84749E-04
 0.62730000E+02 -0.43683E-05
 0.62779999E+02  0.15827E-03
 0.62830002E+02  0.28056E-03
 0.62880001E+02  0.26393E-03
 0.62930000E+02  0.95359E-04
 0.62980000E+02 -0.12846E-03
 0.63029999E+02 -0.27436E-03
 0.63080002E+02 -0.26450E-03
 0.63130001E+02 -0.12738E-03
 0.63180000E+02  0.28712E-04
 0.63230000E+02  0.10906E-03
 0.63279999E+02  0.90628E-04
 0.63330002E+02 -0.19483E-05
 0.63380001E+02 -0.12572E-03
 0.63430000E+02 -0.21957E-03
 0.63480000E+02 -0.24672E-03
 0.63529999E+02 -0.21790E-03
 0.63580002E+02 -0.15206E-03
 0.63630001E+02 -0.50913E-04
 0.63680000E+02  0.73864E-04
 0.63730000E+02  0.18721E-03
 0.63779999E+02  0.24547E-03
 0.63830002E+02  0.21620E-03
 0.63880001E+02  0.11854E-03
 0.63930000E+02  0.75422E-05
 0.63980000E+02 -0.82269E-04
 0.64029999E+02 -0.13827E-03
 0.64080002E+02 -0.14977E-03
 0.64129997E+02 -0.11785E-03
 0.64180000E+02 -0.49993E-04
 0.64230003E+02  0.43991E-04
 0.64279999E+02  0.13701E-03
 0.64330002E+02  0.18352E-03
 0.64379997E+02  0.14797E-03
 0.64430000E+02  0.60182E-04
 0.64480003E+02 -0.75389E-05
 0.64529999E+02 -0.13133E-04
 0.64580002E+02  0.24856E-04
 0.64629997E+02  0.52848E-04
 0.64680000E+02  0.44475E-04
 0.64730003E+02  0.18025E-04
 0.64779999E+02 -0.29586E-05
 0.64830002E+02 -0.16664E-04
 0.64879997E+02 -0.21547E-04
 0.64930000E+02 -0.26628E-05
 0.64980003E+02  0.36552E-04
 0.65029999E+02  0.63138E-04
 0.65080002E+02  0.44696E-04
 0.65129997E+02 -0.21433E-04
 0.65180000E+02 -0.96327E-04
 0.65230003E+02 -0.14009E-03
 0.65279999E+02 -0.13680E-03
 0.65330002E+02 -0.96464E-04
 0.65379997E+02 -0.62676E-04
 0.65430000E+02 -0.52206E-04
 0.65480003E+02 -0.39472E-04
 0.65529999E+02 -0.14987E-04
 0.65580002E+02  0.50952E-05
 0.65629997E+02 -0.78641E-06
 0.65680000E+02 -0.34784E-04
 0.65730003E+02 -0.65105E-04
 0.65779999E+02 -0.48623E-04
 0.65830002E+02  0.26089E-04
 0.65879997E+02  0.12363E-03
 0.65930000E+02  0.19783E-03
 0.65980003E+02  0.21369E-03
 0.66029999E+02  0.16222E-03
 0.66080002E+02  0.70942E-04
 0.66129997E+02 -0.20094E-04
 0.66180000E+02 -0.76496E-04
 0.66230003E+02 -0.84466E-04
 0.66279999E+02 -0.42445E-04
 0.66330002E+02  0.36636E-04
 0.66379997E+02  0.10406E-03
 0.66430000E+02  0.10904E-03
 0.66480003E+02  0.45079E-04
 0.66529999E+02 -0.62154E-04
 0.66580002E+02 -0.16263E-03
 0.66629997E+02 -0.18751E-03
 0.66680000E+02 -0.13260E-03
 0.66730003E+02 -0.55340E-04
 0.66779999E+02 -0.28242E-05
 0.66830002E+02  0.46604E-05
 0.66879997E+02 -0.24946E-04
 0.66930000E+02 -0.71798E-04
 0.66980003E+02 -0.11343E-03
 0.67029999E+02 -0.13227E-03
 0.67080002E+02 -0.11290E-03
 0.67129997E+02 -0.64332E-04
 0.67180000E+02 -0.12980E-04
 0.67230003E+02  0.32580E-04
 0.67279999E+02  0.70129E-04
 0.67330002E+02  0.10215E-03
 0.67379997E+02  0.13434E-03
 0.67430000E+02  0.17356E-03
 0.67480003E+02  0.21272E-03
 0.67529999E+02  0.23094E-03
 0.67580002E+02  0.20590E-03
 0.67629997E+02  0.13090E-03
 0.67680000E+02  0.37684E-04
 0.67730003E+02 -0.35758E-04
 0.67779999E+02 -0.67601E-04
 0.67830002E+02 -0.54493E-04
 0.67879997E+02 -0.22273E-04
 0.67930000E+02 -0.53587E-05
 0.67980003E+02 -0.23324E-04
 0.68029999E+02 -0.79504E-04
 0.68080002E+02 -0.15273E-03
 0.68129997E+02 -0.20361E-03
 0.68180000E+02 -0.19909E-03
 0.68230003E+02 -0.12526E-03
 0.68279999E+02  0.45553E-05
 0.68330002E+02  0.15011E-03
 0.68379997E+02  0.25608E-03
 0.68430000E+02  0.27825E-03
 0.68480003E+02  0.20206E-03
 0.68529999E+02  0.41244E-04
 0.68580002E+02 -0.14895E-03
 0.68629997E+02 -0.30122E-03
 0.68680000E+02 -0.38487E-03
 0.68730003E+02 -0.38604E-03
 0.68779999E+02 -0.30203E-03
 0.68830002E+02 -0.15655E-03
 0.68879997E+02  0.13338E-04
 0.68930000E+02  0.18065E-03
 0.68980003E+02  0.31970E-03
 0.69029999E+02  0.39267E-03
 0.69080002E+02  0.38172E-03
 0.69129997E+02  0.29820E-03
 0.69180000E+02  0.16424E-03
 0.69230003E+02  0.10950E-04
 0.69279999E+02 -0.11777E-03
 0.69330002E+02 -0.19442E-03
 0.69379997E+02 -0.22890E-03
 0.69430000E+02 -0.23477E-03
 0.69480003E+02 -0.20732E-03
 0.69529999E+02 -0.13714E-03
 0.69580002E+02 -0.32519E-04
 0.69629997E+02  0.79271E-04
 0.69680000E+02  0.16580E-03
 0.69730003E+02  0.20367E-03
 0.69779999E+02  0.19345E-03
 0.69830002E+02  0.15391E-03
 0.69879997E+02  0.11572E-03
 0.69930000E+02  0.88960E-04
 0.69980003E+02  0.41537E-04
 0.70029999E+02 -0.43094E-04
 0.70080002E+02 -0.13996E-03
 0.70129997E+02 -0.20272E-03
 0.70180000E+02 -0.19940E-03
 0.70230003E+02 -0.14155E-03
 0.70279999E+02 -0.65126E-04
 0.70330002E+02 -0.76634E-05
 0.70379997E+02  0.86473E-05
 0.70430000E+02 -0.18154E-04
 0.70480003E+02 -0.62834E-04
 0.70529999E+02 -0.87386E-04
 0.70580002E+02 -0.63612E-04
 0.70629997E+02  0.10094E-04
 0.70680000E+02  0.99803E-04
 0.70730003E+02  0.16139E-03
 0.70779999E+02  0.15961E-03
 0.70830002E+02  0.10471E-03
 0.70879997E+02  0.33974E-04
 0.70930000E+02 -0.35293E-04
 0.70980003E+02 -0.93090E-04
 0.71029999E+02 -0.11895E-03
 0.71080002E+02 -0.84894E-04
 0.71129997E+02  0.87837E-05
 0.71180000E+02  0.12956E-03
 0.71230003E+02  0.22171E-03
 0.71279999E+02  0.21965E-03
 0.71330002E+02  0.10636E-03
 0.71379997E+02 -0.58688E-04
 0.71430000E+02 -0.19176E-03
 0.71480003E+02 -0.25297E-03
 0.71529999E+02 -0.24007E-03
 0.71580002E+02 -0.16151E-03
 0.71629997E+02 -0.42556E-04
 0.71680000E+02  0.73456E-04
 0.71730003E+02  0.14561E-03
 0.71779999E+02  0.15843E-03
 0.71830002E+02  0.12056E-03
 0.71879997E+02  0.50886E-04
 0.71930000E+02 -0.22499E-04
 0.71980003E+02 -0.59245E-04
 0.72029999E+02 -0.35436E-04
 0.72080002E+02  0.32445E-04
 0.72129997E+02  0.11007E-03
 0.72180000E+02  0.16345E-03
 0.72230003E+02  0.16599E-03
 0.72279999E+02  0.11456E-03
 0.72330002E+02  0.32536E-04
 0.72379997E+02 -0.49226E-04
 0.72430000E+02 -0.10903E-03
 0.72480003E+02 -0.13313E-03
 0.72529999E+02 -0.11694E-03
 0.72580002E+02 -0.63713E-04
 0.72629997E+02  0.83217E-05
 0.72680000E+02  0.54183E-04
 0.72730003E+02  0.41785E-04
 0.72779999E+02 -0.28303E-04
 0.72830002E+02 -0.13825E-03
 0.72879997E+02 -0.23416E-03
 0.72930000E+02 -0.26426E-03
 0.72980003E+02 -0.22144E-03
 0.73029999E+02 -0.12011E-03
 0.73080002E+02  0.82281E-05
 0.73129997E+02  0.12148E-03
 0.73180000E+02  0.18626E-03
 0.73230003E+02  0.18805E-03
 0.73279999E+02  0.14290E-03
 0.73330002E+02  0.88033E-04
 0.73379997E+02  0.50576E-04
 0.73430000E+02  0.36109E-04
 0.73480003E+02  0.33841E-04
 0.73529999E+02  0.32671E-04
 0.73580002E+02  0.28504E-04
 0.73629997E+02  0.19598E-04
 0.73680000E+02  0.58086E-05
 0.73730003E+02 -0.17236E-04
 0.73779999E+02 -0.45072E-04
 0.73830002E+02 -0.68288E-04
 0.73879997E+02 -0.85876E-04
 0.73930000E+02 -0.86413E-04
 0.73980003E+02 -0.52461E-04
 0.74029999E+02  0.10935E-04
 0.74080002E+02  0.78269E-04
 0.74129997E+02  0.13027E-03
 0.74180000E+02  0.15566E-03
 0.74230003E+02  0.13740E-03
 0.74279999E+02  0.68591E-04
 0.74330002E+02 -0.20880E-04
 0.74379997E+02 -0.83424E-04
 0.74430000E+02 -0.97879E-04
 0.74480003E+02 -0.75302E-04
 0.74529999E+02 -0.45511E-04
 0.74580002E+02 -0.29484E-04
 0.74629997E+02 -0.18969E-04
 0.74680000E+02  0.47667E-05
 0.74730003E+02  0.40044E-04
 0.74779999E+02  0.59543E-04
 0.74830002E+02  0.52331E-04
 0.74879997E+02  0.32095E-04
 0.74930000E+02  0.10025E-04
 0.74980003E+02 -0.80374E-05
 0.75029999E+02 -0.24782E-04
 0.75080002E+02 -0.46064E-04
 0.75129997E+02 -0.66942E-04
 0.75180000E+02 -0.73851E-04
 0.75230003E+02 -0.67216E-04
 0.75279999E+02 -0.68197E-04
 0.75330002E+02 -0.85222E-04
 0.75379997E+02 -0.10178E-03
 0.75430000E+02 -0.99165E-04
 0.75480003E+02 -0.66083E-04
 0.75529999E+02 -0.63809E-05
 0.75580002E+02  0.59917E-04
 0.75629997E+02  0.11346E-03
 0.75680000E+02  0.14489E-03
 0.75730003E+02  0.15372E-03
 0.75779999E+02  0.13572E-03
 0.75830002E+02  0.85817E-04
 0.75879997E+02  0.19001E-04
 0.75930000E+02 -0.38798E-04
 0.75980003E+02 -0.76739E-04
 0.76029999E+02 -0.96030E-04
 0.76080002E+02 -0.92333E-04
 0.76129997E+02 -0.66468E-04
 0.76180000E+02 -0.30700E-04
 0.76230003E+02  0.13448E-05
 0.76279999E+02  0.20287E-04
 0.76330002E+02  0.35294E-04
 0.76379997E+02  0.64832E-04
 0.76430000E+02  0.11421E-03
 0.76480003E+02  0.16774E-03
 0.76529999E+02  0.19283E-03
 0.76580002E+02  0.16529E-03
 0.76629997E+02  0.90843E-04
 0.76680000E+02 -0.57289E-05
 0.76730003E+02 -0.99710E-04
 0.76779999E+02 -0.16809E-03
 0.76830002E+02 -0.19342E-03
 0.76879997E+02 -0.17221E-03
 0.76930000E+02 -0.11855E-03
 0.76980003E+02 -0.57349E-04
 0.77029999E+02 -0.14282E-04
 0.77080002E+02 -0.17215E-05
 0.77129997E+02 -0.47995E-05
 0.77180000E+02 -0.69049E-05
 0.77230003E+02 -0.88257E-05
 0.77279999E+02 -0.87529E-05
 0.77330002E+02 -0.62385E-06
 0.77379997E+02  0.18015E-04
 0.77430000E+02  0.43289E-04
 0.77480003E+02  0.64463E-04
 0.77529999E+02  0.78160E-04
 0.77580002E+02  0.82821E-04
 0.77629997E+02  0.73192E-04
 0.77680000E+02  0.52060E-04
 0.77730003E+02  0.21707E-04
 0.77779999E+02 -0.16773E-04
 0.77830002E+02 -0.53635E-04
 0.77879997E+02 -0.74439E-04
 0.77930000E+02 -0.73745E-04
 0.77980003E+02 -0.58225E-04
 0.78029999E+02 -0.31591E-04
 0.78080002E+02 -0.40437E-05
 0.78129997E+02  0.46995E-05
 0.78180000E+02 -0.10184E-04
 0.78230003E+02 -0.34300E-04
 0.78279999E+02 -0.47217E-04
 0.78330002E+02 -0.38430E-04
 0.78379997E+02 -0.11789E-04
 0.78430000E+02  0.23083E-04
 0.78480003E+02  0.52913E-04
 0.78529999E+02  0.64107E-04
 0.78580002E+02  0.53356E-04
 0.78629997E+02  0.17757E-04
 0.78680000E+02 -0.39367E-04
 0.78730003E+02 -0.92701E-04
 0.78779999E+02 -0.11941E-03
 0.78830002E+02 -0.10914E-03
 0.78879997E+02 -0.61418E-04
 0.78930000E+02  0.13563E-04
 0.78980003E+02  0.99007E-04
 0.79029999E+02  0.16939E-03
 0.79080002E+02  0.19846E-03
 0.79129997E+02  0.17581E-03
 0.79180000E+02  0.11820E-03
 0.79230003E+02  0.51669E-04
 0.79279999E+02 -0.38520E-05
 0.79330002E+02 -0.30084E-04
 0.79379997E+02 -0.21947E-04
 0.79430000E+02  0.76575E-05
 0.79480003E+02  0.37417E-04
 0.79529999E+02  0.46411E-04
 0.79580002E+02  0.23387E-04
 0.79629997E+02 -0.30214E-04
 0.79680000E+02 -0.10078E-03
 0.79730003E+02 -0.16957E-03
 0.79779999E+02 -0.21929E-03
 0.79830002E+02 -0.23363E-03
 0.79879997E+02 -0.19722E-03
 0.79930000E+02 -0.10875E-03
 0.79980003E+02  0.37370E-05
 0.80029999E+02  0.95002E-04
 0.80080002E+02  0.13566E-03
 0.80129997E+02  0.12929E-03
 0.80180000E+02  0.93928E-04
 0.80230003E+02  0.54386E-04
 0.80279999E+02  0.35642E-04
 0.80330002E+02  0.39254E-04
 0.80379997E+02  0.53458E-04
 0.80430000E+02  0.73232E-04
 0.80480003E+02  0.96227E-04
 0.80529999E+02  0.11364E-03
 0.80580002E+02  0.10298E-03
 0.80629997E+02  0.46288E-04
 0.80680000E+02 -0.36247E-04
 0.80730003E+02 -0.10265E-03
 0.80779999E+02 -0.12711E-03
 0.80830002E+02 -0.11453E-03
 0.80879997E+02 -0.89099E-04
 0.80930000E+02 -0.69965E-04
 0.80980003E+02 -0.60962E-04
 0.81029999E+02 -0.49352E-04
 0.81080002E+02 -0.19680E-04
 0.81129997E+02  0.21124E-04
 0.81180000E+02  0.46100E-04
 0.81230003E+02  0.42930E-04
 0.81279999E+02  0.24269E-04
 0.81330002E+02  0.86946E-05
 0.81379997E+02  0.46905E-05
 0.81430000E+02  0.79987E-06
 0.81480003E+02 -0.13268E-04
 0.81529999E+02 -0.25524E-04
 0.81580002E+02 -0.20726E-04
 0.81629997E+02  0.42953E-05
 0.81680000E+02  0.38164E-04
 0.81730003E+02  0.61583E-04
 0.81779999E+02  0.67037E-04
 0.81830002E+02  0.56722E-04
 0.81879997E+02  0.37035E-04
 0.81930000E+02  0.13796E-04
 0.81980003E+02 -0.98137E-05
 0.82029999E+02 -0.27202E-04
 0.82080002E+02 -0.30625E-04
 0.82129997E+02 -0.12795E-04
 0.82180000E+02  0.14118E-04
 0.82230003E+02  0.27283E-04
 0.82279999E+02  0.18401E-04
 0.82330002E+02 -0.52283E-05
 0.82379997E+02 -0.23723E-04
 0.82430000E+02 -0.25228E-04
 0.82480003E+02 -0.17155E-04
 0.82529999E+02 -0.15888E-04
 0.82580002E+02 -0.25665E-04
 0.82629997E+02 -0.37698E-04
 0.82680000E+02 -0.45875E-04
 0.82730003E+02 -0.47809E-04
 0.82779999E+02 -0.43952E-04
 0.82830002E+02 -0.34791E-04
 0.82879997E+02 -0.22361E-04
 0.82930000E+02 -0.10306E-04
 0.82980003E+02 -0.11207E-05
 0.83029999E+02  0.72562E-05
 0.83080002E+02  0.19075E-04
 0.83129997E+02  0.31284E-04
 0.83180000E+02  0.36579E-04
 0.83230003E+02  0.32477E-04
 0.83279999E+02  0.24367E-04
 0.83330002E+02  0.15872E-04
 0.83379997E+02  0.80520E-05
 0.83430000E+02  0.91032E-05
 0.83480003E+02  0.27404E-04
 0.83529999E+02  0.57476E-04
 0.83580002E+02  0.81992E-04
 0.83629997E+02  0.90533E-04
 0.83680000E+02  0.85972E-04
 0.83730003E+02  0.72339E-04
 0.83779999E+02  0.47205E-04
 0.83830002E+02  0.80517E-05
 0.83879997E+02 -0.48024E-04
 0.83930000E+02 -0.11719E-03
 0.83980003E+02 -0.18045E-03
 0.84029999E+02 -0.21915E-03
 0.84080002E+02 -0.21957E-03
 0.84129997E+02 -0.17518E-03
 0.84180000E+02 -0.92800E-04
 0.84230003E+02  0.78328E-05
 0.84279999E+02  0.98424E-04
 0.84330002E+02  0.15383E-03
 0.84379997E+02  0.16739E-03
 0.84430000E+02  0.15051E-03
 0.84480003E+02  0.11501E-03
 0.84529999E+02  0.72386E-04
 0.84580002E+02  0.33897E-04
 0.84629997E+02  0.12313E-05
 0.84680000E+02 -0.30630E-04
 0.84730003E+02 -0.60833E-04
 0.84779999E+02 -0.74778E-04
 0.84830002E+02 -0.59988E-04
 0.84879997E+02 -0.21086E-04
 0.84930000E+02  0.25459E-04
 0.84980003E+02  0.59961E-04
 0.85029999E+02  0.70262E-04
 0.85080002E+02  0.52162E-04
 0.85129997E+02  0.11094E-04
 0.85180000E+02 -0.29879E-04
 0.85230003E+02 -0.46637E-04
 0.85279999E+02 -0.29912E-04
 0.85330002E+02  0.13755E-04
 0.85379997E+02  0.63507E-04
 0.85430000E+02  0.95181E-04
 0.85480003E+02  0.92267E-04
 0.85529999E+02  0.51518E-04
 0.85580002E+02 -0.17402E-04
 0.85629997E+02 -0.92020E-04
 0.85680000E+02 -0.14395E-03
 0.85730003E+02 -0.15651E-03
 0.85779999E+02 -0.13227E-03
 0.85830002E+02 -0.86566E-04
 0.85879997E+02 -0.33835E-04
 0.85930000E+02  0.14447E-04
 0.85980003E+02  0.46003E-04
 0.86029999E+02  0.53847E-04
 0.86080002E+02  0.40844E-04
 0.86129997E+02  0.15214E-04
 0.86180000E+02 -0.71152E-05
 0.86230003E+02 -0.78793E-05
 0.86279999E+02  0.15877E-04
 0.86330002E+02  0.52674E-04
 0.86379997E+02  0.75987E-04
 0.86430000E+02  0.62118E-04
 0.86480003E+02  0.17622E-04
 0.86529999E+02 -0.32498E-04
 0.86580002E+02 -0.63793E-04
 0.86629997E+02 -0.66583E-04
 0.86680000E+02 -0.48048E-04
 0.86730003E+02 -0.18811E-04
 0.86779999E+02  0.10070E-04
 0.86830002E+02  0.29231E-04
 0.86879997E+02  0.33761E-04
 0.86930000E+02  0.23937E-04
 0.86980003E+02  0.56360E-05
 0.87029999E+02 -0.12869E-04
 0.87080002E+02 -0.17470E-04
 0.87129997E+02 -0.28529E-06
 0.87180000E+02  0.27919E-04
 0.87230003E+02  0.52036E-04
 0.87279999E+02  0.62854E-04
 0.87330002E+02  0.58035E-04
 0.87379997E+02  0.37579E-04
 0.87430000E+02  0.15086E-05
 0.87480003E+02 -0.43258E-04
 0.87529999E+02 -0.81107E-04
 0.87580002E+02 -0.94357E-04
 0.87629997E+02 -0.72478E-04
 0.87680000E+02 -0.19748E-04
 0.87730003E+02  0.40237E-04
 0.87779999E+02  0.81365E-04
 0.87830002E+02  0.90375E-04
 0.87879997E+02  0.66402E-04
 0.87930000E+02  0.26503E-04
 0.87980003E+02 -0.59087E-05
 0.88029999E+02 -0.16331E-04
 0.88080002E+02 -0.99434E-05
 0.88129997E+02 -0.71409E-05
 0.88180000E+02 -0.17655E-04
 0.88230003E+02 -0.40468E-04
 0.88279999E+02 -0.68317E-04
 0.88330002E+02 -0.85847E-04
 0.88379997E+02 -0.83462E-04
 0.88430000E+02 -0.63218E-04
 0.88480003E+02 -0.35368E-04
 0.88529999E+02 -0.10376E-04
 0.88580002E+02  0.97784E-05
 0.88629997E+02  0.24040E-04
 0.88680000E+02  0.31907E-04
 0.88730003E+02  0.37632E-04
 0.88779999E+02  0.48583E-04
 0.88830002E+02  0.71081E-04
 0.88879997E+02  0.94386E-04
 0.88930000E+02  0.10063E-03
 0.88980003E+02  0.85632E-04
 0.89029999E+02  0.53605E-04
 0.89080002E+02  0.14314E-04
 0.89129997E+02 -0.17758E-04
 0.89180000E+02 -0.30860E-04
 0.89230003E+02 -0.20946E-04
 0.89279999E+02  0.13812E-05
 0.89330002E+02  0.15171E-04
 0.89379997E+02  0.94050E-05
 0.89430000E+02 -0.12308E-04
 0.89480003E+02 -0.40019E-04
 0.89529999E+02 -0.66810E-04
 0.89580002E+02 -0.89841E-04
 0.89629997E+02 -0.97052E-04
 0.89680000E+02 -0.78716E-04
 0.89730003E+02 -0.39700E-04
 0.89779999E+02  0.80642E-05
 0.89830002E+02  0.44024E-04
 0.89879997E+02  0.53464E-04
 0.89930000E+02  0.38890E-04
 0.89980003E+02  0.98192E-05
 0.90029999E+02 -0.21679E-04
 0.90080002E+02 -0.49914E-04
 0.90129997E+02 -0.72785E-04
 0.90180000E+02 -0.84894E-04
 0.90230003E+02 -0.83827E-04
 0.90279999E+02 -0.65644E-04
 0.90330002E+02 -0.31946E-04
 0.90379997E+02  0.65793E-05
 0.90430000E+02  0.41185E-04
 0.90480003E+02  0.66699E-04
 0.90529999E+02  0.86143E-04
 0.90580002E+02  0.10530E-03
 0.90629997E+02  0.12177E-03
 0.90680000E+02  0.12687E-03
 0.90730003E+02  0.11381E-03
 0.90779999E+02  0.86604E-04
 0.90830002E+02  0.56687E-04
 0.90879997E+02  0.32580E-04
 0.90930000E+02  0.15295E-04
 0.90980003E+02 -0.36240E-06
 0.91029999E+02 -0.18196E-04
 0.91080002E+02 -0.38581E-04
 0.91129997E+02 -0.59981E-04
 0.91180000E+02 -0.77941E-04
 0.91230003E+02 -0.86061E-04
 0.91279999E+02 -0.81807E-04
 0.91330002E+02 -0.68309E-04
 0.91379997E+02 -0.52126E-04
 0.91430000E+02 -0.39253E-04
 0.91480003E+02 -0.29656E-04
 0.91529999E+02 -0.22982E-04
 0.91580002E+02 -0.17258E-04
 0.91629997E+02 -0.10772E-04
 0.91680000E+02 -0.10016E-04
 0.91730003E+02 -0.19527E-04
 0.91779999E+02 -0.32520E-04
 0.91830002E+02 -0.34936E-04
 0.91879997E+02 -0.13911E-04
 0.91930000E+02  0.29008E-04
 0.91980003E+02  0.75718E-04
 0.92029999E+02  0.10948E-03
 0.92080002E+02  0.11782E-03
 0.92129997E+02  0.95760E-04
 0.92180000E+02  0.55042E-04
 0.92230003E+02  0.15133E-04
 0.92279999E+02 -0.10667E-04
 0.92330002E+02 -0.22752E-04
 0.92379997E+02 -0.23750E-04
 0.92430000E+02 -0.14072E-04
 0.92480003E+02 -0.12730E-05
 0.92529999E+02  0.58886E-05
 0.92580002E+02  0.14214E-05
 0.92629997E+02 -0.17783E-04
 0.92680000E+02 -0.46921E-04
 0.92730003E+02 -0.72657E-04
 0.92779999E+02 -0.80926E-04
 0.92830002E+02 -0.66185E-04
 0.92879997E+02 -0.30733E-04
 0.92930000E+02  0.14159E-04
 0.92980003E+02  0.50523E-04
 0.93029999E+02  0.66046E-04
 0.93080002E+02  0.55722E-04
 0.93129997E+02  0.22071E-04
 0.93180000E+02 -0.19679E-04
 0.93230003E+02 -0.50831E-04
 0.93279999E+02 -0.58028E-04
 0.93330002E+02 -0.40210E-04
 0.93379997E+02 -0.12205E-04
 0.93430000E+02  0.15773E-04
 0.93480003E+02  0.39276E-04
 0.93529999E+02  0.52166E-04
 0.93580002E+02  0.54877E-04
 0.93629997E+02  0.49908E-04
 0.93680000E+02  0.39241E-04
 0.93730003E+02  0.20429E-04
 0.93779999E+02 -0.62162E-05
 0.93830002E+02 -0.31851E-04
 0.93879997E+02 -0.48058E-04
 0.93930000E+02 -0.45660E-04
 0.93980003E+02 -0.25096E-04
 0.94029999E+02  0.17972E-05
 0.94080002E+02  0.22735E-04
 0.94129997E+02  0.30866E-04
 0.94180000E+02  0.27125E-04
 0.94230003E+02  0.14358E-04
 0.94279999E+02 -0.82036E-06
 0.94330002E+02 -0.14646E-04
 0.94379997E+02 -0.28779E-04
 0.94430000E+02 -0.41519E-04
 0.94480003E+02 -0.52137E-04
 0.94529999E+02 -0.59400E-04
 0.94580002E+02 -0.60654E-04
 0.94629997E+02 -0.54635E-04
 0.94680000E+02 -0.40614E-04
 0.94730003E+02 -0.17922E-04
 0.94779999E+02  0.16859E-04
 0.94830002E+02  0.63294E-04
 0.94879997E+02  0.11304E-03
 0.94930000E+02  0.15364E-03
 0.94980003E+02  0.16923E-03
 0.95029999E+02  0.14900E-03
 0.95080002E+02  0.97010E-04
 0.95129997E+02  0.27259E-04
 0.95180000E+02 -0.43372E-04
 0.95230003E+02 -0.98931E-04
 0.95279999E+02 -0.13148E-03
 0.95330002E+02 -0.13702E-03
 0.95379997E+02 -0.11595E-03
 0.95430000E+02 -0.81472E-04
 0.95480003E+02 -0.48212E-04
 0.95529999E+02 -0.21216E-04
 0.95580002E+02 -0.22008E-06
 0.95629997E+02  0.13579E-04
 0.95680000E+02  0.18289E-04
 0.95730003E+02  0.15342E-04
 0.95779999E+02  0.63509E-05
 0.95830002E+02 -0.61329E-05
 0.95879997E+02 -0.13729E-04
 0.95930000E+02 -0.61312E-05
 0.95980003E+02  0.14323E-04
 0.96029999E+02  0.30984E-04
 0.96080002E+02  0.33263E-04
 0.96129997E+02  0.23479E-04
 0.96180000E+02  0.94198E-05
 0.96230003E+02  0.12197E-05
 0.96279999E+02  0.29783E-05
 0.96330002E+02  0.12179E-04
 0.96379997E+02  0.25968E-04
 0.96430000E+02  0.39523E-04
 0.96480003E+02  0.49550E-04
 0.96529999E+02  0.49919E-04
 0.96580002E+02  0.31076E-04
 0.96629997E+02 -0.25160E-05
 0.96680000E+02 -0.35255E-04
 0.96730003E+02 -0.52960E-04
 0.96779999E+02 -0.49547E-04
 0.96830002E+02 -0.30293E-04
 0.96879997E+02 -0.31519E-05
 0.96930000E+02  0.22636E-04
 0.96980003E+02  0.39331E-04
 0.97029999E+02  0.45942E-04
 0.97080002E+02  0.38124E-04
 0.97129997E+02  0.13504E-04
 0.97180000E+02 -0.19053E-04
 0.97230003E+02 -0.49402E-04
 0.97279999E+02 -0.69712E-04
 0.97330002E+02 -0.75848E-04
 0.97379997E+02 -0.69260E-04
 0.97430000E+02 -0.53147E-04
 0.97480003E+02 -0.29699E-04
 0.97529999E+02  0.10226E-05
 0.97580002E+02  0.37581E-04
 0.97629997E+02  0.72028E-04
 0.97680000E+02  0.93860E-04
 0.97730003E+02  0.10006E-03
 0.97779999E+02  0.92918E-04
 0.97830002E+02  0.72434E-04
 0.97879997E+02  0.39300E-04
 0.97930000E+02 -0.14029E-05
 0.97980003E+02 -0.40519E-04
 0.98029999E+02 -0.69272E-04
 0.98080002E+02 -0.83043E-04
 0.98129997E+02 -0.79669E-04
 0.98180000E+02 -0.62438E-04
 0.98230003E+02 -0.38483E-04
 0.98279999E+02 -0.14103E-04
 0.98330002E+02  0.49015E-05
 0.98379997E+02  0.14522E-04
 0.98430000E+02  0.13081E-04
 0.98480003E+02  0.59044E-05
 0.98529999E+02  0.30042E-05
 0.98580002E+02  0.92800E-05
 0.98629997E+02  0.19474E-04
 0.98680000E+02  0.22853E-04
 0.98730003E+02  0.12202E-04
 0.98779999E+02 -0.10176E-04
 0.98830002E+02 -0.31265E-04
 0.98879997E+02 -0.39361E-04
 0.98930000E+02 -0.31255E-04
 0.98980003E+02 -0.12319E-04
 0.99029999E+02  0.77192E-05
 0.99080002E+02  0.21722E-04
 0.99129997E+02  0.32177E-04
 0.99180000E+02  0.45033E-04
 0.99230003E+02  0.57146E-04
 0.99279999E+02  0.62396E-04
 0.99330002E+02  0.54008E-04
 0.99379997E+02  0.31943E-04
 0.99430000E+02 -0.19227E-06
 0.99480003E+02 -0.34549E-04
 0.99529999E+02 -0.59997E-04
 0.99580002E+02 -0.73787E-04
 0.99629997E+02 -0.65815E-04
 0.99680000E+02 -0.40799E-04
 0.99730003E+02 -0.20790E-04
 0.99779999E+02 -0.12262E-04
 0.99830002E+02 -0.14136E-04
 0.99879997E+02 -0.18766E-04
 0.99930000E+02 -0.13448E-04
 0.99980003E+02  0.76901E-05
 0.10003000E+03  0.38617E-04
 0.10008000E+03  0.64862E-04
 0.10013000E+03  0.78613E-04
 0.10018000E+03  0.78779E-04
 0.10023000E+03  0.62190E-04
 0.10028000E+03  0.34276E-04
 0.10033000E+03  0.38465E-05
 0.10038000E+03 -0.27179E-04
 0.10043000E+03 -0.51260E-04
 0.10048000E+03 -0.61474E-04
 0.10053000E+03 -0.56484E-04
 0.10058000E+03 -0.38570E-04
 0.10063000E+03 -0.15942E-04
 0.10068000E+03  0.34086E-05
 0.10073000E+03  0.12142E-04
 0.10078000E+03  0.77280E-05
 0.10083000E+03 -0.10202E-04
 0.10088000E+03 -0.39544E-04
 0.10093000E+03 -0.69455E-04
 0.10098000E+03 -0.88770E-04
 0.10103000E+03 -0.86574E-04
 0.10108000E+03 -0.58279E-04
 0.10113000E+03 -0.11806E-04
 0.10118000E+03  0.39010E-04
 0.10123000E+03  0.78619E-04
 0.10128000E+03  0.96920E-04
 0.10133000E+03  0.93086E-04
 0.10138000E+03  0.73832E-04
 0.10143000E+03  0.48968E-04
 0.10148000E+03  0.27522E-04
 0.10153000E+03  0.16101E-04
 0.10158000E+03  0.14382E-04
 0.10163000E+03  0.17938E-04
 0.10168000E+03  0.23080E-04
 0.10173000E+03  0.25779E-04
 0.10178000E+03  0.23085E-04
 0.10183000E+03  0.14249E-04
 0.10188000E+03  0.37313E-05
 0.10193000E+03 -0.39507E-05
 0.10198000E+03 -0.89371E-05
 0.10203000E+03 -0.96757E-05
 0.10208000E+03 -0.56577E-05
 0.10213000E+03  0.79412E-06
 0.10218000E+03  0.91300E-05
 0.10223000E+03  0.15963E-04
 0.10228000E+03  0.15347E-04
 0.10233000E+03  0.53840E-05
 0.10238000E+03 -0.14489E-04
 0.10243000E+03 -0.39627E-04
 0.10248000E+03 -0.61231E-04
 0.10253000E+03 -0.73452E-04
 0.10258000E+03 -0.73254E-04
 0.10263000E+03 -0.62189E-04
 0.10268000E+03 -0.44991E-04
 0.10273000E+03 -0.28962E-04
 0.10278000E+03 -0.18407E-04
 0.10283000E+03 -0.11895E-04
 0.10288000E+03 -0.92872E-05
 0.10293000E+03 -0.10925E-04
 0.10298000E+03 -0.14961E-04
 0.10303000E+03 -0.17354E-04
 0.10308000E+03 -0.15148E-04
 0.10313000E+03 -0.92723E-05
 0.10318000E+03  0.21418E-05
 0.10323000E+03  0.24793E-04
 0.10328000E+03  0.57956E-04
 0.10333000E+03  0.90408E-04
 0.10338000E+03  0.10822E-03
 0.10343000E+03  0.10192E-03
 0.10348000E+03  0.70789E-04
 0.10353000E+03  0.25140E-04
 0.10358000E+03 -0.21637E-04
 0.10363000E+03 -0.58769E-04
 0.10368000E+03 -0.80367E-04
 0.10373000E+03 -0.85969E-04
 0.10378000E+03 -0.72741E-04
 0.10383000E+03 -0.41157E-04
 0.10388000E+03 -0.10896E-05
 0.10393000E+03  0.35866E-04
 0.10398000E+03  0.58424E-04
 0.10403000E+03  0.60471E-04
 0.10408000E+03  0.47199E-04
 0.10413000E+03  0.28117E-04
 0.10418000E+03  0.11032E-04
 0.10423000E+03  0.17423E-05
 0.10428000E+03  0.67978E-06
 0.10433000E+03  0.40795E-05
 0.10438000E+03  0.67520E-05
 0.10443000E+03  0.61733E-05
 0.10448000E+03  0.30824E-05
 0.10453000E+03 -0.45436E-05
 0.10458000E+03 -0.17349E-04
 0.10463000E+03 -0.32131E-04
 0.10468000E+03 -0.45398E-04
 0.10473000E+03 -0.52506E-04
 0.10478000E+03 -0.48630E-04
 0.10483000E+03 -0.33685E-04
 0.10488000E+03 -0.14738E-04
 0.10493000E+03  0.14293E-05
 0.10498000E+03  0.15162E-04
 0.10503000E+03  0.28949E-04
 0.10508000E+03  0.41094E-04
 0.10513000E+03  0.47893E-04
 0.10518000E+03  0.48070E-04
 0.10523000E+03  0.41447E-04
 0.10528000E+03  0.27895E-04
 0.10533000E+03  0.11742E-04
 0.10538000E+03  0.33016E-07
 0.10543000E+03 -0.56182E-05
 0.10548000E+03 -0.68233E-05
 0.10553000E+03 -0.47364E-05
 0.10558000E+03 -0.27680E-05
 0.10563000E+03 -0.73424E-05
 0.10568000E+03 -0.22126E-04
 0.10573000E+03 -0.41932E-04
 0.10578000E+03 -0.56332E-04
 0.10583000E+03 -0.56414E-04
 0.10588000E+03 -0.41738E-04
 0.10593000E+03 -0.17842E-04
 0.10598000E+03  0.69572E-05
 0.10603000E+03  0.24920E-04
 0.10608000E+03  0.34032E-04
 0.10613000E+03  0.30506E-04
 0.10618000E+03  0.14089E-04
 0.10623000E+03 -0.74004E-05
 0.10628000E+03 -0.26528E-04
 0.10633000E+03 -0.35143E-04
 0.10638000E+03 -0.28094E-04
 0.10643000E+03 -0.81313E-05
 0.10648000E+03  0.17841E-04
 0.10653000E+03  0.40421E-04
 0.10658000E+03  0.52771E-04
 0.10663000E+03  0.56132E-04
 0.10668000E+03  0.54948E-04
 0.10673000E+03  0.49579E-04
 0.10678000E+03  0.38665E-04
 0.10683000E+03  0.24449E-04
 0.10688000E+03  0.10288E-04
 0.10693000E+03 -0.41495E-05
 0.10698000E+03 -0.20932E-04
 0.10703000E+03 -0.34453E-04
 0.10708000E+03 -0.36812E-04
 0.10713000E+03 -0.29097E-04
 0.10718000E+03 -0.16987E-04
 0.10723000E+03 -0.60292E-05
 0.10728000E+03  0.11484E-05
 0.10733000E+03  0.25369E-05
 0.10738000E+03 -0.52440E-05
 0.10743000E+03 -0.24227E-04
 0.10748000E+03 -0.51610E-04
 0.10753000E+03 -0.77414E-04
 0.10758000E+03 -0.88860E-04
 0.10763000E+03 -0.77001E-04
 0.10768000E+03 -0.43569E-04
 0.10773000E+03  0.30997E-05
 0.10778000E+03  0.52111E-04
 0.10783000E+03  0.90283E-04
 0.10788000E+03  0.10883E-03
 0.10793000E+03  0.10522E-03
 0.10798000E+03  0.83872E-04
 0.10803000E+03  0.52012E-04
 0.10808000E+03  0.16359E-04
 0.10813000E+03 -0.15609E-04
 0.10818000E+03 -0.40091E-04
 0.10823000E+03 -0.55264E-04
 0.10828000E+03 -0.59468E-04
 0.10833000E+03 -0.54777E-04
 0.10838000E+03 -0.44953E-04
 0.10843000E+03 -0.32875E-04
 0.10848000E+03 -0.21223E-04
 0.10853000E+03 -0.13096E-04
 0.10858000E+03 -0.80197E-05
 0.10863000E+03 -0.13765E-05
 0.10868000E+03  0.10748E-04
 0.10873000E+03  0.28150E-04
 0.10878000E+03  0.44742E-04
 0.10883000E+03  0.53846E-04
 0.10888000E+03  0.51334E-04
 0.10893000E+03  0.35776E-04
 0.10898000E+03  0.85583E-05
 0.10903000E+03 -0.24669E-04
 0.10908000E+03 -0.51906E-04
 0.10913000E+03 -0.63903E-04
 0.10918000E+03 -0.57582E-04
 0.10923000E+03 -0.36206E-04
 0.10928000E+03 -0.99794E-05
 0.10933000E+03  0.13465E-04
 0.10938000E+03  0.31571E-04
 0.10943000E+03  0.41609E-04
 0.10948000E+03  0.40533E-04
 0.10953000E+03  0.27419E-04
 0.10958000E+03  0.61884E-05
 0.10963000E+03 -0.12942E-04
 0.10968000E+03 -0.21711E-04
 0.10973000E+03 -0.16772E-04
 0.10978000E+03 -0.59420E-06
 0.10983000E+03  0.19520E-04
 0.10988000E+03  0.38370E-04
 0.10993000E+03  0.51274E-04
 0.10998000E+03  0.56812E-04
 0.11003000E+03  0.55553E-04
 0.11008000E+03  0.47169E-04
 0.11013000E+03  0.30239E-04
 0.11018000E+03  0.41828E-05
 0.11023000E+03 -0.25595E-04
 0.11028000E+03 -0.52954E-04
 0.11033000E+03 -0.73013E-04
 0.11038000E+03 -0.80382E-04
 0.11043000E+03 -0.72252E-04
 0.11048000E+03 -0.54091E-04
 0.11053000E+03 -0.34566E-04
 0.11058000E+03 -0.16941E-04
 0.11063000E+03 -0.16540E-05
 0.11068000E+03  0.13044E-04
 0.11073000E+03  0.29463E-04
 0.11078000E+03  0.44698E-04
 0.11083000E+03  0.50989E-04
 0.11088000E+03  0.42934E-04
 0.11093000E+03  0.21698E-04
 0.11098000E+03 -0.58828E-05
 0.11103000E+03 -0.28701E-04
 0.11108000E+03 -0.35396E-04
 0.11113000E+03 -0.24054E-04
 0.11118000E+03 -0.54993E-05
 0.11123000E+03  0.72165E-05
 0.11128000E+03  0.10593E-04
 0.11133000E+03  0.69425E-05
 0.11138000E+03 -0.10875E-05
 0.11143000E+03 -0.78686E-05
 0.11148000E+03 -0.11551E-04
 0.11153000E+03 -0.13039E-04
 0.11158000E+03 -0.10389E-04
 0.11163000E+03 -0.24935E-05
 0.11168000E+03  0.83538E-05
 0.11173000E+03  0.16271E-04
 0.11178000E+03  0.17279E-04
 0.11183000E+03  0.11168E-04
 0.11188000E+03 -0.11212E-05
 0.11193000E+03 -0.15244E-04
 0.11198000E+03 -0.21995E-04
 0.11203000E+03 -0.15836E-04
 0.11208000E+03  0.35404E-06
 0.11213000E+03  0.20898E-04
 0.11218000E+03  0.38422E-04
 0.11223000E+03  0.47900E-04
 0.11228000E+03  0.48965E-04
 0.11233000E+03  0.42983E-04
 0.11238000E+03  0.33600E-04
 0.11243000E+03  0.21035E-04
 0.11248000E+03  0.10764E-05
 0.11253000E+03 -0.25192E-04
 0.11258000E+03 -0.49453E-04
 0.11263000E+03 -0.60868E-04
 0.11268000E+03 -0.52612E-04
 0.11273000E+03 -0.29232E-04
 0.11278000E+03 -0.49002E-05
 0.11283000E+03  0.71219E-05
 0.11288000E+03  0.38246E-05
 0.11293000E+03 -0.71350E-05
 0.11298000E+03 -0.16226E-04
 0.11303000E+03 -0.16835E-04
 0.11308000E+03 -0.70155E-05
 0.11313000E+03  0.78384E-05
 0.11318000E+03  0.21875E-04
 0.11323000E+03  0.32141E-04
 0.11328000E+03  0.36525E-04
 0.11333000E+03  0.35471E-04
 0.11338000E+03  0.27955E-04
 0.11343000E+03  0.13173E-04
 0.11348000E+03 -0.50999E-05
 0.11353000E+03 -0.23737E-04
 0.11358000E+03 -0.37064E-04
 0.11363000E+03 -0.38363E-04
 0.11368000E+03 -0.27999E-04
 0.11373000E+03 -0.10047E-04
 0.11378000E+03  0.67865E-05
 0.11383000E+03  0.15559E-04
 0.11388000E+03  0.17041E-04
 0.11393000E+03  0.12880E-04
 0.11398000E+03  0.67954E-05
 0.11403000E+03  0.21756E-05
 0.11408000E+03 -0.13644E-05
 0.11413000E+03 -0.65191E-05
 0.11418000E+03 -0.15447E-04
 0.11423000E+03 -0.26898E-04
 0.11428000E+03 -0.37552E-04
 0.11433000E+03 -0.41811E-04
 0.11438000E+03 -0.35103E-04
 0.11443000E+03 -0.18246E-04
 0.11448000E+03  0.30822E-05
 0.11453000E+03  0.20881E-04
 0.11458000E+03  0.28255E-04
 0.11463000E+03  0.24304E-04
 0.11468000E+03  0.14417E-04
 0.11473000E+03  0.41652E-05
 0.11478000E+03 -0.29852E-05
 0.11483000E+03 -0.43679E-05
 0.11488000E+03  0.33181E-06
 0.11493000E+03  0.10065E-04
 0.11498000E+03  0.22647E-04
 0.11503000E+03  0.33297E-04
 0.11508000E+03  0.39080E-04
 0.11513000E+03  0.37350E-04
 0.11518000E+03  0.28451E-04
 0.11523000E+03  0.17454E-04
 0.11528000E+03  0.40481E-05
 0.11533000E+03 -0.12026E-04
 0.11538000E+03 -0.25969E-04
 0.11543000E+03 -0.34790E-04
 0.11548000E+03 -0.36302E-04
 0.11553000E+03 -0.29959E-04
 0.11558000E+03 -0.18667E-04
 0.11563000E+03 -0.63344E-05
 0.11568000E+03  0.35338E-05
 0.11573000E+03  0.11134E-04
 0.11578000E+03  0.17682E-04
 0.11583000E+03  0.20928E-04
 0.11588000E+03  0.19204E-04
 0.11593000E+03  0.13804E-04
 0.11598000E+03  0.59523E-05
 0.11603000E+03 -0.78735E-06
 0.11608000E+03 -0.27209E-05
 0.11613000E+03 -0.16714E-05
 0.11618000E+03  0.13764E-05
 0.11623000E+03  0.74925E-05
 0.11628000E+03  0.16329E-04
 0.11633000E+03  0.24912E-04
 0.11638000E+03  0.26639E-04
 0.11643000E+03  0.18021E-04
 0.11648000E+03  0.15390E-05
 0.11653000E+03 -0.17782E-04
 0.11658000E+03 -0.32629E-04
 0.11663000E+03 -0.38332E-04
 0.11668000E+03 -0.36216E-04
 0.11673000E+03 -0.29021E-04
 0.11678000E+03 -0.20853E-04
 0.11683000E+03 -0.14828E-04
 0.11688000E+03 -0.11305E-04
 0.11693000E+03 -0.10932E-04
 0.11698000E+03 -0.13423E-04
 0.11703000E+03 -0.18231E-04
 0.11708000E+03 -0.22823E-04
 0.11713000E+03 -0.23066E-04
 0.11718000E+03 -0.16987E-04
 0.11723000E+03 -0.44896E-05
 0.11728000E+03  0.10949E-04
 0.11733000E+03  0.24329E-04
 0.11738000E+03  0.33363E-04
 0.11743000E+03  0.37171E-04
 0.11748000E+03  0.35188E-04
 0.11753000E+03  0.28428E-04
 0.11758000E+03  0.17717E-04
 0.11763000E+03  0.49261E-05
 0.11768000E+03 -0.44112E-05
 0.11773000E+03 -0.62278E-05
 0.11778000E+03 -0.93642E-06
 0.11783000E+03  0.82988E-05
 0.11788000E+03  0.15447E-04
 0.11793000E+03  0.15861E-04
 0.11798000E+03  0.10628E-04
 0.11803000E+03  0.33003E-05
 0.11808000E+03 -0.71092E-06
 0.11813000E+03  0.20143E-05
 0.11818000E+03  0.83560E-05
 0.11823000E+03  0.11631E-04
 0.11828000E+03  0.61256E-05
 0.11833000E+03 -0.60060E-05
 0.11838000E+03 -0.18356E-04
 0.11843000E+03 -0.28100E-04
 0.11848000E+03 -0.33942E-04
 0.11853000E+03 -0.35310E-04
 0.11858000E+03 -0.30933E-04
 0.11863000E+03 -0.18163E-04
 0.11868000E+03  0.27140E-05
 0.11873000E+03  0.27352E-04
 0.11878000E+03  0.46310E-04
 0.11883000E+03  0.51125E-04
 0.11888000E+03  0.42061E-04
 0.11893000E+03  0.23701E-04
 0.11898000E+03  0.12982E-05
 0.11903000E+03 -0.20136E-04
 0.11908000E+03 -0.35153E-04
 0.11913000E+03 -0.40231E-04
 0.11918000E+03 -0.36882E-04
 0.11923000E+03 -0.28895E-04
 0.11928000E+03 -0.20381E-04
 0.11933000E+03 -0.13227E-04
 0.11938000E+03 -0.76318E-05
 0.11943000E+03 -0.35588E-05
 0.11948000E+03 -0.10795E-05
 0.11953000E+03  0.36947E-06
 0.11958000E+03  0.42669E-05
 0.11963000E+03  0.10864E-04
 0.11968000E+03  0.16452E-04
 0.11973000E+03  0.19294E-04
 0.11978000E+03  0.17961E-04
 0.11983000E+03  0.13500E-04
 0.11988000E+03  0.88141E-05
 0.11993000E+03  0.49813E-05
 0.11998000E+03  0.35385E-05
 0.12003000E+03  0.28546E-05
 0.12008000E+03  0.12015E-05
 0.12013000E+03  0.10194E-06
 0.12018000E+03 -0.33901E-06
 0.12023000E+03  0.58162E-06
 0.12028000E+03  0.30233E-05
 0.12033000E+03  0.58307E-05
 0.12038000E+03  0.65492E-05
 0.12043000E+03  0.30279E-05
 0.12048000E+03 -0.23557E-05
 0.12053000E+03 -0.55327E-05
 0.12058000E+03 -0.36188E-05
 0.12063000E+03  0.22999E-05
 0.12068000E+03  0.96281E-05
 0.12073000E+03  0.14662E-04
 0.12078000E+03  0.12559E-04
 0.12083000E+03  0.49914E-05
 0.12088000E+03 -0.49782E-05
 0.12093000E+03 -0.15023E-04
 0.12098000E+03 -0.20668E-04
 0.12103000E+03 -0.18660E-04
 0.12108000E+03 -0.82247E-05
 0.12113000E+03  0.78181E-05
 0.12118000E+03  0.23076E-04
 0.12123000E+03  0.29402E-04
 0.12128000E+03  0.22081E-04
 0.12133000E+03  0.20747E-05
 0.12138000E+03 -0.22041E-04
 0.12143000E+03 -0.40511E-04
 0.12148000E+03 -0.47869E-04
 0.12153000E+03 -0.40463E-04
 0.12158000E+03 -0.22954E-04
 0.12163000E+03 -0.31447E-05
 0.12168000E+03  0.12551E-04
 0.12173000E+03  0.18357E-04
 0.12178000E+03  0.13793E-04
 0.12183000E+03  0.13371E-05
 0.12188000E+03 -0.13462E-04
 0.12193000E+03 -0.24296E-04
 0.12198000E+03 -0.26586E-04
 0.12203000E+03 -0.18909E-04
 0.12208000E+03 -0.49049E-05
 0.12213000E+03  0.98653E-05
 0.12218000E+03  0.21462E-04
 0.12223000E+03  0.30106E-04
 0.12228000E+03  0.34571E-04
 0.12233000E+03  0.33761E-04
 0.12238000E+03  0.30549E-04
 0.12243000E+03  0.26805E-04
 0.12248000E+03  0.24478E-04
 0.12253000E+03  0.25751E-04
 0.12258000E+03  0.29416E-04
 0.12263000E+03  0.30472E-04
 0.12268000E+03  0.24625E-04
 0.12273000E+03  0.12104E-04
 0.12278000E+03 -0.33903E-05
 0.12283000E+03 -0.19606E-04
 0.12288000E+03 -0.34470E-04
 0.12293000E+03 -0.43294E-04
 0.12298000E+03 -0.43564E-04
 0.12303000E+03 -0.34676E-04
 0.12308000E+03 -0.19716E-04
 0.12313000E+03 -0.48953E-05
 0.12318000E+03  0.49268E-05
 0.12323000E+03  0.53312E-05
 0.12328000E+03 -0.26459E-05
 0.12333000E+03 -0.13745E-04
 0.12338000E+03 -0.21728E-04
 0.12343000E+03 -0.21876E-04
 0.12348000E+03 -0.15684E-04
 0.12353000E+03 -0.77559E-05
 0.12358000E+03 -0.25214E-05
 0.12363000E+03 -0.31873E-06
 0.12368000E+03  0.34563E-06
 0.12373000E+03  0.15523E-05
 0.12378000E+03  0.61221E-05
 0.12383000E+03  0.13938E-04
 0.12388000E+03  0.23403E-04
 0.12393000E+03  0.32582E-04
 0.12398000E+03  0.38141E-04
 0.12403000E+03  0.35911E-04
 0.12408000E+03  0.26533E-04
 0.12413000E+03  0.12254E-04
 0.12418000E+03 -0.52607E-05
 0.12423000E+03 -0.22347E-04
 0.12428000E+03 -0.37140E-04
 0.12433000E+03 -0.46437E-04
 0.12438000E+03 -0.47725E-04
 0.12443000E+03 -0.39871E-04
 0.12448000E+03 -0.22567E-04
 0.12453000E+03 -0.83892E-06
 0.12458000E+03  0.17731E-04
 0.12463000E+03  0.25698E-04
 0.12468000E+03  0.22697E-04
 0.12473000E+03  0.15182E-04
 0.12478000E+03  0.93662E-05
 0.12483000E+03  0.71230E-05
 0.12488000E+03  0.79508E-05
 0.12493000E+03  0.10986E-04
 0.12498000E+03  0.12259E-04
 0.12503000E+03  0.92426E-05
 0.12508000E+03  0.59496E-05
 0.12513000E+03  0.63053E-05
 0.12518000E+03  0.32430E-05
 0.12523000E+03 -0.14374E-06
 0.12528000E+03 -0.20828E-05
 0.12533000E+03 -0.88415E-05
 0.12538000E+03 -0.76466E-05
 0.12543000E+03 -0.74536E-05
 0.12548000E+03 -0.18338E-04
 0.12553000E+03 -0.20623E-04
 0.12558000E+03 -0.16701E-04
 0.12563000E+03 -0.13056E-04
 0.12568000E+03 -0.39495E-05
 0.12573000E+03  0.68798E-05
 0.12578000E+03  0.15705E-04
 0.12583000E+03  0.19312E-04
 0.12588000E+03  0.21385E-04
 0.12593000E+03  0.24839E-04
 0.12598000E+03  0.21677E-04
 0.12603000E+03  0.89043E-05
 0.12608000E+03 -0.45142E-05
 0.12613000E+03 -0.99482E-05
 0.12618000E+03 -0.11868E-04
 0.12623000E+03 -0.97690E-05
 0.12628000E+03 -0.44914E-05
 0.12633000E+03  0.77026E-06
 0.12638000E+03  0.52859E-05
 0.12643000E+03  0.48805E-05
 0.12648000E+03  0.89498E-05
 0.12653000E+03  0.12432E-04
 0.12658000E+03  0.93040E-05
 0.12663000E+03  0.80946E-05
 0.12668000E+03  0.62283E-05
 0.12673000E+03  0.34617E-05
 0.12678000E+03 -0.54201E-05
 0.12683000E+03 -0.23095E-04
 0.12688000E+03 -0.36563E-04
 0.12693000E+03 -0.40695E-04
 0.12698000E+03 -0.37553E-04
 0.12703000E+03 -0.23209E-04
 0.12708000E+03 -0.87283E-05
 0.12713000E+03 -0.15661E-06
 0.12718000E+03  0.83143E-05
 0.12723000E+03  0.10156E-04
 0.12728000E+03  0.11924E-04
 0.12733000E+03  0.15537E-04
 0.12738000E+03  0.90226E-05
 0.12743000E+03 -0.82072E-06
 0.12748000E+03 -0.48007E-05
 0.12753000E+03 -0.72540E-05
 0.12758000E+03 -0.21104E-05
 0.12763000E+03  0.75126E-05
 0.12768000E+03  0.10014E-04
 0.12773000E+03  0.12969E-04
 0.12778000E+03  0.16417E-04
 0.12783000E+03  0.17825E-04
 0.12788000E+03  0.19596E-04
 0.12793000E+03  0.20067E-04
 0.12798000E+03  0.16353E-04
 0.12803000E+03  0.98013E-05
 0.12808000E+03  0.41169E-05
 0.12813000E+03 -0.36135E-05
 0.12818001E+03 -0.13722E-04
 0.12823000E+03 -0.23656E-04
 0.12828000E+03 -0.28816E-04
 0.12833000E+03 -0.27496E-04
 0.12838000E+03 -0.19982E-04
 0.12843001E+03 -0.48218E-05
 0.12848000E+03  0.98127E-05
 0.12853000E+03  0.21890E-04
 0.12858000E+03  0.34781E-04
 0.12863000E+03  0.39840E-04
 0.12868001E+03  0.31611E-04
 0.12873000E+03  0.15621E-04
 0.12878000E+03 -0.36803E-05
 0.12883000E+03 -0.23087E-04
 0.12888000E+03 -0.32462E-04
 0.12893001E+03 -0.28580E-04
 0.12898000E+03 -0.18144E-04
 0.12903000E+03 -0.91445E-05
 0.12908000E+03 -0.41170E-05
 0.12913000E+03  0.31016E-05
 0.12918001E+03  0.70900E-05
 0.12923000E+03  0.59038E-05
 0.12928000E+03  0.50989E-05
 0.12933000E+03 -0.12598E-05
 0.12938000E+03 -0.81849E-05
 0.12943001E+03 -0.77108E-05
 0.12948000E+03 -0.31251E-05
 0.12953000E+03  0.43760E-05
 0.12958000E+03  0.83935E-05
 0.12963000E+03  0.31165E-05
 0.12968001E+03 -0.50665E-05
 0.12973000E+03 -0.12727E-04
 0.12978000E+03 -0.17008E-04
 0.12983000E+03 -0.19290E-04
 0.12988000E+03 -0.17268E-04
 0.12993001E+03 -0.71786E-05
 0.12998000E+03 -0.15412E-05
 0.13003000E+03  0.36341E-05
 0.13008000E+03  0.12033E-04
 0.13013000E+03  0.18319E-04
 0.13018001E+03  0.20468E-04
 0.13023000E+03  0.13654E-04
 0.13028000E+03  0.71393E-05
 0.13033000E+03  0.33766E-05
 0.13038000E+03 -0.66489E-05
 0.13043001E+03 -0.20264E-04
 0.13048000E+03 -0.25332E-04
 0.13053000E+03 -0.17498E-04
 0.13058000E+03 -0.44133E-05
 0.13063000E+03  0.55714E-05
 0.13068001E+03  0.11632E-04
 0.13073000E+03  0.15523E-04
 0.13078000E+03  0.13975E-04
 0.13083000E+03  0.96482E-05
 0.13088000E+03  0.71887E-05
 0.13093001E+03  0.80163E-05
 0.13098000E+03  0.11054E-04
 0.13103000E+03  0.11286E-04
 0.13108000E+03  0.84335E-05
 0.13113000E+03  0.74972E-05
 0.13118001E+03  0.10270E-04
 0.13123000E+03  0.11643E-04
 0.13128000E+03  0.93049E-05
 0.13133000E+03  0.29054E-05
 0.13138000E+03 -0.29063E-05
 0.13143001E+03 -0.56763E-06
 0.13148000E+03  0.21274E-05
 0.13153000E+03  0.51656E-06
 0.13158000E+03  0.43542E-05
 0.13163000E+03  0.80888E-05
 0.13168001E+03  0.53877E-05
 0.13173000E+03  0.73144E-06
 0.13178000E+03 -0.98316E-05
 0.13183000E+03 -0.19493E-04
 0.13188000E+03 -0.25424E-04
 0.13193001E+03 -0.28214E-04
 0.13198000E+03 -0.23549E-04
 0.13203000E+03 -0.20102E-04
 0.13208000E+03 -0.17104E-04
 0.13213000E+03 -0.15103E-04
 0.13218001E+03 -0.15136E-04
 0.13223000E+03 -0.99837E-05
 0.13228000E+03 -0.29722E-05
 0.13233000E+03  0.43831E-05
 0.13238000E+03  0.13044E-04
 0.13243001E+03  0.17779E-04
 0.13248000E+03  0.22992E-04
 0.13253000E+03  0.29402E-04
 0.13258000E+03  0.24081E-04
 0.13263000E+03  0.11342E-04
 0.13268001E+03  0.13246E-05
 0.13273000E+03 -0.75820E-05
 0.13278000E+03 -0.14853E-04
 0.13283000E+03 -0.18239E-04
 0.13288000E+03 -0.18561E-04
 0.13293001E+03 -0.14779E-04
 0.13298000E+03 -0.78641E-05
 0.13303000E+03  0.23859E-05
 0.13308000E+03  0.14928E-04
 0.13313000E+03  0.25053E-04
 0.13318001E+03  0.30629E-04
 0.13323000E+03  0.27172E-04
 0.13328000E+03  0.23523E-04
 0.13333000E+03  0.24144E-04
 0.13338000E+03  0.20718E-04
 0.13343001E+03  0.11929E-04
 0.13348000E+03  0.63351E-06
 0.13353000E+03 -0.85773E-05
 0.13358000E+03 -0.14881E-04
 0.13363000E+03 -0.17440E-04
 0.13368001E+03 -0.19322E-04
 0.13373000E+03 -0.23296E-04
 0.13378000E+03 -0.28096E-04
 0.13383000E+03 -0.33900E-04
 0.13388000E+03 -0.40088E-04
 0.13393001E+03 -0.41704E-04
 0.13398000E+03 -0.37266E-04
 0.13403000E+03 -0.30209E-04
 0.13408000E+03 -0.18789E-04
 0.13413000E+03 -0.81811E-05
 0.13418001E+03  0.75981E-05
 0.13423000E+03  0.33017E-04
 0.13428000E+03  0.48300E-04
 0.13433000E+03  0.50751E-04
 0.13438000E+03  0.44479E-04
 0.13443001E+03  0.32477E-04
 0.13448000E+03  0.23677E-04
 0.13453000E+03  0.15649E-04
 0.13458000E+03  0.73865E-05
 0.13463000E+03  0.12854E-05
 0.13468001E+03  0.88724E-07
 0.13473000E+03  0.27893E-05
 0.13478000E+03  0.30522E-05
 0.13483000E+03 -0.14401E-05
 0.13488000E+03 -0.12537E-04
 0.13493001E+03 -0.22928E-04
 0.13498000E+03 -0.21622E-04
 0.13503000E+03 -0.91455E-05
 0.13508000E+03  0.77557E-05
 0.13513000E+03  0.13130E-04
 0.13518001E+03  0.19474E-05
 0.13523000E+03 -0.91604E-05
 0.13528000E+03 -0.12323E-04
 0.13533000E+03 -0.10556E-04
 0.13538000E+03 -0.81643E-05
 0.13543001E+03 -0.69804E-05
 0.13548000E+03 -0.58577E-05
 0.13553000E+03 -0.66706E-05
 0.13558000E+03 -0.64283E-05
 0.13563000E+03 -0.27320E-05
 0.13568001E+03  0.94923E-07
 0.13573000E+03 -0.31714E-06
 0.13578000E+03 -0.59545E-05
 0.13583000E+03 -0.13042E-04
 0.13588000E+03 -0.14981E-04
 0.13593001E+03 -0.11212E-04
 0.13598000E+03  0.10897E-05
 0.13603000E+03  0.19075E-04
 0.13608000E+03  0.31350E-04
 0.13613000E+03  0.31759E-04
 0.13618001E+03  0.26291E-04
 0.13623000E+03  0.23979E-04
 0.13628000E+03  0.22957E-04
 0.13633000E+03  0.26210E-04
 0.13638000E+03  0.31950E-04
 0.13643001E+03  0.27831E-04
 0.13648000E+03  0.17643E-04
 0.13653000E+03  0.76174E-05
 0.13658000E+03 -0.79707E-05
 0.13663000E+03 -0.31268E-04
 0.13668001E+03 -0.51719E-04
 0.13673000E+03 -0.62557E-04
 0.13678000E+03 -0.61859E-04
 0.13683000E+03 -0.50654E-04
 0.13688000E+03 -0.36132E-04
 0.13693001E+03 -0.17282E-04
 0.13698000E+03  0.25711E-05
 0.13703000E+03  0.14035E-04
 0.13708000E+03  0.16256E-04
 0.13713000E+03  0.13808E-04
 0.13718001E+03  0.10877E-04
 0.13723000E+03  0.84704E-05
 0.13728000E+03  0.76800E-05
 0.13733000E+03  0.62583E-05
 0.13738000E+03  0.39959E-05
 0.13743001E+03  0.60211E-05
 0.13748000E+03  0.13033E-04
 0.13753000E+03  0.21286E-04
 0.13758000E+03  0.24491E-04
 0.13763000E+03  0.20969E-04
 0.13768001E+03  0.13739E-04
 0.13773000E+03  0.43867E-05
 0.13778000E+03 -0.11922E-05
 0.13783000E+03  0.41728E-06
 0.13788000E+03 -0.19407E-05
 0.13793001E+03 -0.13105E-04
 0.13798000E+03 -0.20520E-04
 0.13803000E+03 -0.21001E-04
 0.13808000E+03 -0.16905E-04
 0.13813000E+03 -0.67788E-05
 0.13818001E+03 -0.11428E-05
 0.13823000E+03 -0.62947E-05
 0.13828000E+03 -0.65919E-05
 0.13833000E+03  0.47453E-05
 0.13838000E+03  0.12844E-04
 0.13843001E+03  0.93490E-05
 0.13848000E+03  0.14095E-05
 0.13853000E+03  0.11841E-05
 0.13858000E+03  0.75967E-05
 0.13863000E+03  0.11680E-04
 0.13868001E+03  0.62634E-05
 0.13873000E+03 -0.14957E-04
 0.13878000E+03 -0.34859E-04
 0.13883000E+03 -0.30664E-04
 0.13888000E+03 -0.25712E-05
 0.13893001E+03  0.26195E-04
 0.13898000E+03  0.28001E-04
 0.13903000E+03  0.10323E-04
 0.13908000E+03 -0.43954E-05
 0.13913000E+03 -0.38153E-05
 0.13918001E+03  0.68826E-05
 0.13923000E+03  0.12647E-04
 0.13928000E+03  0.10079E-04
 0.13933000E+03 -0.12416E-05
 0.13938000E+03 -0.37191E-05
 0.13943001E+03  0.13712E-04
 0.13948000E+03  0.31380E-04
 0.13953000E+03  0.28793E-04
 0.13958000E+03  0.14138E-04
 0.13963000E+03  0.90264E-05
 0.13968001E+03  0.61747E-05
 0.13973000E+03 -0.73114E-05
 0.13978000E+03 -0.24323E-04
 0.13983000E+03 -0.28095E-04
 0.13988000E+03 -0.15265E-04
 0.13993001E+03  0.19491E-05
 0.13998000E+03  0.13059E-04
 0.14003000E+03  0.11400E-04
 0.14008000E+03 -0.12625E-05
 0.14013000E+03 -0.14896E-04
 0.14018001E+03 -0.19651E-04
 0.14023000E+03 -0.21852E-04
 0.14028000E+03 -0.29269E-04
 0.14033000E+03 -0.34740E-04
 0.14038000E+03 -0.29356E-04
 0.14043001E+03 -0.11727E-04
 0.14048000E+03 -0.11890E-08
 0.14053000E+03 -0.64701E-07
 0.14058000E+03  0.12173E-05
 0.14063000E+03  0.48274E-05
 0.14068001E+03  0.13187E-04
 0.14073000E+03  0.25206E-04
 0.14078000E+03  0.36830E-04
 0.14083000E+03  0.39350E-04
 0.14088000E+03  0.21309E-04
 0.14093001E+03 -0.71742E-05
 0.14098000E+03 -0.28684E-04
 0.14103000E+03 -0.32078E-04
 0.14108000E+03 -0.25228E-04
 0.14113000E+03 -0.17630E-04
 0.14118001E+03 -0.40207E-05
 0.14123000E+03  0.11772E-04
 0.14128000E+03  0.22633E-04
 0.14133000E+03  0.28541E-04
 0.14138000E+03  0.32976E-04
 0.14143001E+03  0.27844E-04
 0.14148000E+03  0.69974E-05
 0.14153000E+03 -0.17224E-04
 0.14158000E+03 -0.32155E-04
 0.14163000E+03 -0.30781E-04
 0.14168001E+03 -0.14473E-04
 0.14173000E+03  0.34631E-05
 0.14178000E+03  0.10152E-04
 0.14183000E+03  0.15054E-04
 0.14188000E+03  0.22505E-04
 0.14193001E+03  0.22180E-04
 0.14198000E+03  0.16845E-04
 0.14203000E+03  0.58043E-05
 0.14208000E+03 -0.10016E-04
 0.14213000E+03 -0.24968E-04
 0.14218001E+03 -0.30989E-04
 0.14223000E+03 -0.17129E-04
 0.14228000E+03  0.53828E-05
 0.14233000E+03  0.20695E-04
 0.14238000E+03  0.23716E-04
 0.14243001E+03  0.10987E-04
 0.14248000E+03 -0.83616E-05
 0.14253000E+03 -0.14936E-04
 0.14258000E+03 -0.49876E-05
 0.14263000E+03  0.69679E-05
 0.14268001E+03  0.11361E-04
 0.14273000E+03  0.55258E-05
 0.14278000E+03 -0.10651E-04
 0.14283000E+03 -0.22700E-04
 0.14288000E+03 -0.19351E-04
 0.14293001E+03 -0.74066E-05
 0.14298000E+03  0.69619E-05
 0.14303000E+03  0.13595E-04
 0.14308000E+03  0.84144E-05
 0.14313000E+03  0.23663E-05
 0.14318001E+03  0.44048E-05
 0.14323000E+03  0.97220E-05
 0.14328000E+03  0.36748E-05
 0.14333000E+03 -0.76603E-05
 0.14338000E+03 -0.12715E-04
 0.14343001E+03 -0.17744E-04
 0.14348000E+03 -0.17256E-04
 0.14353000E+03 -0.69652E-05
 0.14358000E+03 -0.80850E-05
 0.14363000E+03 -0.20975E-04
 0.14368001E+03 -0.22907E-04
 0.14373000E+03 -0.10540E-04
 0.14378000E+03  0.23274E-05
 0.14383000E+03  0.62518E-05
 0.14388000E+03  0.86967E-05
 0.14393001E+03  0.11230E-04
 0.14398000E+03  0.53344E-05
 0.14403000E+03 -0.35520E-05
 0.14408000E+03  0.28622E-05
 0.14413000E+03  0.28241E-04
 0.14418001E+03  0.51233E-04
 0.14423000E+03  0.49859E-04
 0.14428000E+03  0.28043E-04
 0.14433000E+03  0.84443E-05
 0.14438000E+03 -0.43670E-05
 0.14443001E+03 -0.95329E-05
 0.14448000E+03 -0.51707E-05
 0.14453000E+03 -0.28868E-05
 0.14458000E+03 -0.75816E-05
 0.14463000E+03 -0.14500E-04
 0.14468001E+03 -0.13291E-04
 0.14473000E+03 -0.89066E-05
 0.14478000E+03 -0.16641E-04
 0.14483000E+03 -0.35635E-04
 0.14488000E+03 -0.52379E-04
 0.14493001E+03 -0.46862E-04
 0.14498000E+03 -0.19479E-04
 0.14503000E+03  0.78843E-05
 0.14508000E+03  0.26268E-04
 0.14513000E+03  0.37109E-04
 0.14518001E+03  0.41160E-04
 0.14523000E+03  0.38204E-04
 0.14528000E+03  0.27903E-04
 0.14533000E+03  0.16737E-04
 0.14538000E+03  0.13731E-04
 0.14543001E+03  0.21267E-04
 0.14548000E+03  0.25535E-04
 0.14553000E+03  0.13382E-04
 0.14558000E+03 -0.22596E-05
 0.14563000E+03 -0.94581E-05
 0.14568001E+03 -0.17033E-04
 0.14573000E+03 -0.30874E-04
 0.14578000E+03 -0.44458E-04
 0.14583000E+03 -0.49949E-04
 0.14588000E+03 -0.44548E-04
 0.14593001E+03 -0.29849E-04
 0.14598000E+03 -0.79512E-05
 0.14603000E+03  0.14369E-04
 0.14608000E+03  0.24721E-04
 0.14613000E+03  0.22708E-04
 0.14618001E+03  0.19638E-04
 0.14623000E+03  0.17099E-04
 0.14628000E+03  0.11279E-04
 0.14633000E+03  0.41524E-05
 0.14638000E+03 -0.12697E-06
 0.14643001E+03  0.43422E-05
 0.14648000E+03  0.10658E-04
 0.14653000E+03  0.73938E-05
 0.14658000E+03  0.31914E-05
 0.14663000E+03  0.27488E-05
 0.14668001E+03 -0.72567E-06
 0.14673000E+03 -0.59228E-05
 0.14678000E+03 -0.55418E-05
 0.14683000E+03  0.11548E-05
 0.14688000E+03  0.59131E-05
 0.14693001E+03  0.22525E-05
 0.14698000E+03 -0.13558E-04
 0.14703000E+03 -0.31040E-04
 0.14708000E+03 -0.31895E-04
 0.14713000E+03 -0.14586E-04
 0.14718001E+03  0.36484E-05
 0.14723000E+03  0.11519E-05
 0.14728000E+03 -0.15286E-04
 0.14733000E+03 -0.24964E-04
 0.14738000E+03 -0.22463E-04
 0.14743001E+03 -0.14647E-04
 0.14748000E+03 -0.10020E-04
 0.14753000E+03  0.39706E-06
 0.14758000E+03  0.21670E-04
 0.14763000E+03  0.40939E-04
 0.14768001E+03  0.47198E-04
 0.14773000E+03  0.40653E-04
 0.14778000E+03  0.32704E-04
 0.14783000E+03  0.26617E-04
 0.14788000E+03  0.14781E-04
 0.14793001E+03  0.68986E-06
 0.14798000E+03 -0.60851E-05
 0.14803000E+03 -0.51105E-05
 0.14808000E+03 -0.36472E-05
 0.14813000E+03 -0.56465E-05
 0.14818001E+03 -0.45708E-05
 0.14823000E+03  0.32749E-05
 0.14828000E+03  0.11916E-04
 0.14833000E+03  0.11977E-04
 0.14838000E+03  0.15394E-05
 0.14843001E+03 -0.88984E-05
 0.14848000E+03 -0.11287E-04
 0.14853000E+03 -0.10444E-04
 0.14858000E+03 -0.13579E-04
 0.14863000E+03 -0.18288E-04
 0.14868001E+03 -0.18355E-04
 0.14873000E+03 -0.12883E-04
 0.14878000E+03 -0.46072E-05
 0.14883000E+03  0.52239E-05
 0.14888000E+03  0.92141E-05
 0.14893001E+03  0.24292E-05
 0.14898000E+03 -0.80660E-05
 0.14903000E+03 -0.13756E-04
 0.14908000E+03 -0.11693E-04
 0.14913000E+03 -0.84926E-05
 0.14918001E+03 -0.53797E-05
 0.14923000E+03 -0.17087E-05
 0.14928000E+03 -0.71656E-06
 0.14933000E+03 -0.10168E-05
 0.14938000E+03 -0.21346E-05
 0.14943001E+03 -0.25375E-05
 0.14948000E+03 -0.12707E-05
 0.14953000E+03  0.44517E-05
 0.14958000E+03  0.12335E-04
 0.14963000E+03  0.13627E-04
 0.14968001E+03  0.98331E-05
 0.14973000E+03  0.66814E-05
 0.14978000E+03  0.76162E-05
 0.14983000E+03  0.10505E-04
 0.14988000E+03  0.11501E-04
 0.14993001E+03  0.77828E-05
 0.14998000E+03 -0.16020E-05
