-0.20000458E-01 -0.18453E-06
 0.29999543E-01 -0.70884E-07
 0.79999544E-01  0.10697E-07
 0.12999955E+00  0.53153E-07
 0.17999955E+00  0.53896E-07
 0.22999954E+00  0.80465E-07
 0.27999955E+00  0.11506E-06
 0.32999954E+00  0.92577E-07
 0.37999955E+00  0.66918E-07
 0.42999956E+00  0.47888E-07
 0.47999954E+00  0.15424E-07
 0.52999955E+00  0.13979E-07
 0.57999957E+00 -0.11088E-07
 0.62999958E+00 -0.33279E-07
 0.67999953E+00 -0.29026E-07
 0.72999954E+00 -0.41379E-07
 0.77999955E+00 -0.39773E-07
 0.82999957E+00 -0.42554E-07
 0.87999958E+00 -0.34714E-07
 0.92999953E+00  0.72362E-09
 0.97999954E+00  0.25779E-08
 0.10299996E+01 -0.90493E-08
 0.10799996E+01 -0.28189E-07
 0.11299995E+01 -0.45204E-07
 0.11799996E+01 -0.96544E-08
 0.12299995E+01 -0.86954E-08
 0.12799996E+01 -0.28197E-07
 0.13299996E+01 -0.29033E-07
 0.13799995E+01 -0.26436E-07
 0.14299996E+01 -0.23847E-07
 0.14799995E+01 -0.26476E-07
 0.15299996E+01  0.97915E-08
 0.15799996E+01 -0.37616E-08
 0.16299995E+01 -0.51781E-07
 0.16799996E+01 -0.59805E-07
 0.17299995E+01 -0.46737E-07
 0.17799996E+01 -0.29774E-08
 0.18299996E+01 -0.14930E-08
 0.18799995E+01 -0.27441E-07
 0.19299996E+01 -0.66524E-08
 0.19799995E+01  0.92164E-08
 0.20299995E+01  0.26659E-07
 0.20799997E+01  0.77936E-07
 0.21299996E+01  0.86949E-07
 0.21799996E+01  0.89146E-07
 0.22299995E+01  0.97005E-07
 0.22799995E+01  0.56824E-07
 0.23299997E+01  0.59113E-07
 0.23799996E+01  0.73846E-07
 0.24299996E+01  0.37934E-07
 0.24799995E+01  0.20060E-07
 0.25299995E+01  0.85861E-08
 0.25799997E+01 -0.24881E-07
 0.26299996E+01 -0.47149E-07
 0.26799996E+01 -0.28020E-07
 0.27299995E+01  0.26128E-07
 0.27799995E+01  0.44346E-07
 0.28299997E+01  0.19444E-07
 0.28799996E+01 -0.13901E-07
 0.29299996E+01 -0.53985E-07
 0.29799995E+01 -0.62346E-07
 0.30299995E+01 -0.46488E-07
 0.30799997E+01 -0.23376E-07
 0.31299996E+01 -0.80768E-08
 0.31799996E+01 -0.72225E-08
 0.32299995E+01 -0.54940E-08
 0.32799995E+01 -0.26961E-07
 0.33299997E+01 -0.42166E-07
 0.33799996E+01 -0.53734E-07
 0.34299996E+01 -0.40625E-07
 0.34799995E+01 -0.95389E-08
 0.35299995E+01 -0.14855E-07
 0.35799997E+01 -0.17672E-07
 0.36299996E+01 -0.28266E-07
 0.36799996E+01 -0.24984E-07
 0.37299995E+01 -0.16582E-08
 0.37799995E+01  0.80312E-08
 0.38299997E+01  0.17403E-07
 0.38799996E+01  0.26019E-07
 0.39299996E+01  0.16244E-07
 0.39799995E+01  0.92712E-08
 0.40299997E+01  0.98584E-08
 0.40799994E+01  0.14247E-07
 0.41299996E+01  0.11513E-07
 0.41799998E+01 -0.61759E-08
 0.42299995E+01  0.24606E-07
 0.42799997E+01  0.37368E-07
 0.43299994E+01  0.24537E-07
 0.43799996E+01  0.13337E-07
 0.44299998E+01 -0.34748E-07
 0.44799995E+01 -0.25368E-07
 0.45299997E+01  0.10306E-07
 0.45799994E+01  0.16747E-07
 0.46299996E+01  0.47953E-07
 0.46799998E+01  0.67117E-07
 0.47299995E+01  0.59605E-07
 0.47799997E+01  0.31586E-07
 0.48299994E+01 -0.89365E-08
 0.48799996E+01 -0.20398E-07
 0.49299998E+01 -0.15101E-07
 0.49799995E+01  0.39191E-08
 0.50299997E+01  0.30414E-07
 0.50799994E+01  0.15742E-07
 0.51299996E+01 -0.25388E-08
 0.51799998E+01  0.27372E-07
 0.52299995E+01  0.39152E-07
 0.52799997E+01  0.34355E-07
 0.53299994E+01  0.24116E-07
 0.53799996E+01  0.20008E-09
 0.54299998E+01 -0.35459E-08
 0.54799995E+01 -0.21675E-07
 0.55299997E+01 -0.34564E-07
 0.55799994E+01 -0.25042E-07
 0.56299996E+01 -0.11119E-07
 0.56799998E+01 -0.56997E-08
 0.57299995E+01 -0.26184E-07
 0.57799997E+01 -0.55232E-07
 0.58299994E+01 -0.52612E-07
 0.58799996E+01 -0.52710E-07
 0.59299998E+01 -0.68153E-07
 0.59799995E+01 -0.35154E-07
 0.60299997E+01 -0.38987E-07
 0.60799994E+01 -0.50923E-07
 0.61299996E+01 -0.48082E-07
 0.61799998E+01 -0.82227E-07
 0.62299995E+01 -0.55289E-07
 0.62799997E+01 -0.17759E-07
 0.63299994E+01  0.33166E-09
 0.63799996E+01  0.15310E-07
 0.64299998E+01 -0.95377E-08
 0.64799995E+01 -0.16502E-07
 0.65299997E+01 -0.19242E-07
 0.65799994E+01 -0.20054E-07
 0.66299996E+01  0.16062E-07
 0.66799998E+01  0.23324E-07
 0.67299995E+01 -0.29140E-08
 0.67799997E+01  0.13079E-08
 0.68299994E+01  0.61122E-08
 0.68799996E+01  0.20311E-07
 0.69299998E+01  0.74220E-07
 0.69799995E+01  0.77013E-07
 0.70299997E+01  0.64012E-07
 0.70799994E+01  0.92762E-07
 0.71299996E+01  0.10695E-06
 0.71799998E+01  0.99855E-07
 0.72299995E+01  0.80276E-07
 0.72799997E+01  0.90692E-07
 0.73299994E+01  0.98293E-07
 0.73799996E+01  0.64849E-07
 0.74299998E+01  0.54603E-07
 0.74799995E+01  0.48248E-07
 0.75299997E+01  0.38295E-07
 0.75799994E+01  0.34439E-07
 0.76299996E+01  0.22595E-07
 0.76799998E+01  0.89803E-08
 0.77299995E+01 -0.30695E-07
 0.77799997E+01 -0.54676E-07
 0.78299994E+01 -0.59259E-07
 0.78799996E+01 -0.77653E-07
 0.79299998E+01 -0.72804E-07
 0.79799995E+01 -0.71852E-07
 0.80299997E+01 -0.81080E-07
 0.80799999E+01 -0.84088E-07
 0.81300001E+01 -0.10008E-06
 0.81799994E+01 -0.10369E-06
 0.82299995E+01 -0.89677E-07
 0.82799997E+01 -0.82890E-07
 0.83299999E+01 -0.91693E-07
 0.83800001E+01 -0.94577E-07
 0.84299994E+01 -0.78220E-07
 0.84799995E+01 -0.53841E-07
 0.85299997E+01 -0.56296E-07
 0.85799999E+01 -0.64957E-07
 0.86300001E+01 -0.37673E-07
 0.86799994E+01 -0.79414E-08
 0.87299995E+01  0.27777E-07
 0.87799997E+01  0.46652E-07
 0.88299999E+01  0.39198E-07
 0.88800001E+01  0.56288E-07
 0.89299994E+01  0.68930E-07
 0.89799995E+01  0.59693E-07
 0.90299997E+01  0.61582E-07
 0.90799999E+01  0.77662E-07
 0.91300001E+01  0.92343E-07
 0.91799994E+01  0.88336E-07
 0.92299995E+01  0.72466E-07
 0.92799997E+01  0.76080E-07
 0.93299999E+01  0.74488E-07
 0.93800001E+01  0.76090E-07
 0.94299994E+01  0.91819E-07
 0.94799995E+01  0.81922E-07
 0.95299997E+01  0.53182E-07
 0.95799999E+01  0.28075E-07
 0.96300001E+01  0.19125E-07
 0.96799994E+01  0.19253E-07
 0.97299995E+01  0.29998E-07
 0.97799997E+01  0.14865E-07
 0.98299999E+01 -0.20053E-07
 0.98800001E+01 -0.25825E-07
 0.99299994E+01 -0.16244E-07
 0.99799995E+01  0.41204E-09
 0.10030000E+02 -0.22363E-07
 0.10080000E+02 -0.54988E-07
 0.10130000E+02 -0.45075E-07
 0.10179999E+02 -0.65119E-07
 0.10230000E+02 -0.98762E-07
 0.10280000E+02 -0.84384E-07
 0.10330000E+02 -0.63180E-07
 0.10380000E+02 -0.30896E-07
 0.10429999E+02 -0.61068E-08
 0.10480000E+02 -0.37953E-07
 0.10530000E+02 -0.44121E-07
 0.10580000E+02 -0.16111E-07
 0.10630000E+02  0.57490E-08
 0.10679999E+02  0.12903E-07
 0.10730000E+02  0.72472E-08
 0.10780000E+02 -0.99717E-08
 0.10830000E+02 -0.52438E-07
 0.10880000E+02 -0.59449E-07
 0.10929999E+02 -0.51164E-07
 0.10980000E+02 -0.36937E-07
 0.11030000E+02 -0.16239E-07
 0.11080000E+02 -0.70632E-08
 0.11130000E+02  0.49931E-08
 0.11179999E+02 -0.19499E-07
 0.11230000E+02 -0.23634E-07
 0.11280000E+02 -0.99760E-08
 0.11330000E+02 -0.88215E-08
 0.11380000E+02  0.86395E-08
 0.11429999E+02  0.11138E-07
 0.11480000E+02  0.84434E-08
 0.11530000E+02  0.22340E-08
 0.11580000E+02 -0.19279E-08
 0.11630000E+02 -0.24407E-08
 0.11679999E+02 -0.91785E-08
 0.11730000E+02 -0.59573E-08
 0.11780000E+02  0.10197E-07
 0.11830000E+02  0.13734E-07
 0.11880000E+02 -0.51195E-09
 0.11929999E+02 -0.26420E-07
 0.11980000E+02 -0.37311E-07
 0.12030000E+02  0.21147E-07
 0.12080000E+02  0.75555E-07
 0.12130000E+02  0.80762E-07
 0.12179999E+02  0.95427E-07
 0.12230000E+02  0.11498E-06
 0.12280000E+02  0.12569E-06
 0.12330000E+02  0.11806E-06
 0.12380000E+02  0.96072E-07
 0.12429999E+02  0.11028E-06
 0.12480000E+02  0.13575E-06
 0.12530000E+02  0.10476E-06
 0.12580000E+02  0.56648E-07
 0.12630000E+02  0.30249E-07
 0.12679999E+02  0.31303E-07
 0.12730000E+02  0.23260E-07
 0.12780000E+02 -0.22596E-07
 0.12830000E+02 -0.40383E-07
 0.12880000E+02 -0.23128E-07
 0.12929999E+02 -0.11605E-07
 0.12980000E+02 -0.35906E-07
 0.13030000E+02 -0.71424E-07
 0.13080000E+02 -0.86665E-07
 0.13130000E+02 -0.96882E-07
 0.13179999E+02 -0.96053E-07
 0.13230000E+02 -0.98213E-07
 0.13280000E+02 -0.11172E-06
 0.13330000E+02 -0.12462E-06
 0.13380000E+02 -0.11888E-06
 0.13429999E+02 -0.10345E-06
 0.13480000E+02 -0.85638E-07
 0.13530000E+02 -0.75743E-07
 0.13580000E+02 -0.81326E-07
 0.13630000E+02 -0.64763E-07
 0.13679999E+02 -0.30924E-07
 0.13730000E+02 -0.21342E-08
 0.13780000E+02 -0.71091E-09
 0.13830000E+02 -0.33436E-08
 0.13880000E+02 -0.23177E-07
 0.13929999E+02 -0.63257E-07
 0.13980000E+02 -0.59463E-07
 0.14030000E+02 -0.38442E-07
 0.14080000E+02 -0.12866E-07
 0.14130000E+02  0.16180E-07
 0.14179999E+02  0.18097E-07
 0.14230000E+02 -0.34047E-09
 0.14280000E+02 -0.83353E-08
 0.14330000E+02  0.10824E-07
 0.14380000E+02  0.48862E-07
 0.14429999E+02  0.66531E-07
 0.14480000E+02  0.76121E-07
 0.14530000E+02  0.11458E-06
 0.14580000E+02  0.13565E-06
 0.14630000E+02  0.13226E-06
 0.14679999E+02  0.12186E-06
 0.14730000E+02  0.10240E-06
 0.14780000E+02  0.82297E-07
 0.14830000E+02  0.78202E-07
 0.14880000E+02  0.69093E-07
 0.14929999E+02  0.57700E-07
 0.14980000E+02  0.56566E-07
 0.15030000E+02  0.32881E-07
 0.15080000E+02  0.18452E-07
 0.15130000E+02  0.16322E-07
 0.15179999E+02  0.33259E-07
 0.15230000E+02  0.53859E-07
 0.15280000E+02  0.29519E-07
 0.15330000E+02  0.11738E-07
 0.15380000E+02 -0.10093E-08
 0.15429999E+02 -0.10505E-07
 0.15480000E+02 -0.21408E-08
 0.15530000E+02 -0.10014E-07
 0.15580000E+02 -0.16862E-07
 0.15630000E+02 -0.29506E-07
 0.15679999E+02 -0.31642E-07
 0.15730000E+02 -0.37275E-07
 0.15780000E+02 -0.80525E-07
 0.15830000E+02 -0.83982E-07
 0.15880000E+02 -0.62439E-07
 0.15929999E+02 -0.63822E-07
 0.15980000E+02 -0.86001E-07
 0.16030001E+02 -0.10332E-06
 0.16080000E+02 -0.88522E-07
 0.16129999E+02 -0.79722E-07
 0.16180000E+02 -0.82485E-07
 0.16230000E+02 -0.76230E-07
 0.16280001E+02 -0.59689E-07
 0.16330000E+02 -0.51291E-07
 0.16379999E+02 -0.44187E-07
 0.16430000E+02 -0.57696E-07
 0.16480000E+02 -0.67330E-07
 0.16530001E+02 -0.30872E-07
 0.16580000E+02  0.86004E-08
 0.16629999E+02  0.30223E-07
 0.16680000E+02  0.26251E-07
 0.16730000E+02  0.33404E-07
 0.16780001E+02  0.40712E-07
 0.16830000E+02  0.39326E-07
 0.16879999E+02  0.72106E-07
 0.16930000E+02  0.10315E-06
 0.16980000E+02  0.97358E-07
 0.17030001E+02  0.84022E-07
 0.17080000E+02  0.67318E-07
 0.17129999E+02  0.32583E-07
 0.17180000E+02  0.12839E-08
 0.17230000E+02  0.87273E-08
 0.17280001E+02  0.43222E-07
 0.17330000E+02  0.56470E-07
 0.17379999E+02  0.41616E-07
 0.17430000E+02  0.18939E-07
 0.17480000E+02  0.12680E-07
 0.17530001E+02  0.11251E-07
 0.17580000E+02  0.11231E-07
 0.17629999E+02  0.49127E-08
 0.17680000E+02  0.11474E-07
 0.17730000E+02  0.29571E-07
 0.17780001E+02  0.71785E-08
 0.17830000E+02 -0.20969E-07
 0.17879999E+02 -0.33535E-07
 0.17930000E+02 -0.28492E-07
 0.17980000E+02 -0.35778E-07
 0.18030001E+02 -0.51787E-07
 0.18080000E+02 -0.47687E-07
 0.18129999E+02 -0.39826E-07
 0.18180000E+02 -0.17374E-07
 0.18230000E+02 -0.27796E-08
 0.18280001E+02  0.44021E-08
 0.18330000E+02  0.44513E-08
 0.18379999E+02  0.45256E-08
 0.18430000E+02  0.38093E-08
 0.18480000E+02 -0.63630E-08
 0.18530001E+02  0.98406E-08
 0.18580000E+02  0.24446E-07
 0.18629999E+02  0.31049E-07
 0.18680000E+02  0.18779E-07
 0.18730000E+02  0.59433E-09
 0.18780001E+02  0.15103E-07
 0.18830000E+02  0.23596E-07
 0.18879999E+02  0.12736E-07
 0.18930000E+02  0.99521E-08
 0.18980000E+02  0.22979E-07
 0.19030001E+02  0.18479E-07
 0.19080000E+02 -0.10309E-07
 0.19129999E+02 -0.35550E-07
 0.19180000E+02 -0.22663E-07
 0.19230000E+02 -0.67732E-08
 0.19280001E+02 -0.12450E-07
 0.19330000E+02 -0.12489E-07
 0.19379999E+02 -0.38531E-07
 0.19430000E+02 -0.46533E-07
 0.19480000E+02 -0.23909E-07
 0.19530001E+02 -0.19288E-07
 0.19580000E+02 -0.21379E-07
 0.19629999E+02 -0.20402E-07
 0.19680000E+02 -0.40354E-07
 0.19730000E+02 -0.74125E-07
 0.19780001E+02 -0.60408E-07
 0.19830000E+02 -0.35950E-07
 0.19879999E+02 -0.11372E-07
 0.19930000E+02  0.15113E-07
 0.19980000E+02 -0.10146E-07
 0.20030001E+02 -0.17324E-07
 0.20080000E+02  0.38815E-08
 0.20129999E+02  0.16570E-07
 0.20180000E+02  0.45993E-07
 0.20230000E+02  0.33148E-07
 0.20280001E+02  0.34330E-08
 0.20330000E+02  0.65161E-08
 0.20379999E+02  0.11973E-07
 0.20430000E+02  0.39730E-07
 0.20480000E+02  0.32123E-07
 0.20530001E+02  0.23463E-07
 0.20580000E+02  0.52452E-07
 0.20629999E+02  0.60425E-07
 0.20680000E+02  0.54480E-07
 0.20730000E+02  0.19871E-07
 0.20780001E+02  0.13691E-07
 0.20830000E+02  0.22438E-07
 0.20879999E+02  0.27446E-07
 0.20930000E+02  0.40262E-07
 0.20980000E+02  0.21229E-07
 0.21030001E+02  0.77177E-08
 0.21080000E+02 -0.95740E-08
 0.21129999E+02 -0.26822E-08
 0.21180000E+02  0.12561E-07
 0.21230000E+02  0.97199E-08
 0.21280001E+02  0.28132E-07
 0.21330000E+02  0.25872E-07
 0.21379999E+02  0.31752E-07
 0.21430000E+02  0.42178E-07
 0.21480000E+02  0.14855E-07
 0.21530001E+02 -0.23277E-07
 0.21580000E+02 -0.56871E-07
 0.21629999E+02 -0.59638E-07
 0.21680000E+02 -0.44412E-07
 0.21730000E+02 -0.37484E-07
 0.21780001E+02 -0.48043E-07
 0.21830000E+02 -0.61163E-07
 0.21879999E+02 -0.49653E-07
 0.21930000E+02 -0.34279E-07
 0.21980000E+02 -0.40880E-07
 0.22030001E+02 -0.55439E-07
 0.22080000E+02 -0.63525E-07
 0.22129999E+02 -0.85024E-07
 0.22180000E+02 -0.90381E-07
 0.22230000E+02 -0.74947E-07
 0.22280001E+02 -0.54625E-07
 0.22330000E+02 -0.13786E-07
 0.22379999E+02  0.12313E-07
 0.22430000E+02  0.32266E-07
 0.22480000E+02  0.41269E-07
 0.22530001E+02  0.23514E-07
 0.22580000E+02  0.96367E-08
 0.22629999E+02  0.29646E-08
 0.22680000E+02  0.66535E-08
 0.22730000E+02  0.27499E-07
 0.22780001E+02  0.54671E-07
 0.22830000E+02  0.78314E-07
 0.22879999E+02  0.90989E-07
 0.22930000E+02  0.88406E-07
 0.22980000E+02  0.78646E-07
 0.23030001E+02  0.67671E-07
 0.23080000E+02  0.64402E-07
 0.23129999E+02  0.50127E-07
 0.23180000E+02  0.26136E-07
 0.23230000E+02  0.19659E-07
 0.23280001E+02  0.97218E-08
 0.23330000E+02 -0.63459E-09
 0.23379999E+02  0.73851E-08
 0.23430000E+02  0.22543E-07
 0.23480000E+02  0.23048E-07
 0.23530001E+02  0.63095E-08
 0.23580000E+02 -0.20544E-07
 0.23629999E+02 -0.44523E-07
 0.23680000E+02 -0.35109E-07
 0.23730000E+02 -0.15844E-07
 0.23780001E+02 -0.56173E-08
 0.23830000E+02  0.22408E-07
 0.23879999E+02  0.40784E-07
 0.23930000E+02  0.28077E-07
 0.23980000E+02  0.98663E-08
 0.24030001E+02 -0.90106E-08
 0.24080000E+02 -0.93853E-08
 0.24129999E+02  0.11143E-07
 0.24180000E+02  0.30419E-07
 0.24230000E+02  0.45342E-07
 0.24280001E+02  0.30655E-07
 0.24330000E+02 -0.14252E-07
 0.24379999E+02 -0.31700E-07
 0.24430000E+02 -0.26734E-07
 0.24480000E+02 -0.30208E-07
 0.24530001E+02 -0.57029E-07
 0.24580000E+02 -0.11188E-06
 0.24629999E+02 -0.12506E-06
 0.24680000E+02 -0.98852E-07
 0.24730000E+02 -0.84508E-07
 0.24780001E+02 -0.86934E-07
 0.24830000E+02 -0.87110E-07
 0.24879999E+02 -0.72019E-07
 0.24930000E+02 -0.56955E-07
 0.24980000E+02 -0.41117E-07
 0.25030001E+02 -0.39665E-07
 0.25080000E+02 -0.42953E-07
 0.25129999E+02 -0.46215E-07
 0.25180000E+02 -0.42793E-07
 0.25230000E+02 -0.14743E-07
 0.25280001E+02  0.68320E-08
 0.25330000E+02  0.21722E-07
 0.25379999E+02  0.22121E-07
 0.25430000E+02  0.16597E-07
 0.25480000E+02  0.44545E-07
 0.25530001E+02  0.75704E-07
 0.25580000E+02  0.67790E-07
 0.25629999E+02  0.41657E-07
 0.25680000E+02  0.53173E-07
 0.25730000E+02  0.74701E-07
 0.25780001E+02  0.77103E-07
 0.25830000E+02  0.82858E-07
 0.25879999E+02  0.96704E-07
 0.25930000E+02  0.10662E-06
 0.25980000E+02  0.89808E-07
 0.26030001E+02  0.66405E-07
 0.26080000E+02  0.53266E-07
 0.26129999E+02  0.49968E-07
 0.26180000E+02  0.45840E-07
 0.26230000E+02  0.39309E-07
 0.26280001E+02  0.20755E-07
 0.26330000E+02  0.45859E-08
 0.26379999E+02  0.24270E-07
 0.26430000E+02  0.21935E-07
 0.26480000E+02  0.42647E-08
 0.26530001E+02  0.86011E-08
 0.26580000E+02  0.24501E-07
 0.26629999E+02  0.50344E-07
 0.26680000E+02  0.64875E-07
 0.26730000E+02  0.72786E-07
 0.26780001E+02  0.63006E-07
 0.26830000E+02  0.31457E-07
 0.26879999E+02  0.28915E-08
 0.26930000E+02 -0.16061E-07
 0.26980000E+02 -0.25726E-07
 0.27030001E+02 -0.38264E-07
 0.27080000E+02 -0.56241E-07
 0.27129999E+02 -0.78063E-07
 0.27180000E+02 -0.11001E-06
 0.27230000E+02 -0.14527E-06
 0.27280001E+02 -0.15982E-06
 0.27330000E+02 -0.14291E-06
 0.27379999E+02 -0.13399E-06
 0.27430000E+02 -0.14772E-06
 0.27480000E+02 -0.15868E-06
 0.27530001E+02 -0.16777E-06
 0.27580000E+02 -0.16572E-06
 0.27629999E+02 -0.14870E-06
 0.27680000E+02 -0.12603E-06
 0.27730000E+02 -0.92366E-07
 0.27780001E+02 -0.44339E-07
 0.27830000E+02  0.13843E-07
 0.27879999E+02  0.98882E-07
 0.27930000E+02  0.17030E-06
 0.27980000E+02  0.25726E-06
 0.28030001E+02  0.38403E-06
 0.28080000E+02  0.61823E-06
 0.28129999E+02  0.92091E-06
 0.28180000E+02  0.71101E-06
 0.28230000E+02 -0.31134E-06
 0.28280001E+02 -0.12406E-05
 0.28330000E+02 -0.66338E-06
 0.28379999E+02 -0.37316E-06
 0.28430000E+02 -0.10439E-05
 0.28480000E+02 -0.25880E-06
 0.28530001E+02  0.20388E-06
 0.28580000E+02 -0.25030E-06
 0.28629999E+02  0.38939E-06
 0.28680000E+02  0.23039E-05
 0.28730000E+02  0.26428E-05
 0.28780001E+02  0.26486E-06
 0.28830000E+02 -0.62281E-06
 0.28879999E+02 -0.85188E-06
 0.28930000E+02 -0.17820E-05
 0.28980000E+02 -0.82572E-06
 0.29030001E+02  0.11577E-05
 0.29080000E+02  0.38044E-07
 0.29129999E+02 -0.26005E-05
 0.29180000E+02 -0.11959E-05
 0.29230000E+02  0.76692E-06
 0.29280001E+02  0.10769E-05
 0.29330000E+02  0.22990E-05
 0.29379999E+02  0.21330E-05
 0.29430000E+02  0.24136E-06
 0.29480000E+02  0.12272E-05
 0.29530001E+02  0.23786E-05
 0.29580000E+02  0.21489E-06
 0.29629999E+02 -0.57139E-06
 0.29680000E+02 -0.33623E-05
 0.29730000E+02 -0.59994E-05
 0.29780001E+02 -0.28403E-05
 0.29830000E+02 -0.25741E-05
 0.29879999E+02 -0.31949E-05
 0.29930000E+02  0.35970E-06
 0.29980000E+02  0.86327E-06
 0.30030001E+02  0.12442E-05
 0.30080000E+02  0.72565E-05
 0.30129999E+02  0.12386E-04
 0.30180000E+02  0.18089E-04
 0.30230000E+02  0.18853E-04
 0.30280001E+02  0.92167E-05
 0.30330000E+02  0.13906E-05
 0.30379999E+02 -0.10903E-04
 0.30430000E+02 -0.22361E-04
 0.30480000E+02 -0.24870E-04
 0.30530001E+02 -0.28599E-04
 0.30580000E+02 -0.27296E-04
 0.30629999E+02 -0.24147E-04
 0.30680000E+02 -0.18002E-04
 0.30730000E+02 -0.12391E-05
 0.30780001E+02  0.14291E-04
 0.30830000E+02  0.26450E-04
 0.30879999E+02  0.38531E-04
 0.30930000E+02  0.46181E-04
 0.30980000E+02  0.39626E-04
 0.31030001E+02  0.23987E-04
 0.31080000E+02  0.92200E-05
 0.31129999E+02 -0.80938E-05
 0.31180000E+02 -0.20519E-04
 0.31230000E+02 -0.30867E-04
 0.31280001E+02 -0.33648E-04
 0.31330000E+02 -0.30834E-04
 0.31379999E+02 -0.31785E-04
 0.31430000E+02 -0.21625E-04
 0.31480000E+02 -0.80587E-05
 0.31530001E+02  0.20483E-05
 0.31580000E+02  0.18406E-04
 0.31629999E+02  0.34144E-04
 0.31680000E+02  0.30445E-04
 0.31730000E+02  0.19689E-04
 0.31780001E+02  0.12845E-04
 0.31830000E+02  0.73605E-05
 0.31879999E+02  0.28276E-05
 0.31930000E+02 -0.75327E-06
 0.31980000E+02 -0.13245E-06
 0.32029999E+02  0.21399E-05
 0.32080002E+02  0.78763E-05
 0.32130001E+02 -0.16943E-04
 0.32180000E+02 -0.46397E-04
 0.32230000E+02 -0.44273E-04
 0.32279999E+02 -0.29890E-04
 0.32330002E+02  0.41617E-06
 0.32380001E+02  0.17150E-04
 0.32430000E+02  0.27962E-04
 0.32480000E+02  0.35099E-04
 0.32529999E+02  0.18129E-04
 0.32580002E+02  0.76787E-05
 0.32630001E+02 -0.20187E-05
 0.32680000E+02 -0.12612E-04
 0.32730000E+02 -0.63767E-05
 0.32779999E+02  0.26155E-05
 0.32830002E+02  0.15513E-04
 0.32880001E+02  0.20059E-04
 0.32930000E+02  0.55218E-05
 0.32980000E+02 -0.87239E-07
 0.33029999E+02 -0.26078E-05
 0.33080002E+02 -0.65694E-05
 0.33130001E+02 -0.19674E-04
 0.33180000E+02 -0.24550E-04
 0.33230000E+02 -0.33842E-05
 0.33279999E+02  0.17356E-05
 0.33330002E+02  0.49609E-05
 0.33380001E+02  0.32029E-05
 0.33430000E+02 -0.70491E-06
 0.33480000E+02  0.12243E-04
 0.33529999E+02  0.52277E-05
 0.33580002E+02 -0.11909E-05
 0.33630001E+02  0.20940E-05
 0.33680000E+02 -0.14238E-04
 0.33730000E+02 -0.28025E-04
 0.33779999E+02 -0.17865E-04
 0.33830002E+02 -0.90145E-05
 0.33880001E+02  0.38033E-05
 0.33930000E+02  0.30206E-04
 0.33980000E+02  0.29196E-04
 0.34029999E+02  0.20273E-04
 0.34080002E+02  0.22005E-04
 0.34130001E+02  0.17578E-04
 0.34180000E+02  0.17613E-04
 0.34230000E+02  0.72933E-06
 0.34279999E+02 -0.30705E-04
 0.34330002E+02 -0.40803E-04
 0.34380001E+02 -0.32103E-04
 0.34430000E+02 -0.23066E-04
 0.34480000E+02 -0.53990E-05
 0.34529999E+02  0.17103E-04
 0.34580002E+02  0.10203E-04
 0.34630001E+02 -0.21571E-05
 0.34680000E+02  0.35557E-05
 0.34730000E+02 -0.15766E-05
 0.34779999E+02 -0.58730E-05
 0.34830002E+02  0.68606E-05
 0.34880001E+02  0.14987E-04
 0.34930000E+02  0.13808E-04
 0.34980000E+02  0.12627E-04
 0.35029999E+02  0.67579E-05
 0.35080002E+02 -0.12840E-04
 0.35130001E+02 -0.23847E-04
 0.35180000E+02 -0.21273E-04
 0.35230000E+02 -0.20087E-04
 0.35279999E+02 -0.34457E-06
 0.35330002E+02  0.18460E-04
 0.35380001E+02  0.27604E-04
 0.35430000E+02  0.29534E-04
 0.35480000E+02  0.51813E-05
 0.35529999E+02 -0.99532E-05
 0.35580002E+02 -0.10925E-04
 0.35630001E+02 -0.42577E-05
 0.35680000E+02  0.58209E-05
 0.35730000E+02  0.17231E-05
 0.35779999E+02 -0.48068E-05
 0.35830002E+02 -0.11438E-04
 0.35880001E+02 -0.60794E-05
 0.35930000E+02  0.63225E-06
 0.35980000E+02  0.49874E-05
 0.36029999E+02  0.81011E-05
 0.36080002E+02 -0.16875E-05
 0.36130001E+02  0.76131E-05
 0.36180000E+02  0.24200E-04
 0.36230000E+02  0.14214E-04
 0.36279999E+02 -0.10529E-04
 0.36330002E+02 -0.21799E-04
 0.36380001E+02 -0.14815E-04
 0.36430000E+02 -0.88427E-05
 0.36480000E+02 -0.32247E-05
 0.36529999E+02 -0.27505E-05
 0.36580002E+02 -0.13116E-04
 0.36630001E+02 -0.23069E-04
 0.36680000E+02 -0.23402E-04
 0.36730000E+02 -0.75217E-05
 0.36779999E+02  0.16365E-04
 0.36830002E+02  0.39749E-04
 0.36880001E+02  0.41605E-04
 0.36930000E+02  0.18970E-04
 0.36980000E+02  0.65394E-05
 0.37029999E+02 -0.10993E-04
 0.37080002E+02 -0.31115E-04
 0.37130001E+02 -0.17589E-04
 0.37180000E+02  0.11109E-04
 0.37230000E+02  0.28697E-04
 0.37279999E+02  0.38652E-04
 0.37330002E+02  0.37307E-04
 0.37380001E+02 -0.24170E-05
 0.37430000E+02 -0.53782E-04
 0.37480000E+02 -0.67529E-04
 0.37529999E+02 -0.41262E-04
 0.37580002E+02 -0.60611E-05
 0.37630001E+02  0.79333E-05
 0.37680000E+02  0.72692E-05
 0.37730000E+02 -0.45750E-05
 0.37779999E+02 -0.38944E-05
 0.37830002E+02  0.11051E-04
 0.37880001E+02  0.13230E-04
 0.37930000E+02  0.11871E-04
 0.37980000E+02  0.10028E-04
 0.38029999E+02  0.12966E-04
 0.38080002E+02  0.16080E-04
 0.38130001E+02  0.20339E-04
 0.38180000E+02  0.20962E-04
 0.38230000E+02 -0.19264E-05
 0.38279999E+02 -0.21315E-04
 0.38330002E+02 -0.17815E-04
 0.38380001E+02 -0.88773E-05
 0.38430000E+02  0.66091E-06
 0.38480000E+02  0.12327E-05
 0.38529999E+02 -0.11278E-04
 0.38580002E+02 -0.12283E-04
 0.38630001E+02 -0.72520E-05
 0.38680000E+02 -0.24809E-05
 0.38730000E+02  0.72405E-05
 0.38779999E+02  0.23246E-04
 0.38830002E+02  0.27382E-04
 0.38880001E+02  0.60339E-05
 0.38930000E+02  0.27306E-05
 0.38980000E+02  0.58309E-05
 0.39029999E+02 -0.63182E-05
 0.39080002E+02 -0.14163E-04
 0.39130001E+02 -0.11085E-04
 0.39180000E+02  0.15872E-05
 0.39230000E+02  0.50777E-05
 0.39279999E+02  0.48821E-05
 0.39330002E+02 -0.12972E-05
 0.39380001E+02 -0.89678E-05
 0.39430000E+02 -0.10535E-05
 0.39480000E+02  0.21306E-05
 0.39529999E+02 -0.37206E-05
 0.39580002E+02 -0.12018E-04
 0.39630001E+02 -0.16421E-04
 0.39680000E+02 -0.13526E-04
 0.39730000E+02 -0.11354E-04
 0.39779999E+02 -0.15903E-04
 0.39830002E+02 -0.11269E-04
 0.39880001E+02  0.22712E-04
 0.39930000E+02  0.40518E-04
 0.39980000E+02  0.16555E-04
 0.40029999E+02 -0.51722E-05
 0.40080002E+02 -0.30834E-05
 0.40130001E+02  0.78294E-05
 0.40180000E+02  0.10134E-04
 0.40230000E+02  0.50613E-05
 0.40279999E+02  0.17811E-05
 0.40330002E+02  0.30468E-05
 0.40380001E+02  0.38160E-05
 0.40430000E+02 -0.26254E-05
 0.40480000E+02 -0.97294E-05
 0.40529999E+02 -0.24477E-06
 0.40580002E+02  0.15288E-04
 0.40630001E+02  0.14588E-04
 0.40680000E+02 -0.86341E-06
 0.40730000E+02 -0.19884E-04
 0.40779999E+02 -0.31368E-04
 0.40830002E+02 -0.39161E-04
 0.40880001E+02 -0.38013E-04
 0.40930000E+02 -0.18779E-04
 0.40980000E+02  0.82371E-05
 0.41029999E+02  0.30596E-04
 0.41080002E+02  0.37787E-04
 0.41130001E+02  0.25022E-04
 0.41180000E+02  0.84306E-05
 0.41230000E+02  0.33436E-05
 0.41279999E+02 -0.62780E-05
 0.41330002E+02 -0.17329E-04
 0.41380001E+02 -0.12657E-04
 0.41430000E+02 -0.32677E-05
 0.41480000E+02 -0.14836E-05
 0.41529999E+02  0.17894E-05
 0.41580002E+02  0.14115E-04
 0.41630001E+02  0.29296E-04
 0.41680000E+02  0.30916E-04
 0.41730000E+02  0.62494E-05
 0.41779999E+02 -0.98209E-05
 0.41830002E+02  0.40544E-05
 0.41880001E+02  0.14114E-04
 0.41930000E+02 -0.15239E-05
 0.41980000E+02 -0.21158E-04
 0.42029999E+02 -0.23782E-04
 0.42080002E+02 -0.15356E-04
 0.42130001E+02 -0.46126E-05
 0.42180000E+02 -0.34478E-05
 0.42230000E+02  0.47437E-05
 0.42279999E+02  0.14574E-04
 0.42330002E+02 -0.16245E-05
 0.42380001E+02 -0.19143E-04
 0.42430000E+02 -0.26308E-04
 0.42480000E+02 -0.26143E-04
 0.42529999E+02 -0.19976E-04
 0.42580002E+02 -0.53241E-05
 0.42630001E+02  0.12717E-04
 0.42680000E+02  0.11363E-04
 0.42730000E+02  0.10681E-04
 0.42779999E+02  0.14789E-04
 0.42830002E+02  0.63674E-05
 0.42880001E+02  0.15417E-05
 0.42930000E+02  0.88190E-05
 0.42980000E+02  0.18760E-04
 0.43029999E+02  0.18190E-04
 0.43080002E+02  0.15724E-04
 0.43130001E+02  0.12652E-04
 0.43180000E+02 -0.46740E-07
 0.43230000E+02 -0.61658E-05
 0.43279999E+02 -0.95415E-05
 0.43330002E+02 -0.15999E-04
 0.43380001E+02 -0.13838E-04
 0.43430000E+02 -0.34891E-05
 0.43480000E+02  0.31130E-05
 0.43529999E+02 -0.53158E-05
 0.43580002E+02 -0.95424E-05
 0.43630001E+02 -0.11568E-05
 0.43680000E+02 -0.35853E-05
 0.43730000E+02 -0.62405E-05
 0.43779999E+02 -0.22274E-05
 0.43830002E+02 -0.24259E-05
 0.43880001E+02  0.23500E-05
 0.43930000E+02  0.13957E-04
 0.43980000E+02  0.25909E-04
 0.44029999E+02  0.24851E-04
 0.44080002E+02  0.13053E-04
 0.44130001E+02 -0.63695E-05
 0.44180000E+02 -0.31671E-04
 0.44230000E+02 -0.40065E-04
 0.44279999E+02 -0.30099E-04
 0.44330002E+02 -0.10795E-04
 0.44380001E+02  0.80235E-05
 0.44430000E+02  0.23339E-04
 0.44480000E+02  0.33144E-04
 0.44529999E+02  0.28666E-04
 0.44580002E+02  0.19957E-04
 0.44630001E+02  0.15436E-04
 0.44680000E+02  0.96742E-05
 0.44730000E+02 -0.30590E-05
 0.44779999E+02 -0.76967E-05
 0.44830002E+02 -0.73836E-05
 0.44880001E+02 -0.13488E-04
 0.44930000E+02 -0.12383E-04
 0.44980000E+02 -0.15869E-04
 0.45029999E+02 -0.21442E-04
 0.45080002E+02 -0.22403E-04
 0.45130001E+02 -0.18336E-04
 0.45180000E+02 -0.76965E-05
 0.45230000E+02 -0.57782E-05
 0.45279999E+02  0.40483E-05
 0.45330002E+02  0.12761E-04
 0.45380001E+02  0.86058E-05
 0.45430000E+02  0.17061E-04
 0.45480000E+02  0.33970E-04
 0.45529999E+02  0.38178E-04
 0.45580002E+02  0.24958E-04
 0.45630001E+02  0.75360E-05
 0.45680000E+02 -0.97036E-05
 0.45730000E+02 -0.28883E-04
 0.45779999E+02 -0.42659E-04
 0.45830002E+02 -0.40565E-04
 0.45880001E+02 -0.21508E-04
 0.45930000E+02 -0.31584E-05
 0.45980000E+02  0.48082E-07
 0.46029999E+02 -0.29072E-05
 0.46080002E+02 -0.29766E-05
 0.46130001E+02  0.38279E-05
 0.46180000E+02  0.10960E-04
 0.46230000E+02  0.16126E-04
 0.46279999E+02  0.28297E-04
 0.46330002E+02  0.29724E-04
 0.46380001E+02  0.20498E-04
 0.46430000E+02  0.14158E-04
 0.46480000E+02  0.10345E-04
 0.46529999E+02  0.48446E-05
 0.46580002E+02 -0.80886E-05
 0.46630001E+02 -0.73295E-05
 0.46680000E+02 -0.34364E-05
 0.46730000E+02 -0.16871E-04
 0.46779999E+02 -0.23436E-04
 0.46830002E+02 -0.17025E-04
 0.46880001E+02 -0.12027E-05
 0.46930000E+02  0.90193E-05
 0.46980000E+02  0.36575E-06
 0.47029999E+02 -0.10552E-04
 0.47080002E+02 -0.16578E-04
 0.47130001E+02 -0.15523E-04
 0.47180000E+02 -0.54585E-05
 0.47230000E+02  0.68070E-05
 0.47279999E+02  0.14828E-04
 0.47330002E+02  0.17257E-04
 0.47380001E+02  0.18043E-04
 0.47430000E+02  0.17431E-04
 0.47480000E+02  0.84819E-06
 0.47529999E+02 -0.19924E-04
 0.47580002E+02 -0.17695E-04
 0.47630001E+02  0.16220E-05
 0.47680000E+02  0.18045E-04
 0.47730000E+02  0.15065E-04
 0.47779999E+02  0.11761E-05
 0.47830002E+02 -0.14141E-04
 0.47880001E+02 -0.26656E-04
 0.47930000E+02 -0.27332E-04
 0.47980000E+02 -0.12725E-04
 0.48029999E+02  0.79139E-05
 0.48080002E+02  0.13209E-04
 0.48130001E+02  0.76777E-05
 0.48180000E+02  0.39185E-05
 0.48230000E+02  0.30733E-05
 0.48279999E+02  0.20536E-05
 0.48330002E+02  0.37867E-05
 0.48380001E+02  0.90077E-05
 0.48430000E+02  0.72990E-05
 0.48480000E+02  0.21051E-05
 0.48529999E+02  0.10479E-04
 0.48580002E+02  0.27857E-04
 0.48630001E+02  0.22667E-04
 0.48680000E+02 -0.34227E-05
 0.48730000E+02 -0.26275E-04
 0.48779999E+02 -0.30818E-04
 0.48830002E+02 -0.18280E-04
 0.48880001E+02 -0.57921E-05
 0.48930000E+02  0.39366E-05
 0.48980000E+02  0.67142E-05
 0.49029999E+02  0.37027E-05
 0.49080002E+02  0.29355E-05
 0.49130001E+02  0.70003E-05
 0.49180000E+02  0.14136E-04
 0.49230000E+02  0.11677E-04
 0.49279999E+02  0.49662E-05
 0.49330002E+02 -0.15904E-05
 0.49380001E+02 -0.14208E-04
 0.49430000E+02 -0.20509E-04
 0.49480000E+02 -0.17965E-04
 0.49529999E+02 -0.10388E-04
 0.49580002E+02  0.56456E-05
 0.49630001E+02  0.21472E-04
 0.49680000E+02  0.21315E-04
 0.49730000E+02  0.10890E-04
 0.49779999E+02  0.47319E-05
 0.49830002E+02 -0.68652E-05
 0.49880001E+02 -0.21114E-04
 0.49930000E+02 -0.24032E-04
 0.49980000E+02 -0.19254E-04
 0.50029999E+02 -0.11862E-04
 0.50080002E+02 -0.88929E-07
 0.50130001E+02  0.17501E-04
 0.50180000E+02  0.30277E-04
 0.50230000E+02  0.28150E-04
 0.50279999E+02  0.12539E-04
 0.50330002E+02 -0.50963E-05
 0.50380001E+02 -0.13919E-04
 0.50430000E+02 -0.14398E-04
 0.50480000E+02 -0.90058E-05
 0.50529999E+02 -0.48112E-05
 0.50580002E+02 -0.59092E-05
 0.50630001E+02 -0.68921E-05
 0.50680000E+02 -0.48648E-05
 0.50730000E+02  0.10543E-05
 0.50779999E+02  0.82746E-05
 0.50830002E+02  0.14482E-04
 0.50880001E+02  0.17478E-04
 0.50930000E+02  0.15715E-04
 0.50980000E+02  0.81105E-05
 0.51029999E+02 -0.29915E-05
 0.51080002E+02 -0.12451E-04
 0.51130001E+02 -0.21639E-04
 0.51180000E+02 -0.27028E-04
 0.51230000E+02 -0.27562E-04
 0.51279999E+02 -0.15554E-04
 0.51330002E+02  0.85083E-05
 0.51380001E+02  0.24816E-04
 0.51430000E+02  0.32341E-04
 0.51480000E+02  0.35979E-04
 0.51529999E+02  0.29753E-04
 0.51580002E+02  0.11060E-04
 0.51630001E+02 -0.37097E-05
 0.51680000E+02 -0.11165E-04
 0.51730000E+02 -0.19502E-04
 0.51779999E+02 -0.23233E-04
 0.51830002E+02 -0.21242E-04
 0.51880001E+02 -0.79414E-05
 0.51930000E+02  0.88861E-05
 0.51980000E+02  0.19125E-04
 0.52029999E+02  0.21703E-04
 0.52080002E+02  0.11399E-04
 0.52130001E+02  0.30050E-05
 0.52180000E+02  0.81260E-06
 0.52230000E+02 -0.24091E-06
 0.52279999E+02  0.18558E-05
 0.52330002E+02 -0.30076E-05
 0.52380001E+02 -0.15425E-04
 0.52430000E+02 -0.24984E-04
 0.52480000E+02 -0.22875E-04
 0.52529999E+02 -0.17351E-04
 0.52580002E+02 -0.16034E-04
 0.52630001E+02 -0.94522E-05
 0.52680000E+02 -0.43288E-05
 0.52730000E+02 -0.77727E-05
 0.52779999E+02 -0.17081E-04
 0.52830002E+02 -0.23108E-04
 0.52880001E+02 -0.14232E-04
 0.52930000E+02  0.36965E-05
 0.52980000E+02  0.23577E-04
 0.53029999E+02  0.38303E-04
 0.53080002E+02  0.32617E-04
 0.53130001E+02  0.12101E-04
 0.53180000E+02 -0.49287E-05
 0.53230000E+02 -0.24048E-04
 0.53279999E+02 -0.38538E-04
 0.53330002E+02 -0.29784E-04
 0.53380001E+02 -0.69433E-05
 0.53430000E+02  0.14737E-04
 0.53480000E+02  0.21472E-04
 0.53529999E+02  0.11923E-04
 0.53580002E+02  0.58827E-05
 0.53630001E+02  0.12586E-04
 0.53680000E+02  0.15397E-04
 0.53730000E+02  0.37632E-05
 0.53779999E+02 -0.12592E-04
 0.53830002E+02 -0.28527E-04
 0.53880001E+02 -0.36013E-04
 0.53930000E+02 -0.19773E-04
 0.53980000E+02  0.18434E-04
 0.54029999E+02  0.55628E-04
 0.54080002E+02  0.78006E-04
 0.54130001E+02  0.84181E-04
 0.54180000E+02  0.67597E-04
 0.54230000E+02  0.38745E-04
 0.54279999E+02  0.95400E-05
 0.54330002E+02 -0.15348E-04
 0.54380001E+02 -0.26644E-04
 0.54430000E+02 -0.28428E-04
 0.54480000E+02 -0.26195E-04
 0.54529999E+02 -0.26549E-04
 0.54580002E+02 -0.33318E-04
 0.54630001E+02 -0.50157E-04
 0.54680000E+02 -0.77756E-04
 0.54730000E+02 -0.92389E-04
 0.54779999E+02 -0.79501E-04
 0.54830002E+02 -0.46224E-04
 0.54880001E+02 -0.56810E-05
 0.54930000E+02  0.35370E-04
 0.54980000E+02  0.72857E-04
 0.55029999E+02  0.90427E-04
 0.55080002E+02  0.86244E-04
 0.55130001E+02  0.69487E-04
 0.55180000E+02  0.46389E-04
 0.55230000E+02  0.27021E-04
 0.55279999E+02  0.11634E-04
 0.55330002E+02  0.83693E-05
 0.55380001E+02  0.16024E-04
 0.55430000E+02  0.93363E-05
 0.55480000E+02 -0.14255E-04
 0.55529999E+02 -0.38774E-04
 0.55580002E+02 -0.47558E-04
 0.55630001E+02 -0.38691E-04
 0.55680000E+02 -0.29255E-04
 0.55730000E+02 -0.22676E-04
 0.55779999E+02 -0.12248E-04
 0.55830002E+02 -0.76611E-05
 0.55880001E+02 -0.14293E-04
 0.55930000E+02 -0.23308E-04
 0.55980000E+02 -0.23414E-04
 0.56029999E+02 -0.75862E-05
 0.56080002E+02  0.87118E-05
 0.56130001E+02  0.14603E-04
 0.56180000E+02  0.18535E-04
 0.56230000E+02  0.28548E-04
 0.56279999E+02  0.34961E-04
 0.56330002E+02  0.30309E-04
 0.56380001E+02  0.12503E-04
 0.56430000E+02 -0.23129E-04
 0.56480000E+02 -0.49206E-04
 0.56529999E+02 -0.49587E-04
 0.56580002E+02 -0.26841E-04
 0.56630001E+02  0.15857E-04
 0.56680000E+02  0.56763E-04
 0.56730000E+02  0.71198E-04
 0.56779999E+02  0.51629E-04
 0.56830002E+02  0.23887E-04
 0.56880001E+02  0.83433E-05
 0.56930000E+02  0.12824E-06
 0.56980000E+02 -0.10579E-04
 0.57029999E+02 -0.26094E-04
 0.57080002E+02 -0.36899E-04
 0.57130001E+02 -0.35410E-04
 0.57180000E+02 -0.27420E-04
 0.57230000E+02 -0.19213E-04
 0.57279999E+02 -0.70238E-05
 0.57330002E+02 -0.63522E-06
 0.57380001E+02 -0.70263E-05
 0.57430000E+02 -0.24437E-04
 0.57480000E+02 -0.47020E-04
 0.57529999E+02 -0.56477E-04
 0.57580002E+02 -0.45058E-04
 0.57630001E+02 -0.17142E-04
 0.57680000E+02  0.12546E-04
 0.57730000E+02  0.31995E-04
 0.57779999E+02  0.40198E-04
 0.57830002E+02  0.41123E-04
 0.57880001E+02  0.41157E-04
 0.57930000E+02  0.35136E-04
 0.57980000E+02  0.20223E-04
 0.58029999E+02  0.12020E-04
 0.58080002E+02  0.18591E-04
 0.58130001E+02  0.31157E-04
 0.58180000E+02  0.35352E-04
 0.58230000E+02  0.10987E-04
 0.58279999E+02 -0.33947E-04
 0.58330002E+02 -0.54445E-04
 0.58380001E+02 -0.36445E-04
 0.58430000E+02 -0.12494E-04
 0.58480000E+02 -0.10300E-05
 0.58529999E+02 -0.28352E-05
 0.58580002E+02 -0.15462E-04
 0.58630001E+02 -0.18363E-04
 0.58680000E+02 -0.37757E-05
 0.58730000E+02  0.12372E-04
 0.58779999E+02  0.14374E-04
 0.58830002E+02  0.37317E-05
 0.58880001E+02 -0.40761E-05
 0.58930000E+02 -0.10917E-04
 0.58980000E+02 -0.14680E-04
 0.59029999E+02 -0.43184E-08
 0.59080002E+02  0.30173E-04
 0.59130001E+02  0.56222E-04
 0.59180000E+02  0.64878E-04
 0.59230000E+02  0.61885E-04
 0.59279999E+02  0.51075E-04
 0.59330002E+02  0.37399E-04
 0.59380001E+02  0.31561E-04
 0.59430000E+02  0.23516E-04
 0.59480000E+02 -0.39688E-05
 0.59529999E+02 -0.45001E-04
 0.59580002E+02 -0.77018E-04
 0.59630001E+02 -0.81305E-04
 0.59680000E+02 -0.72777E-04
 0.59730000E+02 -0.77860E-04
 0.59779999E+02 -0.79352E-04
 0.59830002E+02 -0.60498E-04
 0.59880001E+02 -0.28475E-04
 0.59930000E+02  0.15445E-04
 0.59980000E+02  0.61405E-04
 0.60029999E+02  0.93182E-04
 0.60080002E+02  0.93922E-04
 0.60130001E+02  0.61017E-04
 0.60180000E+02  0.20303E-04
 0.60230000E+02 -0.87608E-05
 0.60279999E+02 -0.16702E-04
 0.60330002E+02  0.33172E-05
 0.60380001E+02  0.28194E-04
 0.60430000E+02  0.25573E-04
 0.60480000E+02 -0.12069E-04
 0.60529999E+02 -0.71444E-04
 0.60580002E+02 -0.11856E-03
 0.60630001E+02 -0.12790E-03
 0.60680000E+02 -0.10009E-03
 0.60730000E+02 -0.38005E-04
 0.60779999E+02  0.34945E-04
 0.60830002E+02  0.86118E-04
 0.60880001E+02  0.98945E-04
 0.60930000E+02  0.76595E-04
 0.60980000E+02  0.48847E-04
 0.61029999E+02  0.33335E-04
 0.61080002E+02  0.40233E-04
 0.61130001E+02  0.56766E-04
 0.61180000E+02  0.47137E-04
 0.61230000E+02  0.16684E-04
 0.61279999E+02 -0.15117E-04
 0.61330002E+02 -0.42192E-04
 0.61380001E+02 -0.59680E-04
 0.61430000E+02 -0.58007E-04
 0.61480000E+02 -0.38907E-04
 0.61529999E+02 -0.19555E-04
 0.61580002E+02 -0.12979E-04
 0.61630001E+02 -0.16164E-04
 0.61680000E+02 -0.17412E-04
 0.61730000E+02 -0.20391E-04
 0.61779999E+02 -0.15543E-04
 0.61830002E+02 -0.77502E-06
 0.61880001E+02  0.24479E-05
 0.61930000E+02 -0.15599E-05
 0.61980000E+02  0.38857E-05
 0.62029999E+02  0.18466E-04
 0.62080002E+02  0.16791E-04
 0.62130001E+02 -0.56956E-05
 0.62180000E+02 -0.22323E-04
 0.62230000E+02 -0.12507E-04
 0.62279999E+02  0.32072E-04
 0.62330002E+02  0.82060E-04
 0.62380001E+02  0.10385E-03
 0.62430000E+02  0.92965E-04
 0.62480000E+02  0.61812E-04
 0.62529999E+02  0.24591E-04
 0.62580002E+02 -0.11031E-04
 0.62630001E+02 -0.34173E-04
 0.62680000E+02 -0.49570E-04
 0.62730000E+02 -0.62639E-04
 0.62779999E+02 -0.71176E-04
 0.62830002E+02 -0.68134E-04
 0.62880001E+02 -0.45478E-04
 0.62930000E+02 -0.29550E-04
 0.62980000E+02 -0.42898E-04
 0.63029999E+02 -0.66791E-04
 0.63080002E+02 -0.71328E-04
 0.63130001E+02 -0.49187E-04
 0.63180000E+02 -0.14337E-04
 0.63230000E+02  0.15412E-04
 0.63279999E+02  0.26144E-04
 0.63330002E+02  0.31359E-04
 0.63380001E+02  0.50570E-04
 0.63430000E+02  0.77232E-04
 0.63480000E+02  0.93469E-04
 0.63529999E+02  0.90625E-04
 0.63580002E+02  0.71176E-04
 0.63630001E+02  0.34705E-04
 0.63680000E+02 -0.81701E-06
 0.63730000E+02 -0.17835E-04
 0.63779999E+02 -0.24426E-04
 0.63830002E+02 -0.18083E-04
 0.63880001E+02  0.44067E-05
 0.63930000E+02  0.28871E-04
 0.63980000E+02  0.40121E-04
 0.64029999E+02  0.33177E-04
 0.64080002E+02  0.92984E-05
 0.64129997E+02 -0.20924E-04
 0.64180000E+02 -0.45418E-04
 0.64230003E+02 -0.63268E-04
 0.64279999E+02 -0.67616E-04
 0.64330002E+02 -0.60067E-04
 0.64379997E+02 -0.50388E-04
 0.64430000E+02 -0.37538E-04
 0.64480003E+02 -0.23220E-04
 0.64529999E+02 -0.10620E-04
 0.64580002E+02 -0.53273E-05
 0.64629997E+02 -0.53387E-05
 0.64680000E+02  0.76526E-05
 0.64730003E+02  0.34550E-04
 0.64779999E+02  0.59937E-04
 0.64830002E+02  0.74988E-04
 0.64879997E+02  0.72361E-04
 0.64930000E+02  0.49342E-04
 0.64980003E+02  0.14321E-04
 0.65029999E+02 -0.17996E-04
 0.65080002E+02 -0.33989E-04
 0.65129997E+02 -0.29224E-04
 0.65180000E+02 -0.13557E-04
 0.65230003E+02 -0.10737E-05
 0.65279999E+02 -0.40454E-05
 0.65330002E+02 -0.17895E-04
 0.65379997E+02 -0.24942E-04
 0.65430000E+02 -0.24016E-04
 0.65480003E+02 -0.21049E-04
 0.65529999E+02 -0.15389E-04
 0.65580002E+02 -0.39523E-06
 0.65629997E+02  0.26623E-04
 0.65680000E+02  0.52404E-04
 0.65730003E+02  0.55290E-04
 0.65779999E+02  0.27750E-04
 0.65830002E+02 -0.15541E-04
 0.65879997E+02 -0.54365E-04
 0.65930000E+02 -0.70228E-04
 0.65980003E+02 -0.55912E-04
 0.66029999E+02 -0.27026E-04
 0.66080002E+02  0.11676E-05
 0.66129997E+02  0.24711E-04
 0.66180000E+02  0.36619E-04
 0.66230003E+02  0.37969E-04
 0.66279999E+02  0.36576E-04
 0.66330002E+02  0.30108E-04
 0.66379997E+02  0.12357E-04
 0.66430000E+02 -0.89466E-05
 0.66480003E+02 -0.20671E-04
 0.66529999E+02 -0.21486E-04
 0.66580002E+02 -0.17858E-04
 0.66629997E+02 -0.17568E-04
 0.66680000E+02 -0.14449E-04
 0.66730003E+02 -0.19733E-05
 0.66779999E+02  0.11662E-04
 0.66830002E+02  0.17992E-04
 0.66879997E+02  0.15672E-04
 0.66930000E+02  0.16125E-04
 0.66980003E+02  0.26824E-04
 0.67029999E+02  0.38304E-04
 0.67080002E+02  0.34606E-04
 0.67129997E+02  0.13280E-04
 0.67180000E+02 -0.85767E-05
 0.67230003E+02 -0.17858E-04
 0.67279999E+02 -0.14121E-04
 0.67330002E+02 -0.82956E-05
 0.67379997E+02 -0.11588E-04
 0.67430000E+02 -0.23347E-04
 0.67480003E+02 -0.34062E-04
 0.67529999E+02 -0.33380E-04
 0.67580002E+02 -0.27804E-04
 0.67629997E+02 -0.30927E-04
 0.67680000E+02 -0.43810E-04
 0.67730003E+02 -0.58873E-04
 0.67779999E+02 -0.61231E-04
 0.67830002E+02 -0.40548E-04
 0.67879997E+02 -0.45270E-05
 0.67930000E+02  0.36359E-04
 0.67980003E+02  0.71681E-04
 0.68029999E+02  0.85045E-04
 0.68080002E+02  0.74167E-04
 0.68129997E+02  0.52120E-04
 0.68180000E+02  0.27790E-04
 0.68230003E+02 -0.32778E-06
 0.68279999E+02 -0.27991E-04
 0.68330002E+02 -0.35800E-04
 0.68379997E+02 -0.18418E-04
 0.68430000E+02  0.87007E-05
 0.68480003E+02  0.30307E-04
 0.68529999E+02  0.35875E-04
 0.68580002E+02  0.26132E-04
 0.68629997E+02  0.13424E-04
 0.68680000E+02  0.76678E-05
 0.68730003E+02  0.39866E-05
 0.68779999E+02 -0.49835E-05
 0.68830002E+02 -0.92329E-05
 0.68879997E+02 -0.45566E-05
 0.68930000E+02 -0.10000E-05
 0.68980003E+02 -0.31863E-05
 0.69029999E+02 -0.13862E-04
 0.69080002E+02 -0.29181E-04
 0.69129997E+02 -0.37142E-04
 0.69180000E+02 -0.30170E-04
 0.69230003E+02 -0.77610E-05
 0.69279999E+02  0.19088E-04
 0.69330002E+02  0.35761E-04
 0.69379997E+02  0.38533E-04
 0.69430000E+02  0.26256E-04
 0.69480003E+02  0.51374E-05
 0.69529999E+02 -0.11651E-04
 0.69580002E+02 -0.20153E-04
 0.69629997E+02 -0.25163E-04
 0.69680000E+02 -0.32109E-04
 0.69730003E+02 -0.35627E-04
 0.69779999E+02 -0.34667E-04
 0.69830002E+02 -0.32833E-04
 0.69879997E+02 -0.27951E-04
 0.69930000E+02 -0.23465E-04
 0.69980003E+02 -0.22367E-04
 0.70029999E+02 -0.21967E-04
 0.70080002E+02 -0.12738E-04
 0.70129997E+02  0.96410E-05
 0.70180000E+02  0.35063E-04
 0.70230003E+02  0.54446E-04
 0.70279999E+02  0.63921E-04
 0.70330002E+02  0.65676E-04
 0.70379997E+02  0.63957E-04
 0.70430000E+02  0.50891E-04
 0.70480003E+02  0.24094E-04
 0.70529999E+02 -0.33726E-05
 0.70580002E+02 -0.22671E-04
 0.70629997E+02 -0.31018E-04
 0.70680000E+02 -0.30220E-04
 0.70730003E+02 -0.25289E-04
 0.70779999E+02 -0.21119E-04
 0.70830002E+02 -0.18799E-04
 0.70879997E+02 -0.15158E-04
 0.70930000E+02 -0.87542E-05
 0.70980003E+02 -0.24282E-05
 0.71029999E+02  0.15636E-05
 0.71080002E+02  0.67844E-05
 0.71129997E+02  0.14039E-04
 0.71180000E+02  0.20101E-04
 0.71230003E+02  0.20066E-04
 0.71279999E+02  0.11742E-04
 0.71330002E+02  0.13905E-05
 0.71379997E+02 -0.55978E-05
 0.71430000E+02 -0.11619E-04
 0.71480003E+02 -0.19231E-04
 0.71529999E+02 -0.22540E-04
 0.71580002E+02 -0.16931E-04
 0.71629997E+02 -0.55201E-05
 0.71680000E+02  0.84378E-05
 0.71730003E+02  0.20966E-04
 0.71779999E+02  0.26730E-04
 0.71830002E+02  0.23213E-04
 0.71879997E+02  0.11930E-04
 0.71930000E+02 -0.13268E-05
 0.71980003E+02 -0.12101E-04
 0.72029999E+02 -0.18131E-04
 0.72080002E+02 -0.16282E-04
 0.72129997E+02 -0.74475E-05
 0.72180000E+02  0.28871E-05
 0.72230003E+02  0.73323E-05
 0.72279999E+02  0.23352E-05
 0.72330002E+02 -0.56567E-05
 0.72379997E+02 -0.10700E-04
 0.72430000E+02 -0.17443E-04
 0.72480003E+02 -0.27698E-04
 0.72529999E+02 -0.35443E-04
 0.72580002E+02 -0.35676E-04
 0.72629997E+02 -0.23271E-04
 0.72680000E+02  0.27037E-05
 0.72730003E+02  0.34838E-04
 0.72779999E+02  0.60015E-04
 0.72830002E+02  0.65572E-04
 0.72879997E+02  0.51659E-04
 0.72930000E+02  0.30573E-04
 0.72980003E+02  0.11761E-04
 0.73029999E+02 -0.32991E-05
 0.73080002E+02 -0.15814E-04
 0.73129997E+02 -0.28007E-04
 0.73180000E+02 -0.37860E-04
 0.73230003E+02 -0.40891E-04
 0.73279999E+02 -0.35424E-04
 0.73330002E+02 -0.21859E-04
 0.73379997E+02 -0.57727E-05
 0.73430000E+02  0.35054E-05
 0.73480003E+02  0.72106E-06
 0.73529999E+02 -0.52857E-05
 0.73580002E+02 -0.47914E-05
 0.73629997E+02  0.44610E-06
 0.73680000E+02  0.72185E-05
 0.73730003E+02  0.14431E-04
 0.73779999E+02  0.22877E-04
 0.73830002E+02  0.29091E-04
 0.73879997E+02  0.30004E-04
 0.73930000E+02  0.29279E-04
 0.73980003E+02  0.26455E-04
 0.74029999E+02  0.19869E-04
 0.74080002E+02  0.96681E-05
 0.74129997E+02 -0.59275E-05
 0.74180000E+02 -0.21033E-04
 0.74230003E+02 -0.26720E-04
 0.74279999E+02 -0.22832E-04
 0.74330002E+02 -0.12605E-04
 0.74379997E+02  0.56939E-06
 0.74430000E+02  0.10646E-04
 0.74480003E+02  0.12712E-04
 0.74529999E+02  0.69981E-05
 0.74580002E+02 -0.32957E-05
 0.74629997E+02 -0.12743E-04
 0.74680000E+02 -0.16471E-04
 0.74730003E+02 -0.13543E-04
 0.74779999E+02 -0.87671E-05
 0.74830002E+02 -0.82819E-05
 0.74879997E+02 -0.11116E-04
 0.74930000E+02 -0.14434E-04
 0.74980003E+02 -0.16555E-04
 0.75029999E+02 -0.15972E-04
 0.75080002E+02 -0.13623E-04
 0.75129997E+02 -0.10982E-04
 0.75180000E+02 -0.75136E-05
 0.75230003E+02 -0.23456E-05
 0.75279999E+02  0.18715E-05
 0.75330002E+02  0.39870E-05
 0.75379997E+02  0.41837E-05
 0.75430000E+02  0.46190E-05
 0.75480003E+02  0.89759E-05
 0.75529999E+02  0.15387E-04
 0.75580002E+02  0.21592E-04
 0.75629997E+02  0.23357E-04
 0.75680000E+02  0.18495E-04
 0.75730003E+02  0.91232E-05
 0.75779999E+02 -0.32609E-05
 0.75830002E+02 -0.12784E-04
 0.75879997E+02 -0.13804E-04
 0.75930000E+02 -0.52758E-05
 0.75980003E+02  0.88876E-05
 0.76029999E+02  0.22708E-04
 0.76080002E+02  0.30619E-04
 0.76129997E+02  0.28248E-04
 0.76180000E+02  0.19872E-04
 0.76230003E+02  0.11566E-04
 0.76279999E+02  0.34090E-05
 0.76330002E+02 -0.32868E-05
 0.76379997E+02 -0.63953E-05
 0.76430000E+02 -0.59689E-05
 0.76480003E+02 -0.33516E-05
 0.76529999E+02 -0.13873E-05
 0.76580002E+02 -0.23318E-05
 0.76629997E+02 -0.61627E-05
 0.76680000E+02 -0.12639E-04
 0.76730003E+02 -0.22049E-04
 0.76779999E+02 -0.32132E-04
 0.76830002E+02 -0.38970E-04
 0.76879997E+02 -0.38449E-04
 0.76930000E+02 -0.28905E-04
 0.76980003E+02 -0.12952E-04
 0.77029999E+02  0.49000E-05
 0.77080002E+02  0.16692E-04
 0.77129997E+02  0.18497E-04
 0.77180000E+02  0.13825E-04
 0.77230003E+02  0.79456E-05
 0.77279999E+02  0.53807E-05
 0.77330002E+02  0.38941E-05
 0.77379997E+02  0.12958E-05
 0.77430000E+02  0.12776E-05
 0.77480003E+02  0.78663E-05
 0.77529999E+02  0.19774E-04
 0.77580002E+02  0.30199E-04
 0.77629997E+02  0.34352E-04
 0.77680000E+02  0.30173E-04
 0.77730003E+02  0.18774E-04
 0.77779999E+02  0.52287E-05
 0.77830002E+02 -0.60844E-05
 0.77879997E+02 -0.14996E-04
 0.77930000E+02 -0.22461E-04
 0.77980003E+02 -0.25517E-04
 0.78029999E+02 -0.20989E-04
 0.78080002E+02 -0.10999E-04
 0.78129997E+02 -0.54292E-06
 0.78180000E+02  0.71727E-05
 0.78230003E+02  0.90965E-05
 0.78279999E+02  0.61637E-05
 0.78330002E+02  0.17418E-05
 0.78379997E+02 -0.35408E-05
 0.78430000E+02 -0.79047E-05
 0.78480003E+02 -0.11159E-04
 0.78529999E+02 -0.12239E-04
 0.78580002E+02 -0.95919E-05
 0.78629997E+02 -0.56728E-05
 0.78680000E+02 -0.33379E-05
 0.78730003E+02 -0.41331E-05
 0.78779999E+02 -0.83114E-05
 0.78830002E+02 -0.13250E-04
 0.78879997E+02 -0.14414E-04
 0.78930000E+02 -0.97144E-05
 0.78980003E+02 -0.83729E-06
 0.79029999E+02  0.80552E-05
 0.79080002E+02  0.16910E-04
 0.79129997E+02  0.26435E-04
 0.79180000E+02  0.32748E-04
 0.79230003E+02  0.33614E-04
 0.79279999E+02  0.27970E-04
 0.79330002E+02  0.15929E-04
 0.79379997E+02  0.75304E-06
 0.79430000E+02 -0.12640E-04
 0.79480003E+02 -0.20827E-04
 0.79529999E+02 -0.24539E-04
 0.79580002E+02 -0.24482E-04
 0.79629997E+02 -0.20179E-04
 0.79680000E+02 -0.12718E-04
 0.79730003E+02 -0.29235E-05
 0.79779999E+02  0.90277E-05
 0.79830002E+02  0.18630E-04
 0.79879997E+02  0.19984E-04
 0.79930000E+02  0.15811E-04
 0.79980003E+02  0.11312E-04
 0.80029999E+02  0.66411E-05
 0.80080002E+02  0.19534E-05
 0.80129997E+02 -0.31003E-05
 0.80180000E+02 -0.10336E-04
 0.80230003E+02 -0.16298E-04
 0.80279999E+02 -0.15919E-04
 0.80330002E+02 -0.11643E-04
 0.80379997E+02 -0.80266E-05
 0.80430000E+02 -0.76926E-05
 0.80480003E+02 -0.10082E-04
 0.80529999E+02 -0.11444E-04
 0.80580002E+02 -0.10365E-04
 0.80629997E+02 -0.72078E-05
 0.80680000E+02 -0.39290E-05
 0.80730003E+02 -0.13027E-05
 0.80779999E+02  0.13662E-05
 0.80830002E+02  0.30528E-05
 0.80879997E+02  0.48209E-05
 0.80930000E+02  0.75375E-05
 0.80980003E+02  0.10387E-04
 0.81029999E+02  0.12673E-04
 0.81080002E+02  0.13594E-04
 0.81129997E+02  0.11945E-04
 0.81180000E+02  0.68820E-05
 0.81230003E+02  0.99039E-06
 0.81279999E+02 -0.16399E-05
 0.81330002E+02  0.29295E-05
 0.81379997E+02  0.13429E-04
 0.81430000E+02  0.22831E-04
 0.81480003E+02  0.27787E-04
 0.81529999E+02  0.27423E-04
 0.81580002E+02  0.22007E-04
 0.81629997E+02  0.14489E-04
 0.81680000E+02  0.54471E-05
 0.81730003E+02 -0.53391E-05
 0.81779999E+02 -0.16148E-04
 0.81830002E+02 -0.26049E-04
 0.81879997E+02 -0.33131E-04
 0.81930000E+02 -0.35131E-04
 0.81980003E+02 -0.32464E-04
 0.82029999E+02 -0.26894E-04
 0.82080002E+02 -0.21048E-04
 0.82129997E+02 -0.17240E-04
 0.82180000E+02 -0.16823E-04
 0.82230003E+02 -0.17386E-04
 0.82279999E+02 -0.14857E-04
 0.82330002E+02 -0.93126E-05
 0.82379997E+02 -0.12768E-05
 0.82430000E+02  0.78014E-05
 0.82480003E+02  0.16388E-04
 0.82529999E+02  0.24364E-04
 0.82580002E+02  0.30410E-04
 0.82629997E+02  0.33588E-04
 0.82680000E+02  0.32720E-04
 0.82730003E+02  0.27373E-04
 0.82779999E+02  0.18546E-04
 0.82830002E+02  0.81064E-05
 0.82879997E+02 -0.18052E-05
 0.82930000E+02 -0.96460E-05
 0.82980003E+02 -0.14595E-04
 0.83029999E+02 -0.16979E-04
 0.83080002E+02 -0.15731E-04
 0.83129997E+02 -0.10152E-04
 0.83180000E+02 -0.27149E-05
 0.83230003E+02  0.32154E-05
 0.83279999E+02  0.55316E-05
 0.83330002E+02  0.41152E-05
 0.83379997E+02  0.45892E-06
 0.83430000E+02 -0.34354E-05
 0.83480003E+02 -0.59887E-05
 0.83529999E+02 -0.56350E-05
 0.83580002E+02 -0.27913E-05
 0.83629997E+02 -0.49591E-06
 0.83680000E+02 -0.22365E-05
 0.83730003E+02 -0.95237E-05
 0.83779999E+02 -0.19598E-04
 0.83830002E+02 -0.28486E-04
 0.83879997E+02 -0.32880E-04
 0.83930000E+02 -0.29503E-04
 0.83980003E+02 -0.17170E-04
 0.84029999E+02  0.86930E-06
 0.84080002E+02  0.18868E-04
 0.84129997E+02  0.32657E-04
 0.84180000E+02  0.40324E-04
 0.84230003E+02  0.42364E-04
 0.84279999E+02  0.39377E-04
 0.84330002E+02  0.31051E-04
 0.84379997E+02  0.19293E-04
 0.84430000E+02  0.64428E-05
 0.84480003E+02 -0.49452E-05
 0.84529999E+02 -0.11583E-04
 0.84580002E+02 -0.12841E-04
 0.84629997E+02 -0.97818E-05
 0.84680000E+02 -0.45550E-05
 0.84730003E+02  0.18152E-05
 0.84779999E+02  0.84556E-05
 0.84830002E+02  0.11264E-04
 0.84879997E+02  0.75549E-05
 0.84930000E+02 -0.15855E-05
 0.84980003E+02 -0.11166E-04
 0.85029999E+02 -0.17112E-04
 0.85080002E+02 -0.20051E-04
 0.85129997E+02 -0.20766E-04
 0.85180000E+02 -0.19443E-04
 0.85230003E+02 -0.16348E-04
 0.85279999E+02 -0.10998E-04
 0.85330002E+02 -0.31418E-05
 0.85379997E+02  0.56643E-05
 0.85430000E+02  0.12908E-04
 0.85480003E+02  0.17296E-04
 0.85529999E+02  0.19268E-04
 0.85580002E+02  0.19341E-04
 0.85629997E+02  0.17597E-04
 0.85680000E+02  0.13759E-04
 0.85730003E+02  0.65388E-05
 0.85779999E+02 -0.36336E-05
 0.85830002E+02 -0.14431E-04
 0.85879997E+02 -0.24234E-04
 0.85930000E+02 -0.31241E-04
 0.85980003E+02 -0.33392E-04
 0.86029999E+02 -0.29318E-04
 0.86080002E+02 -0.19164E-04
 0.86129997E+02 -0.59434E-05
 0.86180000E+02  0.67480E-05
 0.86230003E+02  0.17479E-04
 0.86279999E+02  0.24738E-04
 0.86330002E+02  0.26388E-04
 0.86379997E+02  0.22409E-04
 0.86430000E+02  0.15266E-04
 0.86480003E+02  0.86213E-05
 0.86529999E+02  0.39853E-05
 0.86580002E+02  0.16410E-05
 0.86629997E+02  0.32720E-05
 0.86680000E+02  0.73020E-05
 0.86730003E+02  0.91191E-05
 0.86779999E+02  0.60946E-05
 0.86830002E+02 -0.20200E-05
 0.86879997E+02 -0.12725E-04
 0.86930000E+02 -0.21584E-04
 0.86980003E+02 -0.26888E-04
 0.87029999E+02 -0.29578E-04
 0.87080002E+02 -0.27774E-04
 0.87129997E+02 -0.19168E-04
 0.87180000E+02 -0.65050E-05
 0.87230003E+02  0.65428E-05
 0.87279999E+02  0.18024E-04
 0.87330002E+02  0.25554E-04
 0.87379997E+02  0.29036E-04
 0.87430000E+02  0.30735E-04
 0.87480003E+02  0.31067E-04
 0.87529999E+02  0.29286E-04
 0.87580002E+02  0.24817E-04
 0.87629997E+02  0.16568E-04
 0.87680000E+02  0.32954E-05
 0.87730003E+02 -0.12673E-04
 0.87779999E+02 -0.25092E-04
 0.87830002E+02 -0.31718E-04
 0.87879997E+02 -0.33660E-04
 0.87930000E+02 -0.30804E-04
 0.87980003E+02 -0.23265E-04
 0.88029999E+02 -0.11836E-04
 0.88080002E+02  0.15033E-06
 0.88129997E+02  0.88301E-05
 0.88180000E+02  0.13801E-04
 0.88230003E+02  0.16694E-04
 0.88279999E+02  0.17690E-04
 0.88330002E+02  0.15503E-04
 0.88379997E+02  0.11555E-04
 0.88430000E+02  0.91147E-05
 0.88480003E+02  0.85769E-05
 0.88529999E+02  0.75066E-05
 0.88580002E+02  0.48561E-05
 0.88629997E+02  0.76057E-06
 0.88680000E+02 -0.47515E-05
 0.88730003E+02 -0.10742E-04
 0.88779999E+02 -0.16962E-04
 0.88830002E+02 -0.23418E-04
 0.88879997E+02 -0.28687E-04
 0.88930000E+02 -0.29852E-04
 0.88980003E+02 -0.25619E-04
 0.89029999E+02 -0.17509E-04
 0.89080002E+02 -0.82898E-05
 0.89129997E+02 -0.47656E-06
 0.89180000E+02  0.58393E-05
 0.89230003E+02  0.11089E-04
 0.89279999E+02  0.14283E-04
 0.89330002E+02  0.14439E-04
 0.89379997E+02  0.13021E-04
 0.89430000E+02  0.12882E-04
 0.89480003E+02  0.14784E-04
 0.89529999E+02  0.16156E-04
 0.89580002E+02  0.14013E-04
 0.89629997E+02  0.80260E-05
 0.89680000E+02  0.65323E-07
 0.89730003E+02 -0.62158E-05
 0.89779999E+02 -0.91578E-05
 0.89830002E+02 -0.10282E-04
 0.89879997E+02 -0.99417E-05
 0.89930000E+02 -0.70141E-05
 0.89980003E+02 -0.19427E-05
 0.90029999E+02  0.31938E-05
 0.90080002E+02  0.72503E-05
 0.90129997E+02  0.96718E-05
 0.90180000E+02  0.10350E-04
 0.90230003E+02  0.99527E-05
 0.90279999E+02  0.93999E-05
 0.90330002E+02  0.90222E-05
 0.90379997E+02  0.71039E-05
 0.90430000E+02  0.24900E-05
 0.90480003E+02 -0.33534E-05
 0.90529999E+02 -0.92418E-05
 0.90580002E+02 -0.15027E-04
 0.90629997E+02 -0.19471E-04
 0.90680000E+02 -0.21312E-04
 0.90730003E+02 -0.21734E-04
 0.90779999E+02 -0.22619E-04
 0.90830002E+02 -0.22953E-04
 0.90879997E+02 -0.20486E-04
 0.90930000E+02 -0.13449E-04
 0.90980003E+02 -0.14523E-05
 0.91029999E+02  0.12867E-04
 0.91080002E+02  0.25940E-04
 0.91129997E+02  0.33510E-04
 0.91180000E+02  0.34030E-04
 0.91230003E+02  0.30645E-04
 0.91279999E+02  0.25931E-04
 0.91330002E+02  0.21185E-04
 0.91379997E+02  0.16941E-04
 0.91430000E+02  0.12711E-04
 0.91480003E+02  0.81983E-05
 0.91529999E+02  0.34693E-05
 0.91580002E+02 -0.18915E-05
 0.91629997E+02 -0.79988E-05
 0.91680000E+02 -0.13440E-04
 0.91730003E+02 -0.17220E-04
 0.91779999E+02 -0.19275E-04
 0.91830002E+02 -0.18516E-04
 0.91879997E+02 -0.14345E-04
 0.91930000E+02 -0.87833E-05
 0.91980003E+02 -0.44029E-05
 0.92029999E+02 -0.18903E-05
 0.92080002E+02 -0.19180E-06
 0.92129997E+02  0.12512E-05
 0.92180000E+02  0.20351E-05
 0.92230003E+02  0.19707E-05
 0.92279999E+02  0.87418E-06
 0.92330002E+02 -0.15179E-05
 0.92379997E+02 -0.48984E-05
 0.92430000E+02 -0.74019E-05
 0.92480003E+02 -0.73201E-05
 0.92529999E+02 -0.53390E-05
 0.92580002E+02 -0.31521E-05
 0.92629997E+02 -0.14287E-05
 0.92680000E+02  0.13327E-07
 0.92730003E+02  0.56064E-06
 0.92779999E+02 -0.91610E-06
 0.92830002E+02 -0.38337E-05
 0.92879997E+02 -0.67946E-05
 0.92930000E+02 -0.88040E-05
 0.92980003E+02 -0.86332E-05
 0.93029999E+02 -0.61642E-05
 0.93080002E+02 -0.17926E-05
 0.93129997E+02  0.35865E-05
 0.93180000E+02  0.81739E-05
 0.93230003E+02  0.10944E-04
 0.93279999E+02  0.11439E-04
 0.93330002E+02  0.10242E-04
 0.93379997E+02  0.88747E-05
 0.93430000E+02  0.87361E-05
 0.93480003E+02  0.10882E-04
 0.93529999E+02  0.14446E-04
 0.93580002E+02  0.16677E-04
 0.93629997E+02  0.15394E-04
 0.93680000E+02  0.10431E-04
 0.93730003E+02  0.43662E-05
 0.93779999E+02 -0.78268E-06
 0.93830002E+02 -0.53248E-05
 0.93879997E+02 -0.94611E-05
 0.93930000E+02 -0.13223E-04
 0.93980003E+02 -0.15551E-04
 0.94029999E+02 -0.15311E-04
 0.94080002E+02 -0.12701E-04
 0.94129997E+02 -0.94067E-05
 0.94180000E+02 -0.80124E-05
 0.94230003E+02 -0.88711E-05
 0.94279999E+02 -0.94171E-05
 0.94330002E+02 -0.67753E-05
 0.94379997E+02 -0.22528E-05
 0.94430000E+02  0.14231E-05
 0.94480003E+02  0.41279E-05
 0.94529999E+02  0.59423E-05
 0.94580002E+02  0.74530E-05
 0.94629997E+02  0.90051E-05
 0.94680000E+02  0.95398E-05
 0.94730003E+02  0.85264E-05
 0.94779999E+02  0.60833E-05
 0.94830002E+02  0.23354E-05
 0.94879997E+02 -0.19507E-05
 0.94930000E+02 -0.48342E-05
 0.94980003E+02 -0.48078E-05
 0.95029999E+02 -0.26068E-05
 0.95080002E+02 -0.13226E-06
 0.95129997E+02  0.15622E-05
 0.95180000E+02  0.28582E-05
 0.95230003E+02  0.46500E-05
 0.95279999E+02  0.67012E-05
 0.95330002E+02  0.72244E-05
 0.95379997E+02  0.60157E-05
 0.95430000E+02  0.47178E-05
 0.95480003E+02  0.46416E-05
 0.95529999E+02  0.58701E-05
 0.95580002E+02  0.72622E-05
 0.95629997E+02  0.88412E-05
 0.95680000E+02  0.99895E-05
 0.95730003E+02  0.91669E-05
 0.95779999E+02  0.58111E-05
 0.95830002E+02 -0.49884E-06
 0.95879997E+02 -0.85851E-05
 0.95930000E+02 -0.15687E-04
 0.95980003E+02 -0.19907E-04
 0.96029999E+02 -0.21360E-04
 0.96080002E+02 -0.20964E-04
 0.96129997E+02 -0.18666E-04
 0.96180000E+02 -0.14297E-04
 0.96230003E+02 -0.83934E-05
 0.96279999E+02 -0.14284E-05
 0.96330002E+02  0.48829E-05
 0.96379997E+02  0.92307E-05
 0.96430000E+02  0.12586E-04
 0.96480003E+02  0.15459E-04
 0.96529999E+02  0.18056E-04
 0.96580002E+02  0.19687E-04
 0.96629997E+02  0.18575E-04
 0.96680000E+02  0.14284E-04
 0.96730003E+02  0.75014E-05
 0.96779999E+02 -0.62958E-06
 0.96830002E+02 -0.87130E-05
 0.96879997E+02 -0.15330E-04
 0.96930000E+02 -0.20120E-04
 0.96980003E+02 -0.22776E-04
 0.97029999E+02 -0.22775E-04
 0.97080002E+02 -0.21163E-04
 0.97129997E+02 -0.18130E-04
 0.97180000E+02 -0.12617E-04
 0.97230003E+02 -0.46003E-05
 0.97279999E+02  0.43689E-05
 0.97330002E+02  0.11625E-04
 0.97379997E+02  0.15774E-04
 0.97430000E+02  0.16862E-04
 0.97480003E+02  0.15304E-04
 0.97529999E+02  0.12463E-04
 0.97580002E+02  0.98499E-05
 0.97629997E+02  0.84840E-05
 0.97680000E+02  0.81976E-05
 0.97730003E+02  0.78021E-05
 0.97779999E+02  0.68436E-05
 0.97830002E+02  0.55106E-05
 0.97879997E+02  0.37730E-05
 0.97930000E+02  0.95110E-06
 0.97980003E+02 -0.27635E-05
 0.98029999E+02 -0.51094E-05
 0.98080002E+02 -0.54677E-05
 0.98129997E+02 -0.63251E-05
 0.98180000E+02 -0.90066E-05
 0.98230003E+02 -0.12326E-04
 0.98279999E+02 -0.14749E-04
 0.98330002E+02 -0.14865E-04
 0.98379997E+02 -0.12197E-04
 0.98430000E+02 -0.86149E-05
 0.98480003E+02 -0.62922E-05
 0.98529999E+02 -0.50316E-05
 0.98580002E+02 -0.35228E-05
 0.98629997E+02 -0.13882E-05
 0.98680000E+02  0.12605E-05
 0.98730003E+02  0.36699E-05
 0.98779999E+02  0.51260E-05
 0.98830002E+02  0.60029E-05
 0.98879997E+02  0.61231E-05
 0.98930000E+02  0.55616E-05
 0.98980003E+02  0.55020E-05
 0.99029999E+02  0.59984E-05
 0.99080002E+02  0.62794E-05
 0.99129997E+02  0.62287E-05
 0.99180000E+02  0.59623E-05
 0.99230003E+02  0.56491E-05
 0.99279999E+02  0.53124E-05
 0.99330002E+02  0.53104E-05
 0.99379997E+02  0.58965E-05
 0.99430000E+02  0.63983E-05
 0.99480003E+02  0.67017E-05
 0.99529999E+02  0.66127E-05
 0.99580002E+02  0.50785E-05
 0.99629997E+02  0.21357E-05
 0.99680000E+02 -0.10776E-05
 0.99730003E+02 -0.41677E-05
 0.99779999E+02 -0.65014E-05
 0.99830002E+02 -0.71848E-05
 0.99879997E+02 -0.69547E-05
 0.99930000E+02 -0.63959E-05
 0.99980003E+02 -0.52496E-05
 0.10003000E+03 -0.35470E-05
 0.10008000E+03 -0.11914E-05
 0.10013000E+03  0.12709E-05
 0.10018000E+03  0.19688E-05
 0.10023000E+03 -0.13187E-06
 0.10028000E+03 -0.37427E-05
 0.10033000E+03 -0.71484E-05
 0.10038000E+03 -0.95404E-05
 0.10043000E+03 -0.10782E-04
 0.10048000E+03 -0.10963E-04
 0.10053000E+03 -0.10576E-04
 0.10058000E+03 -0.10121E-04
 0.10063000E+03 -0.90099E-05
 0.10068000E+03 -0.71792E-05
 0.10073000E+03 -0.53211E-05
 0.10078000E+03 -0.35710E-05
 0.10083000E+03 -0.13825E-05
 0.10088000E+03  0.19444E-05
 0.10093000E+03  0.62171E-05
 0.10098000E+03  0.10825E-04
 0.10103000E+03  0.14891E-04
 0.10108000E+03  0.17389E-04
 0.10113000E+03  0.18230E-04
 0.10118000E+03  0.17745E-04
 0.10123000E+03  0.15577E-04
 0.10128000E+03  0.11809E-04
 0.10133000E+03  0.74308E-05
 0.10138000E+03  0.35123E-05
 0.10143000E+03  0.10564E-05
 0.10148000E+03  0.42246E-06
 0.10153000E+03  0.10723E-05
 0.10158000E+03  0.19436E-05
 0.10163000E+03  0.22159E-05
 0.10168000E+03  0.19990E-05
 0.10173000E+03  0.18074E-05
 0.10178000E+03  0.15497E-05
 0.10183000E+03  0.97756E-06
 0.10188000E+03  0.19402E-06
 0.10193000E+03 -0.76102E-06
 0.10198000E+03 -0.17853E-05
 0.10203000E+03 -0.20383E-05
 0.10208000E+03 -0.76082E-06
 0.10213000E+03  0.97524E-06
 0.10218000E+03  0.14581E-05
 0.10223000E+03 -0.25915E-06
 0.10228000E+03 -0.40225E-05
 0.10233000E+03 -0.84149E-05
 0.10238000E+03 -0.11940E-04
 0.10243000E+03 -0.14172E-04
 0.10248000E+03 -0.15775E-04
 0.10253000E+03 -0.17547E-04
 0.10258000E+03 -0.19302E-04
 0.10263000E+03 -0.19370E-04
 0.10268000E+03 -0.16886E-04
 0.10273000E+03 -0.12886E-04
 0.10278000E+03 -0.83080E-05
 0.10283000E+03 -0.34495E-05
 0.10288000E+03  0.15859E-05
 0.10293000E+03  0.65341E-05
 0.10298000E+03  0.11010E-04
 0.10303000E+03  0.14197E-04
 0.10308000E+03  0.15418E-04
 0.10313000E+03  0.14455E-04
 0.10318000E+03  0.10534E-04
 0.10323000E+03  0.40631E-05
 0.10328000E+03 -0.27990E-05
 0.10333000E+03 -0.79103E-05
 0.10338000E+03 -0.10015E-04
 0.10343000E+03 -0.92381E-05
 0.10348000E+03 -0.62828E-05
 0.10353000E+03 -0.19157E-05
 0.10358000E+03  0.24962E-05
 0.10363000E+03  0.56736E-05
 0.10368000E+03  0.74614E-05
 0.10373000E+03  0.82426E-05
 0.10378000E+03  0.87033E-05
 0.10383000E+03  0.92822E-05
 0.10388000E+03  0.93479E-05
 0.10393000E+03  0.85224E-05
 0.10398000E+03  0.75919E-05
 0.10403000E+03  0.77863E-05
 0.10408000E+03  0.94897E-05
 0.10413000E+03  0.11718E-04
 0.10418000E+03  0.12810E-04
 0.10423000E+03  0.12081E-04
 0.10428000E+03  0.10078E-04
 0.10433000E+03  0.69272E-05
 0.10438000E+03  0.33879E-05
 0.10443000E+03  0.68354E-06
 0.10448000E+03 -0.10552E-05
 0.10453000E+03 -0.18560E-05
 0.10458000E+03 -0.20071E-05
 0.10463000E+03 -0.19997E-05
 0.10468000E+03 -0.21713E-05
 0.10473000E+03 -0.26537E-05
 0.10478000E+03 -0.34141E-05
 0.10483000E+03 -0.47747E-05
 0.10488000E+03 -0.64506E-05
 0.10493000E+03 -0.72249E-05
 0.10498000E+03 -0.69379E-05
 0.10503000E+03 -0.63718E-05
 0.10508000E+03 -0.55091E-05
 0.10513000E+03 -0.48599E-05
 0.10518000E+03 -0.52796E-05
 0.10523000E+03 -0.66162E-05
 0.10528000E+03 -0.88125E-05
 0.10533000E+03 -0.11648E-04
 0.10538000E+03 -0.13969E-04
 0.10543000E+03 -0.14257E-04
 0.10548000E+03 -0.12123E-04
 0.10553000E+03 -0.87585E-05
 0.10558000E+03 -0.59718E-05
 0.10563000E+03 -0.47494E-05
 0.10568000E+03 -0.42819E-05
 0.10573000E+03 -0.32593E-05
 0.10578000E+03 -0.87552E-06
 0.10583000E+03  0.26657E-05
 0.10588000E+03  0.60849E-05
 0.10593000E+03  0.83296E-05
 0.10598000E+03  0.92614E-05
 0.10603000E+03  0.93508E-05
 0.10608000E+03  0.85279E-05
 0.10613000E+03  0.67806E-05
 0.10618000E+03  0.45313E-05
 0.10623000E+03  0.20093E-05
 0.10628000E+03  0.13353E-06
 0.10633000E+03 -0.91569E-06
 0.10638000E+03 -0.16498E-05
 0.10643000E+03 -0.18253E-05
 0.10648000E+03 -0.12090E-05
 0.10653000E+03  0.77707E-06
 0.10658000E+03  0.43207E-05
 0.10663000E+03  0.82391E-05
 0.10668000E+03  0.11109E-04
 0.10673000E+03  0.12088E-04
 0.10678000E+03  0.11583E-04
 0.10683000E+03  0.10680E-04
 0.10688000E+03  0.94469E-05
 0.10693000E+03  0.79474E-05
 0.10698000E+03  0.63386E-05
 0.10703000E+03  0.41113E-05
 0.10708000E+03  0.11445E-05
 0.10713000E+03 -0.22307E-05
 0.10718000E+03 -0.49727E-05
 0.10723000E+03 -0.67455E-05
 0.10728000E+03 -0.82916E-05
 0.10733000E+03 -0.95941E-05
 0.10738000E+03 -0.10752E-04
 0.10743000E+03 -0.11661E-04
 0.10748000E+03 -0.11639E-04
 0.10753000E+03 -0.10582E-04
 0.10758000E+03 -0.88308E-05
 0.10763000E+03 -0.64240E-05
 0.10768000E+03 -0.31919E-05
 0.10773000E+03  0.10418E-06
 0.10778000E+03  0.23320E-05
 0.10783000E+03  0.27631E-05
 0.10788000E+03  0.15141E-05
 0.10793000E+03 -0.13416E-06
 0.10798000E+03 -0.89007E-06
 0.10803000E+03 -0.47116E-06
 0.10808000E+03  0.29109E-06
 0.10813000E+03  0.10086E-05
 0.10818000E+03  0.15334E-05
 0.10823000E+03  0.19011E-05
 0.10828000E+03  0.26982E-05
 0.10833000E+03  0.35042E-05
 0.10838000E+03  0.43559E-05
 0.10843000E+03  0.56444E-05
 0.10848000E+03  0.65714E-05
 0.10853000E+03  0.65497E-05
 0.10858000E+03  0.58650E-05
 0.10863000E+03  0.47889E-05
 0.10868000E+03  0.33324E-05
 0.10873000E+03  0.21900E-05
 0.10878000E+03  0.13016E-05
 0.10883000E+03 -0.70832E-06
 0.10888000E+03 -0.41001E-05
 0.10893000E+03 -0.81442E-05
 0.10898000E+03 -0.11836E-04
 0.10903000E+03 -0.13900E-04
 0.10908000E+03 -0.13534E-04
 0.10913000E+03 -0.11134E-04
 0.10918000E+03 -0.80359E-05
 0.10923000E+03 -0.49030E-05
 0.10928000E+03 -0.15402E-05
 0.10933000E+03  0.21041E-05
 0.10938000E+03  0.54444E-05
 0.10943000E+03  0.74670E-05
 0.10948000E+03  0.77750E-05
 0.10953000E+03  0.69927E-05
 0.10958000E+03  0.59273E-05
 0.10963000E+03  0.50326E-05
 0.10968000E+03  0.42878E-05
 0.10973000E+03  0.33623E-05
 0.10978000E+03  0.21191E-05
 0.10983000E+03  0.63292E-06
 0.10988000E+03 -0.55840E-06
 0.10993000E+03 -0.81866E-06
 0.10998000E+03 -0.29115E-06
 0.11003000E+03 -0.25508E-06
 0.11008000E+03 -0.12614E-05
 0.11013000E+03 -0.23483E-05
 0.11018000E+03 -0.31366E-05
 0.11023000E+03 -0.35208E-05
 0.11028000E+03 -0.32871E-05
 0.11033000E+03 -0.19296E-05
 0.11038000E+03  0.58351E-06
 0.11043000E+03  0.31380E-05
 0.11048000E+03  0.49617E-05
 0.11053000E+03  0.57016E-05
 0.11058000E+03  0.57406E-05
 0.11063000E+03  0.60009E-05
 0.11068000E+03  0.70001E-05
 0.11073000E+03  0.84464E-05
 0.11078000E+03  0.96960E-05
 0.11083000E+03  0.10286E-04
 0.11088000E+03  0.96136E-05
 0.11093000E+03  0.74152E-05
 0.11098000E+03  0.40288E-05
 0.11103000E+03  0.35195E-06
 0.11108000E+03 -0.27170E-05
 0.11113000E+03 -0.49911E-05
 0.11118000E+03 -0.67302E-05
 0.11123000E+03 -0.79528E-05
 0.11128000E+03 -0.87998E-05
 0.11133000E+03 -0.99941E-05
 0.11138000E+03 -0.11667E-04
 0.11143000E+03 -0.13643E-04
 0.11148000E+03 -0.15190E-04
 0.11153000E+03 -0.14892E-04
 0.11158000E+03 -0.12311E-04
 0.11163000E+03 -0.79689E-05
 0.11168000E+03 -0.31481E-05
 0.11173000E+03  0.91131E-06
 0.11178000E+03  0.35171E-05
 0.11183000E+03  0.44252E-05
 0.11188000E+03  0.40120E-05
 0.11193000E+03  0.32883E-05
 0.11198000E+03  0.35451E-05
 0.11203000E+03  0.48232E-05
 0.11208000E+03  0.60506E-05
 0.11213000E+03  0.65562E-05
 0.11218000E+03  0.60345E-05
 0.11223000E+03  0.40088E-05
 0.11228000E+03  0.10296E-05
 0.11233000E+03 -0.14044E-05
 0.11238000E+03 -0.24657E-05
 0.11243000E+03 -0.18264E-05
 0.11248000E+03  0.80048E-07
 0.11253000E+03  0.18476E-05
 0.11258000E+03  0.24350E-05
 0.11263000E+03  0.20998E-05
 0.11268000E+03  0.17262E-05
 0.11273000E+03  0.16020E-05
 0.11278000E+03  0.17744E-05
 0.11283000E+03  0.22027E-05
 0.11288000E+03  0.25249E-05
 0.11293000E+03  0.27720E-05
 0.11298000E+03  0.26604E-05
 0.11303000E+03  0.19718E-05
 0.11308000E+03  0.15901E-05
 0.11313000E+03  0.19902E-05
 0.11318000E+03  0.26275E-05
 0.11323000E+03  0.27633E-05
 0.11328000E+03  0.17828E-05
 0.11333000E+03 -0.92794E-06
 0.11338000E+03 -0.48884E-05
 0.11343000E+03 -0.88021E-05
 0.11348000E+03 -0.11945E-04
 0.11353000E+03 -0.13333E-04
 0.11358000E+03 -0.12526E-04
 0.11363000E+03 -0.10439E-04
 0.11368000E+03 -0.81271E-05
 0.11373000E+03 -0.58676E-05
 0.11378000E+03 -0.33783E-05
 0.11383000E+03 -0.98562E-06
 0.11388000E+03  0.73980E-06
 0.11393000E+03  0.16487E-05
 0.11398000E+03  0.20989E-05
 0.11403000E+03  0.26586E-05
 0.11408000E+03  0.31927E-05
 0.11413000E+03  0.34691E-05
 0.11418000E+03  0.36869E-05
 0.11423000E+03  0.38446E-05
 0.11428000E+03  0.41870E-05
 0.11433000E+03  0.53709E-05
 0.11438000E+03  0.74187E-05
 0.11443000E+03  0.96964E-05
 0.11448000E+03  0.11442E-04
 0.11453000E+03  0.12425E-04
 0.11458000E+03  0.13130E-04
 0.11463000E+03  0.13750E-04
 0.11468000E+03  0.13968E-04
 0.11473000E+03  0.13295E-04
 0.11478000E+03  0.11495E-04
 0.11483000E+03  0.86886E-05
 0.11488000E+03  0.50316E-05
 0.11493000E+03  0.91631E-06
 0.11498000E+03 -0.29747E-05
 0.11503000E+03 -0.61497E-05
 0.11508000E+03 -0.85328E-05
 0.11513000E+03 -0.10109E-04
 0.11518000E+03 -0.11281E-04
 0.11523000E+03 -0.12700E-04
 0.11528000E+03 -0.14322E-04
 0.11533000E+03 -0.15533E-04
 0.11538000E+03 -0.15521E-04
 0.11543000E+03 -0.13927E-04
 0.11548000E+03 -0.11177E-04
 0.11553000E+03 -0.80700E-05
 0.11558000E+03 -0.50053E-05
 0.11563000E+03 -0.19128E-05
 0.11568000E+03  0.11242E-05
 0.11573000E+03  0.36574E-05
 0.11578000E+03  0.48944E-05
 0.11583000E+03  0.46917E-05
 0.11588000E+03  0.36460E-05
 0.11593000E+03  0.22960E-05
 0.11598000E+03  0.14969E-05
 0.11603000E+03  0.19653E-05
 0.11608000E+03  0.31891E-05
 0.11613000E+03  0.42197E-05
 0.11618000E+03  0.47463E-05
 0.11623000E+03  0.46573E-05
 0.11628000E+03  0.37930E-05
 0.11633000E+03  0.21253E-05
 0.11638000E+03 -0.13032E-06
 0.11643000E+03 -0.22254E-05
 0.11648000E+03 -0.34279E-05
 0.11653000E+03 -0.36976E-05
 0.11658000E+03 -0.32341E-05
 0.11663000E+03 -0.22289E-05
 0.11668000E+03 -0.72983E-06
 0.11673000E+03  0.11921E-05
 0.11678000E+03  0.29456E-05
 0.11683000E+03  0.41342E-05
 0.11688000E+03  0.46205E-05
 0.11693000E+03  0.44617E-05
 0.11698000E+03  0.40272E-05
 0.11703000E+03  0.32798E-05
 0.11708000E+03  0.18750E-05
 0.11713000E+03 -0.19211E-06
 0.11718000E+03 -0.23194E-05
 0.11723000E+03 -0.40489E-05
 0.11728000E+03 -0.52549E-05
 0.11733000E+03 -0.57103E-05
 0.11738000E+03 -0.55040E-05
 0.11743000E+03 -0.51706E-05
 0.11748000E+03 -0.49216E-05
 0.11753000E+03 -0.43664E-05
 0.11758000E+03 -0.33296E-05
 0.11763000E+03 -0.18973E-05
 0.11768000E+03 -0.20443E-07
 0.11773000E+03  0.22987E-05
 0.11778000E+03  0.50091E-05
 0.11783000E+03  0.76322E-05
 0.11788000E+03  0.91353E-05
 0.11793000E+03  0.89027E-05
 0.11798000E+03  0.71099E-05
 0.11803000E+03  0.44181E-05
 0.11808000E+03  0.15433E-05
 0.11813000E+03 -0.86661E-06
 0.11818000E+03 -0.21442E-05
 0.11823000E+03 -0.21183E-05
 0.11828000E+03 -0.13266E-05
 0.11833000E+03 -0.61649E-07
 0.11838000E+03  0.15220E-05
 0.11843000E+03  0.27506E-05
 0.11848000E+03  0.35254E-05
 0.11853000E+03  0.39685E-05
 0.11858000E+03  0.39867E-05
 0.11863000E+03  0.37079E-05
 0.11868000E+03  0.27695E-05
 0.11873000E+03  0.93102E-06
 0.11878000E+03 -0.12774E-05
 0.11883000E+03 -0.32342E-05
 0.11888000E+03 -0.45262E-05
 0.11893000E+03 -0.51572E-05
 0.11898000E+03 -0.55573E-05
 0.11903000E+03 -0.58337E-05
 0.11908000E+03 -0.57878E-05
 0.11913000E+03 -0.57139E-05
 0.11918000E+03 -0.61202E-05
 0.11923000E+03 -0.70938E-05
 0.11928000E+03 -0.83968E-05
 0.11933000E+03 -0.94004E-05
 0.11938000E+03 -0.92877E-05
 0.11943000E+03 -0.77512E-05
 0.11948000E+03 -0.51575E-05
 0.11953000E+03 -0.21939E-05
 0.11958000E+03  0.10479E-05
 0.11963000E+03  0.46647E-05
 0.11968000E+03  0.82884E-05
 0.11973000E+03  0.11487E-04
 0.11978000E+03  0.13638E-04
 0.11983000E+03  0.14385E-04
 0.11988000E+03  0.13720E-04
 0.11993000E+03  0.11800E-04
 0.11998000E+03  0.88846E-05
 0.12003000E+03  0.53772E-05
 0.12008000E+03  0.18264E-05
 0.12013000E+03 -0.18158E-05
 0.12018000E+03 -0.53717E-05
 0.12023000E+03 -0.79486E-05
 0.12028000E+03 -0.91340E-05
 0.12033000E+03 -0.92175E-05
 0.12038000E+03 -0.83500E-05
 0.12043000E+03 -0.66962E-05
 0.12048000E+03 -0.47873E-05
 0.12053000E+03 -0.29985E-05
 0.12058000E+03 -0.15774E-05
 0.12063000E+03 -0.57067E-06
 0.12068000E+03  0.14347E-06
 0.12073000E+03  0.69143E-06
 0.12078000E+03  0.10243E-05
 0.12083000E+03  0.91980E-06
 0.12088000E+03  0.91096E-06
 0.12093000E+03  0.16019E-05
 0.12098000E+03  0.26210E-05
 0.12103000E+03  0.34968E-05
 0.12108000E+03  0.40880E-05
 0.12113000E+03  0.43033E-05
 0.12118000E+03  0.39928E-05
 0.12123000E+03  0.29409E-05
 0.12128000E+03  0.13992E-05
 0.12133000E+03  0.33182E-07
 0.12138000E+03 -0.64983E-06
 0.12143000E+03 -0.56413E-06
 0.12148000E+03 -0.16912E-07
 0.12153000E+03  0.57258E-06
 0.12158000E+03  0.53838E-06
 0.12163000E+03 -0.31539E-06
 0.12168000E+03 -0.14599E-05
 0.12173000E+03 -0.24717E-05
 0.12178000E+03 -0.28094E-05
 0.12183000E+03 -0.20874E-05
 0.12188000E+03 -0.45367E-06
 0.12193000E+03  0.15486E-05
 0.12198000E+03  0.32188E-05
 0.12203000E+03  0.44517E-05
 0.12208000E+03  0.50681E-05
 0.12213000E+03  0.44661E-05
 0.12218000E+03  0.26998E-05
 0.12223000E+03  0.32381E-06
 0.12228000E+03 -0.18898E-05
 0.12233000E+03 -0.30494E-05
 0.12238000E+03 -0.32154E-05
 0.12243000E+03 -0.35356E-05
 0.12248000E+03 -0.45838E-05
 0.12253000E+03 -0.56185E-05
 0.12258000E+03 -0.59511E-05
 0.12263000E+03 -0.56354E-05
 0.12268000E+03 -0.50211E-05
 0.12273000E+03 -0.44091E-05
 0.12278000E+03 -0.36420E-05
 0.12283000E+03 -0.24741E-05
 0.12288000E+03 -0.91972E-06
 0.12293000E+03  0.77995E-06
 0.12298000E+03  0.22557E-05
 0.12303000E+03  0.35230E-05
 0.12308000E+03  0.46081E-05
 0.12313000E+03  0.54018E-05
 0.12318000E+03  0.57960E-05
 0.12323000E+03  0.55037E-05
 0.12328000E+03  0.46165E-05
 0.12333000E+03  0.36883E-05
 0.12338000E+03  0.31559E-05
 0.12343000E+03  0.29312E-05
 0.12348000E+03  0.26717E-05
 0.12353000E+03  0.24858E-05
 0.12358000E+03  0.27219E-05
 0.12363000E+03  0.30137E-05
 0.12368000E+03  0.27088E-05
 0.12373000E+03  0.18061E-05
 0.12378000E+03  0.55141E-06
 0.12383000E+03 -0.10017E-05
 0.12388000E+03 -0.27665E-05
 0.12393000E+03 -0.42436E-05
 0.12398000E+03 -0.51320E-05
 0.12403000E+03 -0.53552E-05
 0.12408000E+03 -0.46778E-05
 0.12413000E+03 -0.34663E-05
 0.12418000E+03 -0.21965E-05
 0.12423000E+03 -0.82494E-06
 0.12428000E+03  0.65095E-06
 0.12433000E+03  0.19753E-05
 0.12438000E+03  0.28366E-05
 0.12443000E+03  0.29113E-05
 0.12448000E+03  0.20110E-05
 0.12453000E+03  0.50688E-06
 0.12458000E+03 -0.10087E-05
 0.12463000E+03 -0.24727E-05
 0.12468000E+03 -0.40326E-05
 0.12473000E+03 -0.54663E-05
 0.12478000E+03 -0.65493E-05
 0.12483000E+03 -0.71444E-05
 0.12488000E+03 -0.70231E-05
 0.12493000E+03 -0.61455E-05
 0.12498000E+03 -0.45880E-05
 0.12503000E+03 -0.25524E-05
 0.12508000E+03 -0.43597E-06
 0.12513000E+03  0.17102E-05
 0.12518000E+03  0.41721E-05
 0.12523000E+03  0.65586E-05
 0.12528000E+03  0.79241E-05
 0.12533000E+03  0.80427E-05
 0.12538000E+03  0.73807E-05
 0.12543000E+03  0.63120E-05
 0.12548000E+03  0.51650E-05
 0.12553000E+03  0.41899E-05
 0.12558000E+03  0.33315E-05
 0.12563000E+03  0.22945E-05
 0.12568000E+03  0.79804E-06
 0.12573000E+03 -0.10749E-05
 0.12578000E+03 -0.29306E-05
 0.12583000E+03 -0.43580E-05
 0.12588000E+03 -0.53458E-05
 0.12593000E+03 -0.59746E-05
 0.12598000E+03 -0.59880E-05
 0.12603000E+03 -0.52560E-05
 0.12608000E+03 -0.38825E-05
 0.12613000E+03 -0.22358E-05
 0.12618000E+03 -0.81713E-06
 0.12623000E+03  0.18040E-06
 0.12628000E+03  0.92356E-06
 0.12633000E+03  0.17161E-05
 0.12638000E+03  0.26837E-05
 0.12643000E+03  0.37795E-05
 0.12648000E+03  0.46984E-05
 0.12653000E+03  0.50730E-05
 0.12658000E+03  0.48627E-05
 0.12663000E+03  0.42740E-05
 0.12668000E+03  0.36353E-05
 0.12673000E+03  0.30553E-05
 0.12678000E+03  0.25444E-05
 0.12683000E+03  0.20237E-05
 0.12688000E+03  0.12874E-05
 0.12693000E+03  0.33210E-06
 0.12698000E+03 -0.66594E-06
 0.12703000E+03 -0.14847E-05
 0.12708000E+03 -0.24520E-05
 0.12713000E+03 -0.39039E-05
 0.12718000E+03 -0.54350E-05
 0.12723000E+03 -0.65321E-05
 0.12728000E+03 -0.69736E-05
 0.12733000E+03 -0.68541E-05
 0.12738000E+03 -0.61522E-05
 0.12743000E+03 -0.47442E-05
 0.12748000E+03 -0.27944E-05
 0.12753000E+03 -0.68313E-06
 0.12758000E+03  0.12306E-05
 0.12763000E+03  0.27626E-05
 0.12768000E+03  0.36933E-05
 0.12773000E+03  0.40957E-05
 0.12778000E+03  0.42306E-05
 0.12783000E+03  0.40894E-05
 0.12788000E+03  0.37880E-05
 0.12793000E+03  0.34253E-05
 0.12798000E+03  0.28977E-05
 0.12803000E+03  0.21742E-05
 0.12808000E+03  0.13900E-05
 0.12813000E+03  0.76624E-06
 0.12818001E+03  0.27559E-06
 0.12823000E+03 -0.66038E-07
 0.12828000E+03 -0.96298E-07
 0.12833000E+03  0.22128E-07
 0.12838000E+03 -0.31592E-07
 0.12843001E+03 -0.35232E-06
 0.12848000E+03 -0.59757E-06
 0.12853000E+03 -0.53513E-06
 0.12858000E+03 -0.46710E-06
 0.12863000E+03 -0.56508E-06
 0.12868001E+03 -0.64677E-06
 0.12873000E+03 -0.66122E-06
 0.12878000E+03 -0.68322E-06
 0.12883000E+03 -0.62823E-06
 0.12888000E+03 -0.38758E-06
 0.12893001E+03 -0.20050E-06
 0.12898000E+03 -0.45150E-06
 0.12903000E+03 -0.88523E-06
 0.12908000E+03 -0.89795E-06
 0.12913000E+03 -0.23473E-06
 0.12918001E+03  0.10357E-05
 0.12923000E+03  0.24668E-05
 0.12928000E+03  0.36252E-05
 0.12933000E+03  0.43099E-05
 0.12938000E+03  0.42837E-05
 0.12943001E+03  0.34406E-05
 0.12948000E+03  0.17929E-05
 0.12953000E+03 -0.45708E-06
 0.12958000E+03 -0.28687E-05
 0.12963000E+03 -0.50054E-05
 0.12968001E+03 -0.64860E-05
 0.12973000E+03 -0.69546E-05
 0.12978000E+03 -0.63502E-05
 0.12983000E+03 -0.49837E-05
 0.12988000E+03 -0.30786E-05
 0.12993001E+03 -0.88818E-06
 0.12998000E+03  0.10464E-05
 0.13003000E+03  0.23441E-05
 0.13008000E+03  0.30726E-05
 0.13013000E+03  0.33084E-05
 0.13018001E+03  0.27789E-05
 0.13023000E+03  0.13104E-05
 0.13028000E+03 -0.69875E-06
 0.13033000E+03 -0.26836E-05
 0.13038000E+03 -0.41014E-05
 0.13043001E+03 -0.45968E-05
 0.13048000E+03 -0.44026E-05
 0.13053000E+03 -0.38094E-05
 0.13058000E+03 -0.29360E-05
 0.13063000E+03 -0.20786E-05
 0.13068001E+03 -0.16027E-05
 0.13073000E+03 -0.13516E-05
 0.13078000E+03 -0.96974E-06
 0.13083000E+03 -0.48400E-06
 0.13088000E+03  0.21467E-06
 0.13093001E+03  0.12738E-05
 0.13098000E+03  0.27236E-05
 0.13103000E+03  0.44217E-05
 0.13108000E+03  0.61810E-05
 0.13113000E+03  0.78511E-05
 0.13118001E+03  0.88199E-05
 0.13123000E+03  0.86903E-05
 0.13128000E+03  0.75030E-05
 0.13133000E+03  0.55201E-05
 0.13138000E+03  0.31216E-05
 0.13143001E+03  0.72648E-06
 0.13148000E+03 -0.10499E-05
 0.13153000E+03 -0.18100E-05
 0.13158000E+03 -0.16548E-05
 0.13163000E+03 -0.12245E-05
 0.13168001E+03 -0.73892E-06
 0.13173000E+03 -0.96718E-07
 0.13178000E+03  0.32473E-06
 0.13183000E+03  0.36679E-06
 0.13188000E+03  0.19658E-06
 0.13193001E+03 -0.17376E-06
 0.13198000E+03 -0.92572E-06
 0.13203000E+03 -0.19064E-05
 0.13208000E+03 -0.28290E-05
 0.13213000E+03 -0.38665E-05
 0.13218001E+03 -0.48570E-05
 0.13223000E+03 -0.53823E-05
 0.13228000E+03 -0.55452E-05
 0.13233000E+03 -0.53411E-05
 0.13238000E+03 -0.46414E-05
 0.13243001E+03 -0.36953E-05
 0.13248000E+03 -0.28169E-05
 0.13253000E+03 -0.18097E-05
 0.13258000E+03 -0.49915E-06
 0.13263000E+03  0.59583E-06
 0.13268001E+03  0.14696E-05
 0.13273000E+03  0.23731E-05
 0.13278000E+03  0.33051E-05
 0.13283000E+03  0.43853E-05
 0.13288000E+03  0.52187E-05
 0.13293001E+03  0.55706E-05
 0.13298000E+03  0.52899E-05
 0.13303000E+03  0.44526E-05
 0.13308000E+03  0.34562E-05
 0.13313000E+03  0.22615E-05
 0.13318001E+03  0.14345E-05
 0.13323000E+03  0.90334E-06
 0.13328000E+03  0.20711E-06
 0.13333000E+03 -0.86335E-07
 0.13338000E+03 -0.34306E-06
 0.13343001E+03 -0.10762E-05
 0.13348000E+03 -0.23678E-05
 0.13353000E+03 -0.38608E-05
 0.13358000E+03 -0.45644E-05
 0.13363000E+03 -0.46790E-05
 0.13368001E+03 -0.45530E-05
 0.13373000E+03 -0.46154E-05
 0.13378000E+03 -0.45972E-05
 0.13383000E+03 -0.39047E-05
 0.13388000E+03 -0.38724E-05
 0.13393001E+03 -0.38522E-05
 0.13398000E+03 -0.31629E-05
 0.13403000E+03 -0.27942E-05
 0.13408000E+03 -0.22212E-05
 0.13413000E+03 -0.12831E-05
 0.13418001E+03  0.55220E-07
 0.13423000E+03  0.14203E-05
 0.13428000E+03  0.25772E-05
 0.13433000E+03  0.44810E-05
 0.13438000E+03  0.64492E-05
 0.13443001E+03  0.75027E-05
 0.13448000E+03  0.84372E-05
 0.13453000E+03  0.90311E-05
 0.13458000E+03  0.82936E-05
 0.13463000E+03  0.72276E-05
 0.13468001E+03  0.65327E-05
 0.13473000E+03  0.58415E-05
 0.13478000E+03  0.52863E-05
 0.13483000E+03  0.43853E-05
 0.13488000E+03  0.27647E-05
 0.13493001E+03  0.58050E-06
 0.13498000E+03 -0.15393E-05
 0.13503000E+03 -0.30437E-05
 0.13508000E+03 -0.48057E-05
 0.13513000E+03 -0.61519E-05
 0.13518001E+03 -0.64738E-05
 0.13523000E+03 -0.70874E-05
 0.13528000E+03 -0.78404E-05
 0.13533000E+03 -0.82637E-05
 0.13538000E+03 -0.81734E-05
 0.13543001E+03 -0.74632E-05
 0.13548000E+03 -0.60426E-05
 0.13553000E+03 -0.38024E-05
 0.13558000E+03 -0.14463E-05
 0.13563000E+03  0.79618E-06
 0.13568001E+03  0.25369E-05
 0.13573000E+03  0.34696E-05
 0.13578000E+03  0.37470E-05
 0.13583000E+03  0.34137E-05
 0.13588000E+03  0.25935E-05
 0.13593001E+03  0.17753E-05
 0.13598000E+03  0.22151E-05
 0.13603000E+03  0.25918E-05
 0.13608000E+03  0.19453E-05
 0.13613000E+03  0.20515E-05
 0.13618001E+03  0.21193E-05
 0.13623000E+03  0.13919E-05
 0.13628000E+03  0.37008E-06
 0.13633000E+03 -0.35126E-06
 0.13638000E+03 -0.38912E-07
 0.13643001E+03  0.20877E-06
 0.13648000E+03 -0.17414E-06
 0.13653000E+03 -0.69535E-06
 0.13658000E+03 -0.11785E-05
 0.13663000E+03 -0.15871E-05
 0.13668001E+03 -0.14270E-05
 0.13673000E+03 -0.45030E-06
 0.13678000E+03  0.21866E-06
 0.13683000E+03 -0.20668E-06
 0.13688000E+03 -0.52652E-06
 0.13693001E+03 -0.34169E-06
 0.13698000E+03 -0.97788E-06
 0.13703000E+03 -0.11791E-05
 0.13708000E+03 -0.81606E-06
 0.13713000E+03 -0.98024E-06
 0.13718001E+03 -0.55646E-06
 0.13723000E+03 -0.38968E-06
 0.13728000E+03 -0.11048E-05
 0.13733000E+03 -0.17029E-05
 0.13738000E+03 -0.11339E-05
 0.13743001E+03 -0.38885E-06
 0.13748000E+03 -0.49763E-06
 0.13753000E+03  0.41668E-06
 0.13758000E+03  0.14918E-05
 0.13763000E+03  0.16536E-05
 0.13768001E+03  0.20204E-05
 0.13773000E+03  0.28075E-05
 0.13778000E+03  0.34524E-05
 0.13783000E+03  0.40032E-05
 0.13788000E+03  0.49243E-05
 0.13793001E+03  0.48002E-05
 0.13798000E+03  0.36263E-05
 0.13803000E+03  0.22433E-05
 0.13808000E+03  0.51755E-06
 0.13813000E+03 -0.39725E-06
 0.13818001E+03 -0.76571E-06
 0.13823000E+03 -0.20143E-05
 0.13828000E+03 -0.33096E-05
 0.13833000E+03 -0.31032E-05
 0.13838000E+03 -0.25431E-05
 0.13843001E+03 -0.22826E-05
 0.13848000E+03 -0.10981E-05
 0.13853000E+03 -0.46270E-08
 0.13858000E+03  0.22769E-06
 0.13863000E+03  0.77730E-06
 0.13868001E+03  0.18587E-05
 0.13873000E+03  0.25157E-05
 0.13878000E+03  0.22408E-05
 0.13883000E+03  0.19281E-05
 0.13888000E+03  0.22107E-05
 0.13893001E+03  0.22322E-05
 0.13898000E+03  0.16537E-05
 0.13903000E+03  0.34651E-06
 0.13908000E+03 -0.12623E-05
 0.13913000E+03 -0.27096E-05
 0.13918001E+03 -0.41568E-05
 0.13923000E+03 -0.50624E-05
 0.13928000E+03 -0.56961E-05
 0.13933000E+03 -0.62134E-05
 0.13938000E+03 -0.64132E-05
 0.13943001E+03 -0.59716E-05
 0.13948000E+03 -0.49404E-05
 0.13953000E+03 -0.36548E-05
 0.13958000E+03 -0.25675E-05
 0.13963000E+03 -0.18318E-05
 0.13968001E+03 -0.58803E-07
 0.13973000E+03  0.12816E-05
 0.13978000E+03  0.18104E-05
 0.13983000E+03  0.33658E-05
 0.13988000E+03  0.40378E-05
 0.13993001E+03  0.34561E-05
 0.13998000E+03  0.29361E-05
 0.14003000E+03  0.27460E-05
 0.14008000E+03  0.28540E-05
 0.14013000E+03  0.20305E-05
 0.14018001E+03  0.76083E-06
 0.14023000E+03  0.72761E-06
 0.14028000E+03  0.10744E-05
 0.14033000E+03  0.21352E-06
 0.14038000E+03 -0.62814E-06
 0.14043001E+03 -0.45879E-06
 0.14048000E+03 -0.34195E-06
 0.14053000E+03 -0.23413E-06
 0.14058000E+03 -0.24845E-06
 0.14063000E+03 -0.66360E-06
 0.14068001E+03 -0.79708E-06
 0.14073000E+03  0.51588E-07
 0.14078000E+03  0.10747E-05
 0.14083000E+03  0.11009E-05
 0.14088000E+03  0.10675E-05
 0.14093001E+03  0.79465E-06
 0.14098000E+03  0.40968E-06
 0.14103000E+03  0.88963E-06
 0.14108000E+03  0.12018E-05
 0.14113000E+03  0.10800E-05
 0.14118001E+03  0.11204E-05
 0.14123000E+03  0.12723E-05
 0.14128000E+03  0.58337E-06
 0.14133000E+03 -0.89461E-07
 0.14138000E+03  0.84521E-06
 0.14143001E+03  0.14400E-05
 0.14148000E+03  0.12443E-05
 0.14153000E+03  0.86886E-06
 0.14158000E+03  0.88343E-07
 0.14163000E+03 -0.13773E-06
 0.14168001E+03 -0.48942E-06
 0.14173000E+03 -0.13970E-05
 0.14178000E+03 -0.23416E-05
 0.14183000E+03 -0.31356E-05
 0.14188000E+03 -0.35382E-05
 0.14193001E+03 -0.30443E-05
 0.14198000E+03 -0.21361E-05
 0.14203000E+03 -0.15793E-05
 0.14208000E+03 -0.10582E-05
 0.14213000E+03 -0.80784E-06
 0.14218001E+03  0.50701E-06
 0.14223000E+03  0.23601E-05
 0.14228000E+03  0.31183E-05
 0.14233000E+03  0.34104E-05
 0.14238000E+03  0.34429E-05
 0.14243001E+03  0.34598E-05
 0.14248000E+03  0.34733E-05
 0.14253000E+03  0.37996E-05
 0.14258000E+03  0.37928E-05
 0.14263000E+03  0.29589E-05
 0.14268001E+03  0.18454E-05
 0.14273000E+03  0.44428E-06
 0.14278000E+03 -0.10615E-05
 0.14283000E+03 -0.27637E-05
 0.14288000E+03 -0.45423E-05
 0.14293001E+03 -0.59167E-05
 0.14298000E+03 -0.65109E-05
 0.14303000E+03 -0.64748E-05
 0.14308000E+03 -0.64624E-05
 0.14313000E+03 -0.61918E-05
 0.14318001E+03 -0.48539E-05
 0.14323000E+03 -0.26618E-05
 0.14328000E+03 -0.61197E-06
 0.14333000E+03  0.51169E-06
 0.14338000E+03  0.12941E-05
 0.14343001E+03  0.20574E-05
 0.14348000E+03  0.27238E-05
 0.14353000E+03  0.30694E-05
 0.14358000E+03  0.27161E-05
 0.14363000E+03  0.27404E-05
 0.14368001E+03  0.24874E-05
 0.14373000E+03  0.15227E-05
 0.14378000E+03  0.67580E-06
 0.14383000E+03 -0.30895E-06
 0.14388000E+03 -0.70295E-06
 0.14393001E+03 -0.40200E-06
 0.14398000E+03 -0.45790E-06
 0.14403000E+03 -0.63350E-06
 0.14408000E+03 -0.48507E-06
 0.14413000E+03 -0.49982E-06
 0.14418001E+03 -0.31642E-06
 0.14423000E+03  0.17209E-06
 0.14428000E+03  0.62528E-06
 0.14433000E+03  0.11697E-05
 0.14438000E+03  0.15372E-05
 0.14443001E+03  0.19446E-05
 0.14448000E+03  0.27038E-05
 0.14453000E+03  0.33586E-05
 0.14458000E+03  0.34375E-05
 0.14463000E+03  0.28863E-05
 0.14468001E+03  0.19979E-05
 0.14473000E+03  0.14143E-05
 0.14478000E+03  0.15943E-05
 0.14483000E+03  0.20985E-05
 0.14488000E+03  0.15939E-05
 0.14493001E+03  0.52406E-06
 0.14498000E+03  0.16706E-06
 0.14503000E+03 -0.38289E-07
 0.14508000E+03 -0.14710E-06
 0.14513000E+03 -0.46555E-07
 0.14518001E+03 -0.45768E-06
 0.14523000E+03 -0.14351E-05
 0.14528000E+03 -0.18371E-05
 0.14533000E+03 -0.17653E-05
 0.14538000E+03 -0.19708E-05
 0.14543001E+03 -0.17605E-05
 0.14548000E+03 -0.13715E-05
 0.14553000E+03 -0.90982E-06
 0.14558000E+03 -0.29822E-06
 0.14563000E+03  0.67147E-07
 0.14568001E+03 -0.93005E-07
 0.14573000E+03 -0.55092E-06
 0.14578000E+03 -0.94024E-06
 0.14583000E+03 -0.21053E-05
 0.14588000E+03 -0.28270E-05
 0.14593001E+03 -0.23706E-05
 0.14598000E+03 -0.20946E-05
 0.14603000E+03 -0.19372E-05
 0.14608000E+03 -0.13158E-05
 0.14613000E+03 -0.14248E-06
 0.14618001E+03  0.57225E-06
 0.14623000E+03  0.90901E-06
 0.14628000E+03  0.13060E-05
 0.14633000E+03  0.16278E-05
 0.14638000E+03  0.22226E-05
 0.14643001E+03  0.24415E-05
 0.14648000E+03  0.20421E-05
 0.14653000E+03  0.10872E-05
 0.14658000E+03  0.13676E-06
 0.14663000E+03 -0.55702E-06
 0.14668001E+03 -0.13882E-05
 0.14673000E+03 -0.18315E-05
 0.14678000E+03 -0.23612E-05
 0.14683000E+03 -0.28597E-05
 0.14688000E+03 -0.29171E-05
 0.14693001E+03 -0.30636E-05
 0.14698000E+03 -0.25528E-05
 0.14703000E+03 -0.15467E-05
 0.14708000E+03 -0.11445E-05
 0.14713000E+03 -0.74619E-06
 0.14718001E+03  0.19609E-06
 0.14723000E+03  0.12622E-05
 0.14728000E+03  0.23133E-05
 0.14733000E+03  0.31933E-05
 0.14738000E+03  0.37307E-05
 0.14743001E+03  0.40943E-05
 0.14748000E+03  0.40463E-05
 0.14753000E+03  0.39220E-05
 0.14758000E+03  0.39050E-05
 0.14763000E+03  0.32042E-05
 0.14768001E+03  0.18324E-05
 0.14773000E+03  0.50041E-06
 0.14778000E+03 -0.20114E-06
 0.14783000E+03 -0.71679E-06
 0.14788000E+03 -0.12723E-05
 0.14793001E+03 -0.15214E-05
 0.14798000E+03 -0.16934E-05
 0.14803000E+03 -0.18382E-05
 0.14808000E+03 -0.19996E-05
 0.14813000E+03 -0.21748E-05
 0.14818001E+03 -0.22446E-05
 0.14823000E+03 -0.25398E-05
 0.14828000E+03 -0.28190E-05
 0.14833000E+03 -0.25944E-05
 0.14838000E+03 -0.20867E-05
 0.14843001E+03 -0.12837E-05
 0.14848000E+03 -0.21823E-06
 0.14853000E+03  0.91097E-06
 0.14858000E+03  0.17680E-05
 0.14863000E+03  0.21381E-05
 0.14868001E+03  0.18843E-05
 0.14873000E+03  0.11871E-05
 0.14878000E+03  0.62596E-06
 0.14883000E+03 -0.77788E-08
 0.14888000E+03 -0.73004E-06
 0.14893001E+03 -0.14278E-05
 0.14898000E+03 -0.15001E-05
 0.14903000E+03 -0.83826E-06
 0.14908000E+03 -0.24759E-06
 0.14913000E+03  0.51439E-06
 0.14918001E+03  0.14011E-05
 0.14923000E+03  0.22515E-05
 0.14928000E+03  0.27274E-05
 0.14933000E+03  0.25638E-05
 0.14938000E+03  0.24273E-05
 0.14943001E+03  0.21892E-05
 0.14948000E+03  0.16465E-05
 0.14953000E+03  0.14003E-05
 0.14958000E+03  0.10979E-05
 0.14963000E+03  0.43788E-06
 0.14968001E+03  0.37129E-06
 0.14973000E+03  0.80232E-06
 0.14978000E+03  0.79795E-06
 0.14983000E+03  0.30814E-06
 0.14988000E+03 -0.66589E-07
 0.14993001E+03 -0.63995E-07
 0.14998000E+03  0.35679E-07
