-0.20000458E-01  0.34241E-06
 0.29999543E-01 -0.19368E-06
 0.79999544E-01  0.29401E-06
 0.12999955E+00  0.65337E-08
 0.17999955E+00  0.79925E-06
 0.22999954E+00  0.14109E-06
 0.27999955E+00 -0.41583E-06
 0.32999954E+00  0.25201E-06
 0.37999955E+00 -0.35699E-06
 0.42999956E+00 -0.20845E-06
 0.47999954E+00  0.24471E-06
 0.52999955E+00  0.22291E-06
 0.57999957E+00 -0.31433E-06
 0.62999958E+00 -0.21357E-06
 0.67999953E+00  0.19917E-06
 0.72999954E+00 -0.24714E-06
 0.77999955E+00 -0.40915E-06
 0.82999957E+00 -0.15559E-06
 0.87999958E+00  0.10228E-06
 0.92999953E+00 -0.47504E-06
 0.97999954E+00 -0.46855E-06
 0.10299996E+01  0.16136E-06
 0.10799996E+01 -0.36795E-06
 0.11299995E+01 -0.39909E-06
 0.11799996E+01  0.21638E-06
 0.12299995E+01  0.13419E-06
 0.12799996E+01 -0.29209E-06
 0.13299996E+01 -0.27597E-06
 0.13799995E+01  0.73008E-08
 0.14299996E+01  0.25437E-08
 0.14799995E+01 -0.19547E-06
 0.15299996E+01  0.16550E-06
 0.15799996E+01  0.42444E-06
 0.16299995E+01 -0.19462E-06
 0.16799996E+01 -0.10503E-06
 0.17299995E+01  0.41786E-06
 0.17799996E+01  0.28047E-06
 0.18299996E+01  0.11000E-06
 0.18799995E+01  0.38899E-06
 0.19299996E+01  0.37628E-06
 0.19799995E+01 -0.15727E-06
 0.20299995E+01 -0.10113E-06
 0.20799997E+01  0.32997E-06
 0.21299996E+01  0.36356E-06
 0.21799996E+01 -0.33633E-07
 0.22299995E+01  0.17641E-06
 0.22799995E+01  0.39369E-06
 0.23299997E+01 -0.71404E-07
 0.23799996E+01  0.20887E-06
 0.24299996E+01  0.38457E-06
 0.24799995E+01  0.13194E-07
 0.25299995E+01 -0.65657E-07
 0.25799997E+01  0.43073E-07
 0.26299996E+01  0.53337E-07
 0.26799996E+01 -0.12512E-06
 0.27299995E+01  0.91255E-07
 0.27799995E+01  0.34617E-06
 0.28299997E+01 -0.14591E-07
 0.28799996E+01 -0.34281E-06
 0.29299996E+01 -0.52243E-07
 0.29799995E+01  0.74663E-07
 0.30299995E+01 -0.36167E-06
 0.30799997E+01 -0.29294E-06
 0.31299996E+01  0.59803E-07
 0.31799996E+01 -0.17066E-06
 0.32299995E+01 -0.32640E-06
 0.32799995E+01  0.21350E-06
 0.33299997E+01  0.22819E-06
 0.33799996E+01 -0.33826E-06
 0.34299996E+01 -0.86287E-07
 0.34799995E+01  0.20549E-08
 0.35299995E+01 -0.24823E-06
 0.35799997E+01 -0.24497E-06
 0.36299996E+01 -0.12900E-06
 0.36799996E+01 -0.13337E-06
 0.37299995E+01 -0.56589E-06
 0.37799995E+01 -0.38412E-06
 0.38299997E+01  0.25536E-07
 0.38799996E+01 -0.17968E-06
 0.39299996E+01 -0.47761E-06
 0.39799995E+01  0.11816E-06
 0.40299997E+01  0.79612E-07
 0.40799994E+01 -0.66181E-06
 0.41299996E+01  0.30941E-07
 0.41799998E+01 -0.96253E-07
 0.42299995E+01 -0.28848E-06
 0.42799997E+01  0.32553E-06
 0.43299994E+01  0.18527E-06
 0.43799996E+01  0.29429E-06
 0.44299998E+01  0.11780E-06
 0.44799995E+01 -0.12833E-06
 0.45299997E+01  0.22821E-06
 0.45799994E+01  0.19286E-06
 0.46299996E+01 -0.19691E-07
 0.46799998E+01  0.50495E-06
 0.47299995E+01  0.66976E-06
 0.47799997E+01  0.82633E-07
 0.48299994E+01  0.39574E-06
 0.48799996E+01  0.42983E-06
 0.49299998E+01 -0.98378E-07
 0.49799995E+01  0.29506E-06
 0.50299997E+01  0.40913E-06
 0.50799994E+01  0.30303E-06
 0.51299996E+01  0.27810E-06
 0.51799998E+01  0.12903E-06
 0.52299995E+01  0.28274E-06
 0.52799997E+01  0.44189E-07
 0.53299994E+01 -0.13272E-06
 0.53799996E+01  0.92896E-07
 0.54299998E+01  0.12066E-06
 0.54799995E+01 -0.10163E-06
 0.55299997E+01 -0.17082E-07
 0.55799994E+01  0.53789E-07
 0.56299996E+01 -0.25641E-06
 0.56799998E+01 -0.18017E-06
 0.57299995E+01 -0.17663E-06
 0.57799997E+01 -0.21109E-06
 0.58299994E+01 -0.21368E-06
 0.58799996E+01 -0.10653E-06
 0.59299998E+01 -0.49616E-07
 0.59799995E+01 -0.38337E-06
 0.60299997E+01 -0.20002E-06
 0.60799994E+01 -0.18347E-06
 0.61299996E+01 -0.25359E-06
 0.61799998E+01 -0.29967E-07
 0.62299995E+01 -0.19092E-06
 0.62799997E+01 -0.24571E-06
 0.63299994E+01 -0.19110E-06
 0.63799996E+01 -0.24128E-06
 0.64299998E+01 -0.27505E-07
 0.64799995E+01  0.26525E-07
 0.65299997E+01 -0.26683E-06
 0.65799994E+01 -0.10766E-06
 0.66299996E+01  0.18346E-07
 0.66799998E+01 -0.13399E-06
 0.67299995E+01  0.34936E-07
 0.67799997E+01 -0.61928E-07
 0.68299994E+01 -0.23619E-06
 0.68799996E+01 -0.14559E-07
 0.69299998E+01  0.65497E-08
 0.69799995E+01 -0.97157E-08
 0.70299997E+01  0.24031E-06
 0.70799994E+01  0.19551E-06
 0.71299996E+01 -0.10988E-06
 0.71799998E+01 -0.11615E-06
 0.72299995E+01 -0.13775E-08
 0.72799997E+01 -0.65765E-08
 0.73299994E+01  0.71656E-08
 0.73799996E+01  0.23562E-06
 0.74299998E+01  0.25629E-06
 0.74799995E+01  0.60558E-07
 0.75299997E+01  0.29295E-06
 0.75799994E+01  0.24280E-06
 0.76299996E+01  0.13639E-06
 0.76799998E+01  0.17939E-06
 0.77299995E+01  0.27074E-07
 0.77799997E+01  0.19580E-06
 0.78299994E+01  0.28574E-06
 0.78799996E+01  0.46940E-06
 0.79299998E+01  0.52657E-06
 0.79799995E+01  0.25235E-06
 0.80299997E+01  0.14639E-08
 0.80799999E+01 -0.16592E-06
 0.81300001E+01 -0.21158E-06
 0.81799994E+01 -0.22513E-06
 0.82299995E+01  0.60488E-07
 0.82799997E+01  0.20444E-06
 0.83299999E+01  0.17087E-06
 0.83800001E+01  0.57730E-08
 0.84299994E+01 -0.63661E-07
 0.84799995E+01 -0.14890E-06
 0.85299997E+01 -0.34437E-06
 0.85799999E+01 -0.12892E-06
 0.86300001E+01 -0.14587E-06
 0.86799994E+01 -0.21758E-06
 0.87299995E+01 -0.23324E-07
 0.87799997E+01  0.16574E-07
 0.88299999E+01 -0.10810E-06
 0.88800001E+01 -0.25354E-07
 0.89299994E+01 -0.89903E-07
 0.89799995E+01 -0.11135E-06
 0.90299997E+01 -0.51240E-07
 0.90799999E+01 -0.26061E-06
 0.91300001E+01 -0.86276E-07
 0.91799994E+01 -0.12283E-06
 0.92299995E+01 -0.20642E-06
 0.92799997E+01  0.10025E-06
 0.93299999E+01  0.23796E-06
 0.93800001E+01  0.12386E-06
 0.94299994E+01  0.22658E-06
 0.94799995E+01  0.11514E-06
 0.95299997E+01 -0.19089E-06
 0.95799999E+01  0.24150E-08
 0.96300001E+01 -0.12966E-06
 0.96799994E+01 -0.47384E-07
 0.97299995E+01  0.32106E-06
 0.97799997E+01  0.13315E-06
 0.98299999E+01 -0.56628E-07
 0.98800001E+01 -0.73228E-07
 0.99299994E+01 -0.30967E-06
 0.99799995E+01 -0.31423E-06
 0.10030000E+02 -0.14298E-06
 0.10080000E+02 -0.16805E-06
 0.10130000E+02 -0.10825E-06
 0.10179999E+02 -0.19614E-06
 0.10230000E+02 -0.12091E-06
 0.10280000E+02 -0.75677E-07
 0.10330000E+02 -0.12206E-06
 0.10380000E+02 -0.37616E-07
 0.10429999E+02 -0.24991E-07
 0.10480000E+02 -0.21251E-07
 0.10530000E+02 -0.78246E-07
 0.10580000E+02  0.76062E-07
 0.10630000E+02  0.11164E-06
 0.10679999E+02  0.63108E-07
 0.10730000E+02  0.13130E-06
 0.10780000E+02  0.11866E-06
 0.10830000E+02  0.21049E-06
 0.10880000E+02  0.21684E-06
 0.10929999E+02  0.27477E-06
 0.10980000E+02  0.24530E-06
 0.11030000E+02  0.19779E-06
 0.11080000E+02  0.31690E-06
 0.11130000E+02  0.24564E-06
 0.11179999E+02  0.33168E-06
 0.11230000E+02  0.20110E-06
 0.11280000E+02  0.16485E-06
 0.11330000E+02  0.15126E-06
 0.11380000E+02 -0.10127E-06
 0.11429999E+02  0.79680E-07
 0.11480000E+02 -0.38523E-07
 0.11530000E+02 -0.11888E-06
 0.11580000E+02  0.26263E-07
 0.11630000E+02  0.84141E-07
 0.11679999E+02 -0.50981E-07
 0.11730000E+02 -0.12845E-06
 0.11780000E+02 -0.12582E-06
 0.11830000E+02 -0.47808E-06
 0.11880000E+02 -0.17933E-06
 0.11929999E+02 -0.12480E-06
 0.11980000E+02 -0.28602E-06
 0.12030000E+02 -0.16386E-07
 0.12080000E+02 -0.15910E-06
 0.12130000E+02 -0.10546E-06
 0.12179999E+02  0.15060E-07
 0.12230000E+02 -0.43785E-07
 0.12280000E+02 -0.34727E-07
 0.12330000E+02  0.87163E-07
 0.12380000E+02 -0.40243E-07
 0.12429999E+02 -0.11745E-06
 0.12480000E+02  0.15179E-06
 0.12530000E+02 -0.70876E-07
 0.12580000E+02 -0.89608E-07
 0.12630000E+02  0.88880E-07
 0.12679999E+02 -0.12330E-06
 0.12730000E+02 -0.63619E-07
 0.12780000E+02  0.54868E-07
 0.12830000E+02 -0.26301E-07
 0.12880000E+02 -0.15389E-06
 0.12929999E+02 -0.16354E-06
 0.12980000E+02  0.88997E-08
 0.13030000E+02 -0.82348E-07
 0.13080000E+02 -0.92247E-07
 0.13130000E+02  0.15831E-06
 0.13179999E+02  0.17772E-06
 0.13230000E+02  0.14025E-06
 0.13280000E+02  0.13423E-06
 0.13330000E+02  0.97946E-07
 0.13380000E+02 -0.13388E-07
 0.13429999E+02 -0.46803E-07
 0.13480000E+02  0.45000E-07
 0.13530000E+02  0.18300E-06
 0.13580000E+02  0.16898E-06
 0.13630000E+02  0.15296E-07
 0.13679999E+02  0.13063E-06
 0.13730000E+02  0.71903E-07
 0.13780000E+02 -0.59371E-07
 0.13830000E+02  0.13616E-06
 0.13880000E+02  0.72416E-07
 0.13929999E+02 -0.13849E-06
 0.13980000E+02 -0.15189E-06
 0.14030000E+02 -0.15210E-06
 0.14080000E+02 -0.14256E-06
 0.14130000E+02 -0.10844E-06
 0.14179999E+02  0.13346E-06
 0.14230000E+02  0.24351E-06
 0.14280000E+02  0.13160E-06
 0.14330000E+02  0.61978E-07
 0.14380000E+02 -0.12004E-06
 0.14429999E+02 -0.21567E-06
 0.14480000E+02 -0.19476E-06
 0.14530000E+02  0.40508E-07
 0.14580000E+02  0.26325E-06
 0.14630000E+02  0.45083E-07
 0.14679999E+02 -0.53908E-07
 0.14730000E+02  0.19371E-06
 0.14780000E+02  0.11092E-07
 0.14830000E+02 -0.32460E-06
 0.14880000E+02  0.24638E-07
 0.14929999E+02  0.15626E-06
 0.14980000E+02 -0.22377E-06
 0.15030000E+02  0.57107E-07
 0.15080000E+02  0.21866E-06
 0.15130000E+02 -0.13446E-06
 0.15179999E+02 -0.14647E-06
 0.15230000E+02 -0.12076E-06
 0.15280000E+02  0.84917E-07
 0.15330000E+02 -0.38497E-08
 0.15380000E+02 -0.18777E-06
 0.15429999E+02  0.14598E-06
 0.15480000E+02  0.16068E-07
 0.15530000E+02 -0.32441E-06
 0.15580000E+02 -0.94091E-07
 0.15630000E+02  0.18211E-06
 0.15679999E+02 -0.28915E-08
 0.15730000E+02 -0.58936E-07
 0.15780000E+02  0.12371E-06
 0.15830000E+02  0.15963E-06
 0.15880000E+02 -0.93661E-07
 0.15929999E+02 -0.11874E-06
 0.15980000E+02  0.22731E-06
 0.16030001E+02  0.32897E-08
 0.16080000E+02 -0.96100E-07
 0.16129999E+02  0.34814E-06
 0.16180000E+02  0.28558E-06
 0.16230000E+02 -0.18228E-06
 0.16280001E+02  0.12200E-07
 0.16330000E+02  0.25051E-06
 0.16379999E+02 -0.23796E-06
 0.16430000E+02 -0.20244E-06
 0.16480000E+02  0.23249E-06
 0.16530001E+02  0.77777E-07
 0.16580000E+02 -0.24410E-06
 0.16629999E+02 -0.16742E-06
 0.16680000E+02 -0.15691E-07
 0.16730000E+02 -0.12970E-06
 0.16780001E+02 -0.21531E-06
 0.16830000E+02  0.54834E-08
 0.16879999E+02  0.24448E-07
 0.16930000E+02 -0.30650E-06
 0.16980000E+02 -0.37147E-07
 0.17030001E+02  0.22260E-06
 0.17080000E+02 -0.16938E-07
 0.17129999E+02 -0.62698E-08
 0.17180000E+02  0.11055E-06
 0.17230000E+02  0.64571E-07
 0.17280001E+02 -0.60483E-07
 0.17330000E+02  0.32201E-07
 0.17379999E+02  0.14507E-06
 0.17430000E+02  0.82323E-07
 0.17480000E+02 -0.20539E-07
 0.17530001E+02  0.89532E-07
 0.17580000E+02  0.17203E-06
 0.17629999E+02 -0.16185E-06
 0.17680000E+02  0.10164E-06
 0.17730000E+02  0.40885E-06
 0.17780001E+02 -0.67253E-07
 0.17830000E+02 -0.48964E-07
 0.17879999E+02  0.23656E-06
 0.17930000E+02 -0.21934E-07
 0.17980000E+02 -0.95581E-07
 0.18030001E+02  0.10672E-06
 0.18080000E+02  0.12988E-06
 0.18129999E+02  0.17188E-07
 0.18180000E+02 -0.12648E-06
 0.18230000E+02 -0.59526E-07
 0.18280001E+02 -0.12000E-06
 0.18330000E+02 -0.34391E-06
 0.18379999E+02 -0.15693E-06
 0.18430000E+02  0.76165E-07
 0.18480000E+02 -0.46505E-07
 0.18530001E+02 -0.80709E-07
 0.18580000E+02 -0.45106E-08
 0.18629999E+02 -0.92756E-07
 0.18680000E+02 -0.27938E-06
 0.18730000E+02 -0.20605E-06
 0.18780001E+02 -0.68640E-07
 0.18830000E+02 -0.11120E-06
 0.18879999E+02  0.11732E-07
 0.18930000E+02  0.13673E-06
 0.18980000E+02  0.16391E-06
 0.19030001E+02 -0.68595E-07
 0.19080000E+02 -0.11419E-06
 0.19129999E+02  0.49052E-07
 0.19180000E+02 -0.78053E-07
 0.19230000E+02  0.16621E-06
 0.19280001E+02  0.25478E-06
 0.19330000E+02  0.14090E-06
 0.19379999E+02  0.17748E-06
 0.19430000E+02  0.14722E-06
 0.19480000E+02  0.40240E-06
 0.19530001E+02  0.37207E-06
 0.19580000E+02  0.10585E-05
 0.19629999E+02  0.17968E-05
 0.19680000E+02  0.39082E-05
 0.19730000E+02  0.46046E-05
 0.19780001E+02  0.40475E-05
 0.19830000E+02  0.27463E-05
 0.19879999E+02 -0.37621E-05
 0.19930000E+02 -0.88675E-05
 0.19980000E+02 -0.18350E-04
 0.20030001E+02 -0.22842E-04
 0.20080000E+02 -0.22750E-04
 0.20129999E+02 -0.20437E-04
 0.20180000E+02 -0.57536E-05
 0.20230000E+02  0.68779E-06
 0.20280001E+02  0.12605E-04
 0.20330000E+02  0.28552E-04
 0.20379999E+02  0.28530E-04
 0.20430000E+02  0.27308E-04
 0.20480000E+02  0.98934E-05
 0.20530001E+02 -0.16106E-04
 0.20580000E+02 -0.19556E-04
 0.20629999E+02 -0.14369E-04
 0.20680000E+02  0.22831E-04
 0.20730000E+02  0.64356E-04
 0.20780001E+02  0.61997E-04
 0.20830000E+02  0.33876E-04
 0.20879999E+02 -0.25818E-04
 0.20930000E+02 -0.52204E-04
 0.20980000E+02 -0.32101E-04
 0.21030001E+02 -0.14585E-04
 0.21080000E+02 -0.17144E-04
 0.21129999E+02 -0.31280E-04
 0.21180000E+02 -0.23693E-04
 0.21230000E+02 -0.29086E-04
 0.21280001E+02  0.22039E-04
 0.21330000E+02  0.65630E-04
 0.21379999E+02  0.37570E-04
 0.21430000E+02  0.52054E-04
 0.21480000E+02 -0.25058E-04
 0.21530001E+02 -0.10683E-03
 0.21580000E+02 -0.87779E-04
 0.21629999E+02 -0.54107E-04
 0.21680000E+02  0.66885E-04
 0.21730000E+02  0.21012E-03
 0.21780001E+02  0.17908E-03
 0.21830000E+02 -0.17045E-04
 0.21879999E+02 -0.19099E-03
 0.21930000E+02 -0.26258E-03
 0.21980000E+02 -0.73507E-04
 0.22030001E+02  0.15259E-03
 0.22080000E+02  0.12298E-03
 0.22129999E+02  0.22218E-04
 0.22180000E+02 -0.85227E-04
 0.22230000E+02 -0.15744E-03
 0.22280001E+02 -0.76495E-04
 0.22330000E+02  0.78714E-04
 0.22379999E+02  0.53815E-04
 0.22430000E+02  0.11639E-04
 0.22480000E+02  0.12037E-03
 0.22530001E+02  0.98678E-04
 0.22580000E+02  0.31728E-04
 0.22629999E+02 -0.15252E-05
 0.22680000E+02 -0.77002E-04
 0.22730000E+02  0.33794E-05
 0.22780001E+02  0.26108E-04
 0.22830000E+02  0.13574E-04
 0.22879999E+02  0.97476E-04
 0.22930000E+02  0.34278E-04
 0.22980000E+02  0.55972E-05
 0.23030001E+02  0.44702E-04
 0.23080000E+02  0.26529E-04
 0.23129999E+02 -0.94752E-04
 0.23180000E+02 -0.14872E-03
 0.23230000E+02 -0.10079E-03
 0.23280001E+02 -0.11980E-03
 0.23330000E+02  0.48804E-05
 0.23379999E+02  0.59850E-04
 0.23430000E+02 -0.29444E-04
 0.23480000E+02 -0.67850E-04
 0.23530001E+02 -0.76063E-04
 0.23580000E+02  0.16880E-04
 0.23629999E+02 -0.37840E-04
 0.23680000E+02  0.28791E-06
 0.23730000E+02  0.24975E-03
 0.23780001E+02  0.86512E-04
 0.23830000E+02 -0.12733E-03
 0.23879999E+02  0.40661E-04
 0.23930000E+02  0.93570E-04
 0.23980000E+02  0.42957E-04
 0.24030001E+02  0.12866E-03
 0.24080000E+02  0.52973E-04
 0.24129999E+02 -0.98712E-04
 0.24180000E+02 -0.89510E-04
 0.24230000E+02 -0.48195E-04
 0.24280001E+02 -0.14055E-04
 0.24330000E+02  0.24802E-04
 0.24379999E+02  0.19544E-04
 0.24430000E+02 -0.63390E-04
 0.24480000E+02 -0.13503E-03
 0.24530001E+02  0.10882E-04
 0.24580000E+02  0.19816E-03
 0.24629999E+02  0.51435E-04
 0.24680000E+02 -0.59536E-04
 0.24730000E+02 -0.50693E-05
 0.24780001E+02 -0.36943E-04
 0.24830000E+02  0.24536E-04
 0.24879999E+02  0.21813E-04
 0.24930000E+02 -0.61342E-04
 0.24980000E+02  0.45878E-05
 0.25030001E+02  0.49524E-04
 0.25080000E+02  0.16657E-04
 0.25129999E+02  0.37506E-04
 0.25180000E+02 -0.25020E-04
 0.25230000E+02 -0.13093E-03
 0.25280001E+02 -0.57746E-05
 0.25330000E+02  0.68180E-04
 0.25379999E+02 -0.17506E-04
 0.25430000E+02 -0.81394E-04
 0.25480000E+02 -0.10725E-03
 0.25530001E+02 -0.22888E-04
 0.25580000E+02 -0.51487E-05
 0.25629999E+02 -0.38259E-04
 0.25680000E+02  0.11561E-04
 0.25730000E+02  0.10448E-03
 0.25780001E+02  0.15111E-03
 0.25830000E+02  0.10627E-03
 0.25879999E+02  0.49891E-05
 0.25930000E+02 -0.12206E-03
 0.25980000E+02 -0.23125E-04
 0.26030001E+02  0.13166E-03
 0.26080000E+02  0.28090E-05
 0.26129999E+02 -0.10615E-03
 0.26180000E+02 -0.49262E-04
 0.26230000E+02 -0.62651E-04
 0.26280001E+02 -0.55902E-04
 0.26330000E+02  0.46846E-04
 0.26379999E+02  0.11600E-05
 0.26430000E+02 -0.28204E-04
 0.26480000E+02  0.88327E-04
 0.26530001E+02  0.37455E-04
 0.26580000E+02  0.82431E-06
 0.26629999E+02  0.13255E-03
 0.26680000E+02  0.88034E-04
 0.26730000E+02 -0.94980E-05
 0.26780001E+02  0.81388E-04
 0.26830000E+02  0.40863E-04
 0.26879999E+02 -0.10676E-03
 0.26930000E+02 -0.60748E-04
 0.26980000E+02 -0.24085E-05
 0.27030001E+02  0.43477E-04
 0.27080000E+02  0.37877E-04
 0.27129999E+02 -0.71032E-04
 0.27180000E+02 -0.87987E-04
 0.27230000E+02 -0.73289E-04
 0.27280001E+02  0.24440E-04
 0.27330000E+02  0.51571E-04
 0.27379999E+02 -0.52891E-04
 0.27430000E+02 -0.76941E-04
 0.27480000E+02 -0.18735E-03
 0.27530001E+02 -0.17120E-03
 0.27580000E+02  0.55959E-04
 0.27629999E+02  0.14375E-03
 0.27680000E+02  0.90860E-04
 0.27730000E+02  0.35781E-04
 0.27780001E+02 -0.40267E-05
 0.27830000E+02 -0.13316E-04
 0.27879999E+02  0.23756E-04
 0.27930000E+02 -0.10158E-03
 0.27980000E+02 -0.15698E-03
 0.28030001E+02  0.32601E-04
 0.28080000E+02  0.69258E-04
 0.28129999E+02  0.74973E-04
 0.28180000E+02  0.76036E-04
 0.28230000E+02  0.21185E-04
 0.28280001E+02  0.15663E-03
 0.28330000E+02  0.20475E-03
 0.28379999E+02  0.13801E-03
 0.28430000E+02  0.12848E-03
 0.28480000E+02 -0.39242E-04
 0.28530001E+02 -0.15088E-03
 0.28580000E+02 -0.12829E-03
 0.28629999E+02 -0.17642E-03
 0.28680000E+02 -0.16202E-03
 0.28730000E+02 -0.65866E-04
 0.28780001E+02  0.30966E-04
 0.28830000E+02  0.61636E-04
 0.28879999E+02 -0.61871E-04
 0.28930000E+02 -0.10626E-03
 0.28980000E+02  0.14582E-04
 0.29030001E+02 -0.14722E-04
 0.29080000E+02 -0.17227E-04
 0.29129999E+02  0.53405E-04
 0.29180000E+02 -0.94516E-05
 0.29230000E+02  0.78802E-04
 0.29280001E+02  0.15524E-03
 0.29330000E+02  0.18148E-04
 0.29379999E+02  0.18620E-04
 0.29430000E+02  0.42749E-04
 0.29480000E+02  0.13512E-05
 0.29530001E+02  0.82136E-04
 0.29580000E+02  0.78461E-04
 0.29629999E+02 -0.25745E-04
 0.29680000E+02 -0.11411E-03
 0.29730000E+02 -0.18488E-03
 0.29780001E+02 -0.89579E-04
 0.29830000E+02  0.58626E-04
 0.29879999E+02  0.81533E-04
 0.29930000E+02  0.13594E-03
 0.29980000E+02  0.13097E-03
 0.30030001E+02 -0.12131E-04
 0.30080000E+02 -0.33814E-04
 0.30129999E+02 -0.10553E-04
 0.30180000E+02 -0.70967E-04
 0.30230000E+02 -0.44578E-04
 0.30280001E+02 -0.35797E-04
 0.30330000E+02 -0.17156E-03
 0.30379999E+02 -0.13174E-03
 0.30430000E+02 -0.70655E-04
 0.30480000E+02 -0.84371E-04
 0.30530001E+02  0.66809E-04
 0.30580000E+02  0.85364E-04
 0.30629999E+02  0.37075E-04
 0.30680000E+02  0.91949E-04
 0.30730000E+02  0.14437E-03
 0.30780001E+02  0.15072E-03
 0.30830000E+02  0.28941E-04
 0.30879999E+02 -0.89356E-04
 0.30930000E+02 -0.14111E-03
 0.30980000E+02 -0.15398E-03
 0.31030001E+02 -0.89561E-04
 0.31080000E+02  0.59299E-04
 0.31129999E+02  0.18807E-03
 0.31180000E+02  0.16655E-03
 0.31230000E+02  0.16900E-03
 0.31280001E+02  0.10662E-03
 0.31330000E+02 -0.14356E-03
 0.31379999E+02 -0.15281E-03
 0.31430000E+02 -0.55389E-04
 0.31480000E+02 -0.80871E-04
 0.31530001E+02  0.56833E-06
 0.31580000E+02 -0.31159E-04
 0.31629999E+02 -0.15253E-03
 0.31680000E+02 -0.74533E-05
 0.31730000E+02  0.15520E-03
 0.31780001E+02  0.55358E-04
 0.31830000E+02  0.40383E-04
 0.31879999E+02  0.13694E-03
 0.31930000E+02 -0.22245E-04
 0.31980000E+02 -0.96973E-04
 0.32029999E+02 -0.44649E-05
 0.32080002E+02 -0.76131E-04
 0.32130001E+02 -0.45708E-04
 0.32180000E+02  0.57676E-04
 0.32230000E+02  0.88924E-05
 0.32279999E+02 -0.31256E-04
 0.32330002E+02  0.18356E-04
 0.32380001E+02  0.44134E-04
 0.32430000E+02  0.47215E-04
 0.32480000E+02  0.87536E-04
 0.32529999E+02 -0.22713E-04
 0.32580002E+02 -0.13619E-03
 0.32630001E+02 -0.96519E-04
 0.32680000E+02 -0.14118E-03
 0.32730000E+02 -0.15274E-03
 0.32779999E+02 -0.47003E-04
 0.32830002E+02 -0.63820E-04
 0.32880001E+02 -0.45209E-04
 0.32930000E+02  0.13479E-03
 0.32980000E+02  0.17887E-03
 0.33029999E+02  0.17433E-03
 0.33080002E+02  0.24165E-03
 0.33130001E+02  0.15404E-03
 0.33180000E+02  0.32897E-04
 0.33230000E+02  0.44737E-04
 0.33279999E+02 -0.19670E-04
 0.33330002E+02 -0.15885E-03
 0.33380001E+02 -0.20479E-03
 0.33430000E+02 -0.16800E-03
 0.33480000E+02 -0.97702E-04
 0.33529999E+02  0.30093E-04
 0.33580002E+02  0.19847E-03
 0.33630001E+02  0.17993E-03
 0.33680000E+02  0.64324E-04
 0.33730000E+02  0.64884E-04
 0.33779999E+02  0.24201E-04
 0.33830002E+02 -0.65234E-04
 0.33880001E+02 -0.12366E-03
 0.33930000E+02 -0.18211E-03
 0.33980000E+02 -0.16837E-03
 0.34029999E+02 -0.11441E-03
 0.34080002E+02 -0.10889E-03
 0.34130001E+02 -0.42143E-04
 0.34180000E+02 -0.15898E-04
 0.34230000E+02 -0.43156E-04
 0.34279999E+02  0.72215E-04
 0.34330002E+02  0.16502E-03
 0.34380001E+02  0.21657E-03
 0.34430000E+02  0.26477E-03
 0.34480000E+02  0.19791E-03
 0.34529999E+02  0.87039E-04
 0.34580002E+02  0.52943E-05
 0.34630001E+02 -0.86297E-04
 0.34680000E+02 -0.18160E-03
 0.34730000E+02 -0.88316E-04
 0.34779999E+02  0.59726E-04
 0.34830002E+02  0.68854E-04
 0.34880001E+02  0.55460E-04
 0.34930000E+02 -0.27117E-04
 0.34980000E+02 -0.11294E-03
 0.35029999E+02 -0.91442E-04
 0.35080002E+02 -0.76795E-05
 0.35130001E+02  0.95350E-04
 0.35180000E+02  0.10139E-03
 0.35230000E+02  0.47022E-04
 0.35279999E+02  0.85037E-05
 0.35330002E+02 -0.82988E-05
 0.35380001E+02  0.14736E-04
 0.35430000E+02 -0.91591E-04
 0.35480000E+02 -0.25492E-03
 0.35529999E+02 -0.29328E-03
 0.35580002E+02 -0.21307E-03
 0.35630001E+02 -0.35233E-04
 0.35680000E+02  0.75379E-04
 0.35730000E+02  0.16035E-03
 0.35779999E+02  0.23114E-03
 0.35830002E+02  0.16455E-03
 0.35880001E+02  0.73351E-04
 0.35930000E+02  0.25288E-04
 0.35980000E+02 -0.52373E-04
 0.36029999E+02 -0.15931E-03
 0.36080002E+02 -0.22752E-03
 0.36130001E+02 -0.16368E-03
 0.36180000E+02  0.84482E-04
 0.36230000E+02  0.22990E-03
 0.36279999E+02  0.12116E-03
 0.36330002E+02 -0.26736E-04
 0.36380001E+02 -0.11480E-03
 0.36430000E+02 -0.13211E-03
 0.36480000E+02 -0.52504E-04
 0.36529999E+02  0.78252E-04
 0.36580002E+02  0.15357E-03
 0.36630001E+02  0.19952E-03
 0.36680000E+02  0.21983E-03
 0.36730000E+02  0.16765E-03
 0.36779999E+02  0.45251E-04
 0.36830002E+02 -0.14602E-03
 0.36880001E+02 -0.30821E-03
 0.36930000E+02 -0.36230E-03
 0.36980000E+02 -0.29273E-03
 0.37029999E+02 -0.17599E-03
 0.37080002E+02  0.20247E-05
 0.37130001E+02  0.27121E-03
 0.37180000E+02  0.38034E-03
 0.37230000E+02  0.26439E-03
 0.37279999E+02  0.10483E-03
 0.37330002E+02 -0.30204E-04
 0.37380001E+02 -0.14343E-03
 0.37430000E+02 -0.23114E-03
 0.37480000E+02 -0.27759E-03
 0.37529999E+02 -0.23244E-03
 0.37580002E+02 -0.26875E-04
 0.37630001E+02  0.20359E-03
 0.37680000E+02  0.30265E-03
 0.37730000E+02  0.32807E-03
 0.37779999E+02  0.24256E-03
 0.37830002E+02  0.39632E-04
 0.37880001E+02 -0.73048E-04
 0.37930000E+02 -0.47415E-04
 0.37980000E+02 -0.79659E-04
 0.38029999E+02 -0.46206E-04
 0.38080002E+02  0.22167E-03
 0.38130001E+02  0.38657E-03
 0.38180000E+02  0.20832E-03
 0.38230000E+02 -0.18512E-03
 0.38279999E+02 -0.48279E-03
 0.38330002E+02 -0.47469E-03
 0.38380001E+02 -0.23288E-03
 0.38430000E+02  0.70409E-04
 0.38480000E+02  0.27476E-03
 0.38529999E+02  0.24686E-03
 0.38580002E+02  0.21110E-04
 0.38630001E+02 -0.65134E-04
 0.38680000E+02  0.93251E-04
 0.38730000E+02  0.19737E-03
 0.38779999E+02  0.71903E-04
 0.38830002E+02 -0.20666E-03
 0.38880001E+02 -0.42064E-03
 0.38930000E+02 -0.36239E-03
 0.38980000E+02 -0.92793E-04
 0.39029999E+02  0.11522E-04
 0.39080002E+02 -0.14193E-03
 0.39130001E+02 -0.15344E-03
 0.39180000E+02 -0.38190E-06
 0.39230000E+02  0.15040E-04
 0.39279999E+02  0.51347E-04
 0.39330002E+02  0.20361E-03
 0.39380001E+02  0.15977E-03
 0.39430000E+02  0.57621E-04
 0.39480000E+02  0.11922E-03
 0.39529999E+02  0.61545E-04
 0.39580002E+02 -0.83616E-05
 0.39630001E+02  0.14850E-03
 0.39680000E+02  0.23352E-03
 0.39730000E+02  0.10242E-03
 0.39779999E+02 -0.94814E-04
 0.39830002E+02 -0.20162E-03
 0.39880001E+02 -0.11052E-03
 0.39930000E+02  0.91160E-04
 0.39980000E+02  0.24766E-03
 0.40029999E+02  0.25170E-03
 0.40080002E+02  0.13532E-03
 0.40130001E+02 -0.46845E-04
 0.40180000E+02 -0.26231E-03
 0.40230000E+02 -0.37489E-03
 0.40279999E+02 -0.25366E-03
 0.40330002E+02  0.68008E-04
 0.40380001E+02  0.27316E-03
 0.40430000E+02  0.22267E-03
 0.40480000E+02  0.20379E-04
 0.40529999E+02 -0.21373E-03
 0.40580002E+02 -0.22725E-03
 0.40630001E+02  0.33762E-04
 0.40680000E+02  0.28448E-03
 0.40730000E+02  0.25221E-03
 0.40779999E+02  0.19706E-05
 0.40830002E+02 -0.15056E-03
 0.40880001E+02  0.28044E-05
 0.40930000E+02  0.20375E-03
 0.40980000E+02  0.97770E-04
 0.41029999E+02 -0.16498E-03
 0.41080002E+02 -0.35444E-03
 0.41130001E+02 -0.40189E-03
 0.41180000E+02 -0.23601E-03
 0.41230000E+02  0.34668E-04
 0.41279999E+02  0.19049E-03
 0.41330002E+02  0.22680E-03
 0.41380001E+02  0.24932E-03
 0.41430000E+02  0.22746E-03
 0.41480000E+02  0.12987E-03
 0.41529999E+02 -0.39255E-04
 0.41580002E+02 -0.23002E-03
 0.41630001E+02 -0.29152E-03
 0.41680000E+02 -0.22270E-03
 0.41730000E+02 -0.78527E-04
 0.41779999E+02  0.10704E-03
 0.41830002E+02  0.17226E-03
 0.41880001E+02  0.80254E-04
 0.41930000E+02 -0.10269E-03
 0.41980000E+02 -0.28214E-03
 0.42029999E+02 -0.30173E-03
 0.42080002E+02 -0.18177E-03
 0.42130001E+02 -0.13708E-04
 0.42180000E+02  0.18326E-03
 0.42230000E+02  0.36046E-03
 0.42279999E+02  0.41315E-03
 0.42330002E+02  0.31807E-03
 0.42380001E+02  0.16016E-03
 0.42430000E+02 -0.13855E-04
 0.42480000E+02 -0.10381E-03
 0.42529999E+02 -0.10025E-03
 0.42580002E+02 -0.13650E-03
 0.42630001E+02 -0.13846E-03
 0.42680000E+02  0.71313E-06
 0.42730000E+02  0.11675E-03
 0.42779999E+02  0.36059E-04
 0.42830002E+02 -0.18191E-03
 0.42880001E+02 -0.29878E-03
 0.42930000E+02 -0.16400E-03
 0.42980000E+02  0.64074E-04
 0.43029999E+02  0.20221E-03
 0.43080002E+02  0.25523E-03
 0.43130001E+02  0.20267E-03
 0.43180000E+02  0.12059E-03
 0.43230000E+02  0.10399E-03
 0.43279999E+02 -0.22509E-04
 0.43330002E+02 -0.20413E-03
 0.43380001E+02 -0.28285E-03
 0.43430000E+02 -0.30163E-03
 0.43480000E+02 -0.18205E-03
 0.43529999E+02  0.95097E-04
 0.43580002E+02  0.30444E-03
 0.43630001E+02  0.25584E-03
 0.43680000E+02  0.70231E-04
 0.43730000E+02 -0.76470E-04
 0.43779999E+02 -0.76832E-04
 0.43830002E+02 -0.74594E-05
 0.43880001E+02 -0.11939E-03
 0.43930000E+02 -0.27159E-03
 0.43980000E+02 -0.24321E-03
 0.44029999E+02 -0.13873E-03
 0.44080002E+02  0.55066E-07
 0.44130001E+02  0.15128E-03
 0.44180000E+02  0.14953E-03
 0.44230000E+02  0.20844E-04
 0.44279999E+02  0.72552E-05
 0.44330002E+02  0.12647E-03
 0.44380001E+02  0.22894E-03
 0.44430000E+02  0.27313E-03
 0.44480000E+02  0.25867E-03
 0.44529999E+02  0.19078E-03
 0.44580002E+02  0.81090E-04
 0.44630001E+02 -0.79055E-05
 0.44680000E+02 -0.66200E-04
 0.44730000E+02 -0.14840E-03
 0.44779999E+02 -0.18807E-03
 0.44830002E+02 -0.12730E-03
 0.44880001E+02 -0.47661E-04
 0.44930000E+02 -0.21966E-04
 0.44980000E+02 -0.47256E-04
 0.45029999E+02 -0.10011E-03
 0.45080002E+02 -0.10349E-03
 0.45130001E+02 -0.82722E-04
 0.45180000E+02 -0.11943E-03
 0.45230000E+02 -0.10989E-03
 0.45279999E+02 -0.42561E-04
 0.45330002E+02 -0.72839E-04
 0.45380001E+02 -0.13222E-03
 0.45430000E+02 -0.93826E-04
 0.45480000E+02  0.16363E-06
 0.45529999E+02  0.16217E-03
 0.45580002E+02  0.29037E-03
 0.45630001E+02  0.24556E-03
 0.45680000E+02  0.15978E-03
 0.45730000E+02  0.12192E-03
 0.45779999E+02  0.90395E-04
 0.45830002E+02  0.41653E-04
 0.45880001E+02 -0.35602E-04
 0.45930000E+02 -0.82171E-04
 0.45980000E+02 -0.72887E-04
 0.46029999E+02 -0.45375E-04
 0.46080002E+02  0.20556E-05
 0.46130001E+02  0.36148E-04
 0.46180000E+02 -0.13595E-04
 0.46230000E+02 -0.81844E-04
 0.46279999E+02 -0.80436E-04
 0.46330002E+02 -0.77535E-04
 0.46380001E+02 -0.73188E-04
 0.46430000E+02 -0.55468E-04
 0.46480000E+02 -0.66807E-04
 0.46529999E+02 -0.59657E-04
 0.46580002E+02 -0.53753E-04
 0.46630001E+02 -0.38299E-04
 0.46680000E+02  0.31327E-04
 0.46730000E+02  0.93943E-04
 0.46779999E+02  0.13326E-03
 0.46830002E+02  0.12139E-03
 0.46880001E+02  0.41451E-04
 0.46930000E+02  0.33958E-05
 0.46980000E+02  0.61302E-04
 0.47029999E+02  0.13042E-03
 0.47080002E+02  0.15186E-03
 0.47130001E+02  0.11340E-03
 0.47180000E+02  0.47766E-04
 0.47230000E+02  0.16469E-04
 0.47279999E+02  0.97667E-05
 0.47330002E+02 -0.20838E-04
 0.47380001E+02 -0.12666E-03
 0.47430000E+02 -0.23961E-03
 0.47480000E+02 -0.26040E-03
 0.47529999E+02 -0.18944E-03
 0.47580002E+02 -0.41505E-04
 0.47630001E+02  0.90381E-04
 0.47680000E+02  0.10662E-03
 0.47730000E+02  0.42405E-04
 0.47779999E+02 -0.11403E-06
 0.47830002E+02  0.14667E-04
 0.47880001E+02  0.45027E-04
 0.47930000E+02  0.61630E-04
 0.47980000E+02  0.41570E-04
 0.48029999E+02  0.95391E-05
 0.48080002E+02 -0.67279E-05
 0.48130001E+02 -0.44398E-04
 0.48180000E+02 -0.43188E-04
 0.48230000E+02  0.63713E-05
 0.48279999E+02  0.32772E-05
 0.48330002E+02 -0.22645E-04
 0.48380001E+02 -0.15078E-04
 0.48430000E+02  0.57235E-05
 0.48480000E+02  0.20579E-04
 0.48529999E+02  0.30804E-04
 0.48580002E+02  0.30551E-04
 0.48630001E+02  0.25679E-04
 0.48680000E+02  0.50095E-04
 0.48730000E+02  0.60816E-04
 0.48779999E+02  0.21750E-04
 0.48830002E+02  0.20815E-05
 0.48880001E+02 -0.97116E-06
 0.48930000E+02 -0.16488E-04
 0.48980000E+02 -0.20651E-04
 0.49029999E+02 -0.49399E-04
 0.49080002E+02 -0.12883E-03
 0.49130001E+02 -0.16267E-03
 0.49180000E+02 -0.12281E-03
 0.49230000E+02 -0.98052E-04
 0.49279999E+02 -0.78551E-04
 0.49330002E+02 -0.22806E-04
 0.49380001E+02  0.44881E-04
 0.49430000E+02  0.79435E-04
 0.49480000E+02  0.84417E-04
 0.49529999E+02  0.79992E-04
 0.49580002E+02  0.42603E-04
 0.49630001E+02  0.50143E-05
 0.49680000E+02  0.41416E-04
 0.49730000E+02  0.11882E-03
 0.49779999E+02  0.14825E-03
 0.49830002E+02  0.12140E-03
 0.49880001E+02  0.53113E-04
 0.49930000E+02 -0.40878E-04
 0.49980000E+02 -0.10013E-03
 0.50029999E+02 -0.80957E-04
 0.50080002E+02 -0.39227E-04
 0.50130001E+02 -0.27529E-04
 0.50180000E+02 -0.19421E-04
 0.50230000E+02 -0.17733E-04
 0.50279999E+02  0.10812E-04
 0.50330002E+02  0.10529E-03
 0.50380001E+02  0.16748E-03
 0.50430000E+02  0.12921E-03
 0.50480000E+02  0.57161E-04
 0.50529999E+02 -0.22669E-05
 0.50580002E+02 -0.43340E-04
 0.50630001E+02 -0.40508E-04
 0.50680000E+02 -0.29678E-04
 0.50730000E+02 -0.43482E-04
 0.50779999E+02 -0.38430E-04
 0.50830002E+02 -0.46247E-04
 0.50880001E+02 -0.98877E-04
 0.50930000E+02 -0.12916E-03
 0.50980000E+02 -0.12454E-03
 0.51029999E+02 -0.12991E-03
 0.51080002E+02 -0.15578E-03
 0.51130001E+02 -0.17026E-03
 0.51180000E+02 -0.14161E-03
 0.51230000E+02 -0.71058E-04
 0.51279999E+02  0.83492E-05
 0.51330002E+02  0.45883E-04
 0.51380001E+02  0.56169E-04
 0.51430000E+02  0.68968E-04
 0.51480000E+02  0.56302E-04
 0.51529999E+02  0.14281E-04
 0.51580002E+02 -0.37540E-04
 0.51630001E+02 -0.47149E-04
 0.51680000E+02  0.47714E-04
 0.51730000E+02  0.18547E-03
 0.51779999E+02  0.25093E-03
 0.51830002E+02  0.24736E-03
 0.51880001E+02  0.21323E-03
 0.51930000E+02  0.14773E-03
 0.51980000E+02  0.90709E-04
 0.52029999E+02  0.50463E-04
 0.52080002E+02  0.21034E-05
 0.52130001E+02  0.41615E-05
 0.52180000E+02  0.66766E-04
 0.52230000E+02  0.97449E-04
 0.52279999E+02  0.79458E-04
 0.52330002E+02  0.38275E-04
 0.52380001E+02 -0.29256E-04
 0.52430000E+02 -0.81564E-04
 0.52480000E+02 -0.11015E-03
 0.52529999E+02 -0.16472E-03
 0.52580002E+02 -0.23622E-03
 0.52630001E+02 -0.27414E-03
 0.52680000E+02 -0.24232E-03
 0.52730000E+02 -0.16176E-03
 0.52779999E+02 -0.90009E-04
 0.52830002E+02 -0.34408E-04
 0.52880001E+02  0.33161E-04
 0.52930000E+02  0.11475E-03
 0.52980000E+02  0.16895E-03
 0.53029999E+02  0.16124E-03
 0.53080002E+02  0.10992E-03
 0.53130001E+02  0.35171E-04
 0.53180000E+02 -0.37801E-04
 0.53230000E+02 -0.74255E-04
 0.53279999E+02 -0.86615E-04
 0.53330002E+02 -0.83941E-04
 0.53380001E+02 -0.70391E-04
 0.53430000E+02 -0.48392E-04
 0.53480000E+02 -0.12545E-04
 0.53529999E+02  0.21835E-04
 0.53580002E+02  0.44475E-04
 0.53630001E+02  0.50222E-04
 0.53680000E+02  0.54871E-04
 0.53730000E+02  0.71610E-04
 0.53779999E+02  0.10067E-03
 0.53830002E+02  0.12304E-03
 0.53880001E+02  0.10462E-03
 0.53930000E+02  0.53001E-04
 0.53980000E+02 -0.29435E-04
 0.54029999E+02 -0.10858E-03
 0.54080002E+02 -0.10736E-03
 0.54130001E+02 -0.31913E-04
 0.54180000E+02  0.61533E-04
 0.54230000E+02  0.11565E-03
 0.54279999E+02  0.99776E-04
 0.54330002E+02  0.38421E-04
 0.54380001E+02 -0.42076E-04
 0.54430000E+02 -0.94270E-04
 0.54480000E+02 -0.91030E-04
 0.54529999E+02 -0.73122E-04
 0.54580002E+02 -0.65840E-04
 0.54630001E+02 -0.70693E-04
 0.54680000E+02 -0.63768E-04
 0.54730000E+02 -0.34681E-04
 0.54779999E+02 -0.88273E-05
 0.54830002E+02  0.11067E-04
 0.54880001E+02  0.52526E-05
 0.54930000E+02 -0.37278E-04
 0.54980000E+02 -0.81764E-04
 0.55029999E+02 -0.92151E-04
 0.55080002E+02 -0.64364E-04
 0.55130001E+02 -0.26035E-04
 0.55180000E+02  0.15329E-04
 0.55230000E+02  0.54726E-04
 0.55279999E+02  0.94703E-04
 0.55330002E+02  0.14434E-03
 0.55380001E+02  0.15486E-03
 0.55430000E+02  0.13487E-03
 0.55480000E+02  0.12723E-03
 0.55529999E+02  0.76107E-04
 0.55580002E+02 -0.94637E-05
 0.55630001E+02 -0.38204E-04
 0.55680000E+02 -0.80797E-05
 0.55730000E+02  0.20365E-04
 0.55779999E+02  0.22923E-05
 0.55830002E+02 -0.42852E-04
 0.55880001E+02 -0.51660E-04
 0.55930000E+02 -0.27938E-04
 0.55980000E+02 -0.31288E-06
 0.56029999E+02  0.20371E-04
 0.56080002E+02  0.55003E-05
 0.56130001E+02 -0.39169E-04
 0.56180000E+02 -0.77845E-04
 0.56230000E+02 -0.84324E-04
 0.56279999E+02 -0.56093E-04
 0.56330002E+02 -0.16324E-04
 0.56380001E+02  0.16263E-04
 0.56430000E+02  0.50684E-04
 0.56480000E+02  0.82167E-04
 0.56529999E+02  0.74228E-04
 0.56580002E+02  0.21138E-04
 0.56630001E+02 -0.51522E-04
 0.56680000E+02 -0.12264E-03
 0.56730000E+02 -0.17026E-03
 0.56779999E+02 -0.18479E-03
 0.56830002E+02 -0.17622E-03
 0.56880001E+02 -0.13768E-03
 0.56930000E+02 -0.52433E-04
 0.56980000E+02  0.66681E-04
 0.57029999E+02  0.17272E-03
 0.57080002E+02  0.22579E-03
 0.57130001E+02  0.22245E-03
 0.57180000E+02  0.18491E-03
 0.57230000E+02  0.14144E-03
 0.57279999E+02  0.11312E-03
 0.57330002E+02  0.91985E-04
 0.57380001E+02  0.55767E-04
 0.57430000E+02  0.21930E-04
 0.57480000E+02 -0.70721E-06
 0.57529999E+02 -0.33610E-04
 0.57580002E+02 -0.66190E-04
 0.57630001E+02 -0.71004E-04
 0.57680000E+02 -0.57746E-04
 0.57730000E+02 -0.39679E-04
 0.57779999E+02 -0.15572E-04
 0.57830002E+02 -0.13477E-04
 0.57880001E+02 -0.29941E-04
 0.57930000E+02 -0.45592E-04
 0.57980000E+02 -0.81239E-04
 0.58029999E+02 -0.11505E-03
 0.58080002E+02 -0.11104E-03
 0.58130001E+02 -0.97445E-04
 0.58180000E+02 -0.10427E-03
 0.58230000E+02 -0.10038E-03
 0.58279999E+02 -0.63072E-04
 0.58330002E+02 -0.24023E-04
 0.58380001E+02  0.47639E-05
 0.58430000E+02  0.19296E-04
 0.58480000E+02  0.18997E-04
 0.58529999E+02  0.33640E-04
 0.58580002E+02  0.60953E-04
 0.58630001E+02  0.78588E-04
 0.58680000E+02  0.81933E-04
 0.58730000E+02  0.84082E-04
 0.58779999E+02  0.10115E-03
 0.58830002E+02  0.11485E-03
 0.58880001E+02  0.10394E-03
 0.58930000E+02  0.64596E-04
 0.58980000E+02  0.10954E-04
 0.59029999E+02 -0.22004E-04
 0.59080002E+02 -0.29468E-04
 0.59130001E+02 -0.10432E-04
 0.59180000E+02  0.38713E-04
 0.59230000E+02  0.86301E-04
 0.59279999E+02  0.11058E-03
 0.59330002E+02  0.10482E-03
 0.59380001E+02  0.65841E-04
 0.59430000E+02 -0.62104E-05
 0.59480000E+02 -0.93787E-04
 0.59529999E+02 -0.16382E-03
 0.59580002E+02 -0.21167E-03
 0.59630001E+02 -0.22267E-03
 0.59680000E+02 -0.18653E-03
 0.59730000E+02 -0.13396E-03
 0.59779999E+02 -0.76999E-04
 0.59830002E+02 -0.20892E-04
 0.59880001E+02  0.17623E-04
 0.59930000E+02  0.51081E-04
 0.59980000E+02  0.89377E-04
 0.60029999E+02  0.10828E-03
 0.60080002E+02  0.90888E-04
 0.60130001E+02  0.38545E-04
 0.60180000E+02 -0.14442E-04
 0.60230000E+02 -0.18909E-04
 0.60279999E+02  0.88931E-05
 0.60330002E+02  0.37365E-04
 0.60380001E+02  0.65442E-04
 0.60430000E+02  0.76983E-04
 0.60480000E+02  0.74986E-04
 0.60529999E+02  0.69782E-04
 0.60580002E+02  0.50539E-04
 0.60630001E+02  0.19899E-04
 0.60680000E+02 -0.14445E-04
 0.60730000E+02 -0.42943E-04
 0.60779999E+02 -0.58670E-04
 0.60830002E+02 -0.64047E-04
 0.60880001E+02 -0.62801E-04
 0.60930000E+02 -0.56018E-04
 0.60980000E+02 -0.33211E-04
 0.61029999E+02  0.14030E-05
 0.61080002E+02  0.26534E-04
 0.61130001E+02  0.37412E-04
 0.61180000E+02  0.31082E-04
 0.61230000E+02  0.73709E-05
 0.61279999E+02 -0.13089E-04
 0.61330002E+02 -0.22957E-04
 0.61380001E+02 -0.32024E-04
 0.61430000E+02 -0.29215E-04
 0.61480000E+02 -0.18178E-04
 0.61529999E+02 -0.17813E-04
 0.61580002E+02 -0.99410E-06
 0.61630001E+02  0.31295E-04
 0.61680000E+02  0.40229E-04
 0.61730000E+02  0.33745E-04
 0.61779999E+02  0.31297E-04
 0.61830002E+02  0.34184E-04
 0.61880001E+02  0.30180E-04
 0.61930000E+02  0.12391E-04
 0.61980000E+02 -0.12056E-04
 0.62029999E+02 -0.28687E-04
 0.62080002E+02 -0.19575E-04
 0.62130001E+02  0.29584E-05
 0.62180000E+02  0.19169E-04
 0.62230000E+02  0.35444E-04
 0.62279999E+02  0.48439E-04
 0.62330002E+02  0.50868E-04
 0.62380001E+02  0.50974E-04
 0.62430000E+02  0.42991E-04
 0.62480000E+02  0.14606E-04
 0.62529999E+02 -0.35990E-04
 0.62580002E+02 -0.86265E-04
 0.62630001E+02 -0.11592E-03
 0.62680000E+02 -0.12171E-03
 0.62730000E+02 -0.10283E-03
 0.62779999E+02 -0.86554E-04
 0.62830002E+02 -0.86605E-04
 0.62880001E+02 -0.94541E-04
 0.62930000E+02 -0.92767E-04
 0.62980000E+02 -0.53767E-04
 0.63029999E+02  0.95879E-05
 0.63080002E+02  0.68579E-04
 0.63130001E+02  0.11185E-03
 0.63180000E+02  0.13252E-03
 0.63230000E+02  0.13976E-03
 0.63279999E+02  0.13974E-03
 0.63330002E+02  0.12252E-03
 0.63380001E+02  0.96364E-04
 0.63430000E+02  0.68296E-04
 0.63480000E+02  0.41714E-04
 0.63529999E+02  0.23824E-04
 0.63580002E+02  0.11510E-05
 0.63630001E+02 -0.29078E-04
 0.63680000E+02 -0.60398E-04
 0.63730000E+02 -0.90641E-04
 0.63779999E+02 -0.10604E-03
 0.63830002E+02 -0.96881E-04
 0.63880001E+02 -0.71113E-04
 0.63930000E+02 -0.46820E-04
 0.63980000E+02 -0.33993E-04
 0.64029999E+02 -0.23087E-04
 0.64080002E+02 -0.96504E-05
 0.64129997E+02  0.13477E-05
 0.64180000E+02  0.14464E-04
 0.64230003E+02  0.23843E-04
 0.64279999E+02  0.23057E-04
 0.64330002E+02  0.21003E-04
 0.64379997E+02  0.25286E-04
 0.64430000E+02  0.25216E-04
 0.64480003E+02  0.13351E-04
 0.64529999E+02  0.87958E-05
 0.64580002E+02  0.15708E-04
 0.64629997E+02  0.28925E-04
 0.64680000E+02  0.49344E-04
 0.64730003E+02  0.62059E-04
 0.64779999E+02  0.62786E-04
 0.64830002E+02  0.58036E-04
 0.64879997E+02  0.34538E-04
 0.64930000E+02 -0.50538E-05
 0.64980003E+02 -0.42701E-04
 0.65029999E+02 -0.77643E-04
 0.65080002E+02 -0.91421E-04
 0.65129997E+02 -0.73177E-04
 0.65180000E+02 -0.46546E-04
 0.65230003E+02 -0.25932E-04
 0.65279999E+02 -0.11781E-04
 0.65330002E+02 -0.93645E-06
 0.65379997E+02  0.16029E-05
 0.65430000E+02 -0.83958E-05
 0.65480003E+02 -0.17646E-04
 0.65529999E+02 -0.20324E-04
 0.65580002E+02 -0.17044E-04
 0.65629997E+02 -0.68619E-05
 0.65680000E+02  0.92458E-05
 0.65730003E+02  0.36352E-04
 0.65779999E+02  0.60601E-04
 0.65830002E+02  0.63673E-04
 0.65879997E+02  0.53754E-04
 0.65930000E+02  0.44060E-04
 0.65980003E+02  0.39908E-04
 0.66029999E+02  0.29042E-04
 0.66080002E+02  0.79346E-05
 0.66129997E+02 -0.17448E-04
 0.66180000E+02 -0.49005E-04
 0.66230003E+02 -0.68400E-04
 0.66279999E+02 -0.66362E-04
 0.66330002E+02 -0.59065E-04
 0.66379997E+02 -0.55782E-04
 0.66430000E+02 -0.53548E-04
 0.66480003E+02 -0.43505E-04
 0.66529999E+02 -0.18819E-04
 0.66580002E+02  0.16106E-05
 0.66629997E+02  0.28447E-05
 0.66680000E+02  0.79088E-05
 0.66730003E+02  0.23116E-04
 0.66779999E+02  0.37144E-04
 0.66830002E+02  0.53159E-04
 0.66879997E+02  0.68406E-04
 0.66930000E+02  0.72167E-04
 0.66980003E+02  0.66909E-04
 0.67029999E+02  0.57910E-04
 0.67080002E+02  0.42264E-04
 0.67129997E+02  0.26700E-04
 0.67180000E+02  0.89903E-05
 0.67230003E+02 -0.11043E-04
 0.67279999E+02 -0.16659E-04
 0.67330002E+02 -0.13607E-04
 0.67379997E+02 -0.14706E-04
 0.67430000E+02 -0.20201E-04
 0.67480003E+02 -0.28953E-04
 0.67529999E+02 -0.38322E-04
 0.67580002E+02 -0.43905E-04
 0.67629997E+02 -0.41602E-04
 0.67680000E+02 -0.28140E-04
 0.67730003E+02 -0.22298E-06
 0.67779999E+02  0.19555E-04
 0.67830002E+02  0.85682E-05
 0.67879997E+02 -0.21098E-04
 0.67930000E+02 -0.58640E-04
 0.67980003E+02 -0.78472E-04
 0.68029999E+02 -0.62961E-04
 0.68080002E+02 -0.31873E-04
 0.68129997E+02  0.60186E-05
 0.68180000E+02  0.36364E-04
 0.68230003E+02  0.42746E-04
 0.68279999E+02  0.32425E-04
 0.68330002E+02  0.14304E-04
 0.68379997E+02 -0.43488E-05
 0.68430000E+02 -0.69655E-05
 0.68480003E+02  0.19013E-04
 0.68529999E+02  0.54053E-04
 0.68580002E+02  0.78998E-04
 0.68629997E+02  0.93490E-04
 0.68680000E+02  0.88054E-04
 0.68730003E+02  0.70841E-04
 0.68779999E+02  0.55094E-04
 0.68830002E+02  0.33220E-04
 0.68879997E+02  0.10147E-04
 0.68930000E+02 -0.85374E-05
 0.68980003E+02 -0.28025E-04
 0.69029999E+02 -0.45263E-04
 0.69080002E+02 -0.51140E-04
 0.69129997E+02 -0.44107E-04
 0.69180000E+02 -0.40005E-04
 0.69230003E+02 -0.48751E-04
 0.69279999E+02 -0.60717E-04
 0.69330002E+02 -0.66095E-04
 0.69379997E+02 -0.66224E-04
 0.69430000E+02 -0.63586E-04
 0.69480003E+02 -0.50993E-04
 0.69529999E+02 -0.31067E-04
 0.69580002E+02 -0.14736E-04
 0.69629997E+02 -0.10302E-04
 0.69680000E+02 -0.22415E-04
 0.69730003E+02 -0.36687E-04
 0.69779999E+02 -0.36791E-04
 0.69830002E+02 -0.22174E-04
 0.69879997E+02  0.29719E-05
 0.69930000E+02  0.36315E-04
 0.69980003E+02  0.67737E-04
 0.70029999E+02  0.85156E-04
 0.70080002E+02  0.91687E-04
 0.70129997E+02  0.90237E-04
 0.70180000E+02  0.82269E-04
 0.70230003E+02  0.72770E-04
 0.70279999E+02  0.62209E-04
 0.70330002E+02  0.54015E-04
 0.70379997E+02  0.46099E-04
 0.70430000E+02  0.27665E-04
 0.70480003E+02  0.74355E-06
 0.70529999E+02 -0.20961E-04
 0.70580002E+02 -0.30937E-04
 0.70629997E+02 -0.36556E-04
 0.70680000E+02 -0.46682E-04
 0.70730003E+02 -0.54967E-04
 0.70779999E+02 -0.56752E-04
 0.70830002E+02 -0.53940E-04
 0.70879997E+02 -0.42777E-04
 0.70930000E+02 -0.30432E-04
 0.70980003E+02 -0.25045E-04
 0.71029999E+02 -0.19911E-04
 0.71080002E+02 -0.10740E-04
 0.71129997E+02 -0.25943E-05
 0.71180000E+02  0.23421E-05
 0.71230003E+02  0.26442E-05
 0.71279999E+02 -0.56091E-05
 0.71330002E+02 -0.17168E-04
 0.71379997E+02 -0.25388E-04
 0.71430000E+02 -0.27829E-04
 0.71480003E+02 -0.20766E-04
 0.71529999E+02 -0.35741E-05
 0.71580002E+02  0.18345E-04
 0.71629997E+02  0.37098E-04
 0.71680000E+02  0.43141E-04
 0.71730003E+02  0.36282E-04
 0.71779999E+02  0.28145E-04
 0.71830002E+02  0.21659E-04
 0.71879997E+02  0.12697E-04
 0.71930000E+02  0.53977E-06
 0.71980003E+02 -0.92243E-05
 0.72029999E+02 -0.12032E-04
 0.72080002E+02 -0.10039E-04
 0.72129997E+02 -0.33079E-05
 0.72180000E+02  0.45874E-05
 0.72230003E+02  0.10368E-04
 0.72279999E+02  0.15837E-04
 0.72330002E+02  0.15513E-04
 0.72379997E+02  0.10934E-04
 0.72430000E+02  0.53746E-05
 0.72480003E+02 -0.59793E-05
 0.72529999E+02 -0.12530E-04
 0.72580002E+02 -0.10003E-04
 0.72629997E+02 -0.69777E-05
 0.72680000E+02 -0.10489E-05
 0.72730003E+02  0.22726E-05
 0.72779999E+02 -0.12368E-05
 0.72830002E+02  0.10344E-06
 0.72879997E+02  0.81647E-05
 0.72930000E+02  0.18457E-04
 0.72980003E+02  0.29690E-04
 0.73029999E+02  0.34060E-04
 0.73080002E+02  0.28418E-04
 0.73129997E+02  0.21998E-04
 0.73180000E+02  0.15025E-04
 0.73230003E+02  0.50738E-05
 0.73279999E+02 -0.56633E-05
 0.73330002E+02 -0.23848E-04
 0.73379997E+02 -0.48196E-04
 0.73430000E+02 -0.69080E-04
 0.73480003E+02 -0.83547E-04
 0.73529999E+02 -0.86447E-04
 0.73580002E+02 -0.68523E-04
 0.73629997E+02 -0.37082E-04
 0.73680000E+02 -0.58570E-05
 0.73730003E+02  0.21419E-04
 0.73779999E+02  0.41394E-04
 0.73830002E+02  0.54114E-04
 0.73879997E+02  0.64775E-04
 0.73930000E+02  0.77884E-04
 0.73980003E+02  0.88141E-04
 0.74029999E+02  0.88257E-04
 0.74080002E+02  0.72679E-04
 0.74129997E+02  0.38995E-04
 0.74180000E+02 -0.49088E-06
 0.74230003E+02 -0.35037E-04
 0.74279999E+02 -0.61179E-04
 0.74330002E+02 -0.76813E-04
 0.74379997E+02 -0.82234E-04
 0.74430000E+02 -0.77215E-04
 0.74480003E+02 -0.64432E-04
 0.74529999E+02 -0.47421E-04
 0.74580002E+02 -0.28875E-04
 0.74629997E+02 -0.10769E-04
 0.74680000E+02  0.80138E-05
 0.74730003E+02  0.24868E-04
 0.74779999E+02  0.34281E-04
 0.74830002E+02  0.36579E-04
 0.74879997E+02  0.32583E-04
 0.74930000E+02  0.27611E-04
 0.74980003E+02  0.27402E-04
 0.75029999E+02  0.23892E-04
 0.75080002E+02  0.17108E-04
 0.75129997E+02  0.11702E-04
 0.75180000E+02  0.51533E-05
 0.75230003E+02  0.11467E-05
 0.75279999E+02  0.12141E-05
 0.75330002E+02  0.26161E-05
 0.75379997E+02  0.84898E-05
 0.75430000E+02  0.20037E-04
 0.75480003E+02  0.27242E-04
 0.75529999E+02  0.30322E-04
 0.75580002E+02  0.29593E-04
 0.75629997E+02  0.13546E-04
 0.75680000E+02 -0.50347E-05
 0.75730003E+02 -0.10364E-04
 0.75779999E+02 -0.11504E-04
 0.75830002E+02 -0.14035E-04
 0.75879997E+02 -0.15714E-04
 0.75930000E+02 -0.22587E-04
 0.75980003E+02 -0.34757E-04
 0.76029999E+02 -0.45999E-04
 0.76080002E+02 -0.62006E-04
 0.76129997E+02 -0.77806E-04
 0.76180000E+02 -0.79069E-04
 0.76230003E+02 -0.69480E-04
 0.76279999E+02 -0.51898E-04
 0.76330002E+02 -0.22749E-04
 0.76379997E+02  0.87492E-05
 0.76430000E+02  0.32341E-04
 0.76480003E+02  0.45278E-04
 0.76529999E+02  0.50665E-04
 0.76580002E+02  0.55006E-04
 0.76629997E+02  0.58036E-04
 0.76680000E+02  0.60827E-04
 0.76730003E+02  0.62639E-04
 0.76779999E+02  0.55133E-04
 0.76830002E+02  0.38527E-04
 0.76879997E+02  0.20836E-04
 0.76930000E+02  0.36474E-05
 0.76980003E+02 -0.12760E-04
 0.77029999E+02 -0.24438E-04
 0.77080002E+02 -0.34428E-04
 0.77129997E+02 -0.41681E-04
 0.77180000E+02 -0.36218E-04
 0.77230003E+02 -0.18729E-04
 0.77279999E+02  0.96640E-06
 0.77330002E+02  0.15816E-04
 0.77379997E+02  0.18781E-04
 0.77430000E+02  0.82635E-05
 0.77480003E+02 -0.42730E-05
 0.77529999E+02 -0.11271E-04
 0.77580002E+02 -0.14504E-04
 0.77629997E+02 -0.12524E-04
 0.77680000E+02 -0.36999E-05
 0.77730003E+02  0.63440E-05
 0.77779999E+02  0.17073E-04
 0.77830002E+02  0.30096E-04
 0.77879997E+02  0.38969E-04
 0.77930000E+02  0.43423E-04
 0.77980003E+02  0.40752E-04
 0.78029999E+02  0.26796E-04
 0.78080002E+02  0.31533E-05
 0.78129997E+02 -0.27868E-04
 0.78180000E+02 -0.56679E-04
 0.78230003E+02 -0.74310E-04
 0.78279999E+02 -0.76793E-04
 0.78330002E+02 -0.65636E-04
 0.78379997E+02 -0.48474E-04
 0.78430000E+02 -0.32045E-04
 0.78480003E+02 -0.11191E-04
 0.78529999E+02  0.18477E-04
 0.78580002E+02  0.46149E-04
 0.78629997E+02  0.63940E-04
 0.78680000E+02  0.68277E-04
 0.78730003E+02  0.56266E-04
 0.78779999E+02  0.36400E-04
 0.78830002E+02  0.20956E-04
 0.78879997E+02  0.85710E-05
 0.78930000E+02 -0.34472E-06
 0.78980003E+02  0.13047E-05
 0.79029999E+02  0.29120E-05
 0.79080002E+02 -0.38867E-05
 0.79129997E+02 -0.13431E-04
 0.79180000E+02 -0.27256E-04
 0.79230003E+02 -0.43384E-04
 0.79279999E+02 -0.56334E-04
 0.79330002E+02 -0.63153E-04
 0.79379997E+02 -0.55151E-04
 0.79430000E+02 -0.30595E-04
 0.79480003E+02  0.32249E-06
 0.79529999E+02  0.24826E-04
 0.79580002E+02  0.37080E-04
 0.79629997E+02  0.37057E-04
 0.79680000E+02  0.26353E-04
 0.79730003E+02  0.12239E-04
 0.79779999E+02  0.21802E-05
 0.79830002E+02 -0.23893E-05
 0.79879997E+02 -0.35572E-05
 0.79930000E+02 -0.15229E-05
 0.79980003E+02  0.16009E-05
 0.80029999E+02  0.54348E-05
 0.80080002E+02  0.12753E-04
 0.80129997E+02  0.17503E-04
 0.80180000E+02  0.19392E-04
 0.80230003E+02  0.20854E-04
 0.80279999E+02  0.16297E-04
 0.80330002E+02  0.12400E-04
 0.80379997E+02  0.17242E-04
 0.80430000E+02  0.24250E-04
 0.80480003E+02  0.24377E-04
 0.80529999E+02  0.15068E-04
 0.80580002E+02 -0.47349E-05
 0.80629997E+02 -0.34504E-04
 0.80680000E+02 -0.60792E-04
 0.80730003E+02 -0.68181E-04
 0.80779999E+02 -0.54836E-04
 0.80830002E+02 -0.28154E-04
 0.80879997E+02  0.20773E-05
 0.80930000E+02  0.25027E-04
 0.80980003E+02  0.37962E-04
 0.81029999E+02  0.43984E-04
 0.81080002E+02  0.37649E-04
 0.81129997E+02  0.22312E-04
 0.81180000E+02  0.93285E-05
 0.81230003E+02  0.13239E-05
 0.81279999E+02  0.19521E-05
 0.81330002E+02  0.68342E-05
 0.81379997E+02  0.80998E-06
 0.81430000E+02 -0.16303E-04
 0.81480003E+02 -0.32755E-04
 0.81529999E+02 -0.42239E-04
 0.81580002E+02 -0.37161E-04
 0.81629997E+02 -0.17659E-04
 0.81680000E+02  0.58951E-06
 0.81730003E+02  0.83148E-05
 0.81779999E+02  0.88030E-05
 0.81830002E+02  0.72302E-05
 0.81879997E+02  0.76621E-05
 0.81930000E+02  0.11356E-04
 0.81980003E+02  0.15008E-04
 0.82029999E+02  0.16480E-04
 0.82080002E+02  0.16629E-04
 0.82129997E+02  0.14893E-04
 0.82180000E+02  0.12180E-04
 0.82230003E+02  0.12211E-04
 0.82279999E+02  0.13577E-04
 0.82330002E+02  0.13614E-04
 0.82379997E+02  0.10318E-04
 0.82430000E+02 -0.14042E-05
 0.82480003E+02 -0.18214E-04
 0.82529999E+02 -0.35391E-04
 0.82580002E+02 -0.50634E-04
 0.82629997E+02 -0.56815E-04
 0.82680000E+02 -0.51908E-04
 0.82730003E+02 -0.36259E-04
 0.82779999E+02 -0.12351E-04
 0.82830002E+02  0.10784E-04
 0.82879997E+02  0.24069E-04
 0.82930000E+02  0.24908E-04
 0.82980003E+02  0.20548E-04
 0.83029999E+02  0.17055E-04
 0.83080002E+02  0.16385E-04
 0.83129997E+02  0.20387E-04
 0.83180000E+02  0.24430E-04
 0.83230003E+02  0.25063E-04
 0.83279999E+02  0.21758E-04
 0.83330002E+02  0.12383E-04
 0.83379997E+02 -0.10374E-05
 0.83430000E+02 -0.14731E-04
 0.83480003E+02 -0.24061E-04
 0.83529999E+02 -0.26144E-04
 0.83580002E+02 -0.23977E-04
 0.83629997E+02 -0.22074E-04
 0.83680000E+02 -0.22061E-04
 0.83730003E+02 -0.23179E-04
 0.83779999E+02 -0.22668E-04
 0.83830002E+02 -0.14930E-04
 0.83879997E+02  0.10416E-05
 0.83930000E+02  0.18386E-04
 0.83980003E+02  0.30599E-04
 0.84029999E+02  0.34809E-04
 0.84080002E+02  0.32350E-04
 0.84129997E+02  0.27543E-04
 0.84180000E+02  0.21900E-04
 0.84230003E+02  0.14829E-04
 0.84279999E+02  0.73074E-05
 0.84330002E+02  0.37572E-05
 0.84379997E+02  0.61467E-05
 0.84430000E+02  0.10622E-04
 0.84480003E+02  0.13792E-04
 0.84529999E+02  0.11620E-04
 0.84580002E+02  0.43630E-05
 0.84629997E+02 -0.26150E-05
 0.84680000E+02 -0.10513E-04
 0.84730003E+02 -0.18215E-04
 0.84779999E+02 -0.21361E-04
 0.84830002E+02 -0.21537E-04
 0.84879997E+02 -0.19746E-04
 0.84930000E+02 -0.14797E-04
 0.84980003E+02 -0.50733E-05
 0.85029999E+02  0.60397E-05
 0.85080002E+02  0.15690E-04
 0.85129997E+02  0.21087E-04
 0.85180000E+02  0.16833E-04
 0.85230003E+02  0.86580E-05
 0.85279999E+02  0.60485E-06
 0.85330002E+02 -0.95044E-05
 0.85379997E+02 -0.17596E-04
 0.85430000E+02 -0.19844E-04
 0.85480003E+02 -0.18242E-04
 0.85529999E+02 -0.12435E-04
 0.85580002E+02 -0.18033E-05
 0.85629997E+02  0.68607E-05
 0.85680000E+02  0.14045E-04
 0.85730003E+02  0.23700E-04
 0.85779999E+02  0.29136E-04
 0.85830002E+02  0.25870E-04
 0.85879997E+02  0.16225E-04
 0.85930000E+02  0.13602E-05
 0.85980003E+02 -0.13481E-04
 0.86029999E+02 -0.22849E-04
 0.86080002E+02 -0.30267E-04
 0.86129997E+02 -0.37221E-04
 0.86180000E+02 -0.39416E-04
 0.86230003E+02 -0.31524E-04
 0.86279999E+02 -0.15701E-04
 0.86330002E+02 -0.22405E-05
 0.86379997E+02  0.35643E-05
 0.86430000E+02  0.22847E-05
 0.86480003E+02 -0.10962E-05
 0.86529999E+02 -0.34538E-06
 0.86580002E+02  0.53677E-05
 0.86629997E+02  0.11769E-04
 0.86680000E+02  0.15012E-04
 0.86730003E+02  0.16575E-04
 0.86779999E+02  0.18501E-04
 0.86830002E+02  0.20598E-04
 0.86879997E+02  0.22411E-04
 0.86930000E+02  0.21508E-04
 0.86980003E+02  0.16603E-04
 0.87029999E+02  0.78174E-05
 0.87080002E+02 -0.55230E-05
 0.87129997E+02 -0.22196E-04
 0.87180000E+02 -0.39880E-04
 0.87230003E+02 -0.56010E-04
 0.87279999E+02 -0.66379E-04
 0.87330002E+02 -0.67090E-04
 0.87379997E+02 -0.56050E-04
 0.87430000E+02 -0.35429E-04
 0.87480003E+02 -0.12072E-04
 0.87529999E+02  0.13828E-04
 0.87580002E+02  0.44971E-04
 0.87629997E+02  0.74626E-04
 0.87680000E+02  0.91807E-04
 0.87730003E+02  0.91011E-04
 0.87779999E+02  0.77561E-04
 0.87830002E+02  0.60816E-04
 0.87879997E+02  0.45233E-04
 0.87930000E+02  0.30127E-04
 0.87980003E+02  0.15997E-04
 0.88029999E+02  0.14988E-05
 0.88080002E+02 -0.15733E-04
 0.88129997E+02 -0.29089E-04
 0.88180000E+02 -0.34453E-04
 0.88230003E+02 -0.34825E-04
 0.88279999E+02 -0.31783E-04
 0.88330002E+02 -0.27189E-04
 0.88379997E+02 -0.25749E-04
 0.88430000E+02 -0.30301E-04
 0.88480003E+02 -0.35033E-04
 0.88529999E+02 -0.35360E-04
 0.88580002E+02 -0.32269E-04
 0.88629997E+02 -0.22825E-04
 0.88680000E+02 -0.10928E-04
 0.88730003E+02 -0.12176E-05
 0.88779999E+02  0.10900E-04
 0.88830002E+02  0.21199E-04
 0.88879997E+02  0.25494E-04
 0.88930000E+02  0.27902E-04
 0.88980003E+02  0.30634E-04
 0.89029999E+02  0.32805E-04
 0.89080002E+02  0.31193E-04
 0.89129997E+02  0.26251E-04
 0.89180000E+02  0.18808E-04
 0.89230003E+02  0.83699E-05
 0.89279999E+02 -0.17818E-06
 0.89330002E+02 -0.46316E-05
 0.89379997E+02 -0.83251E-05
 0.89430000E+02 -0.12803E-04
 0.89480003E+02 -0.18101E-04
 0.89529999E+02 -0.23318E-04
 0.89580002E+02 -0.28604E-04
 0.89629997E+02 -0.31850E-04
 0.89680000E+02 -0.28142E-04
 0.89730003E+02 -0.20026E-04
 0.89779999E+02 -0.13146E-04
 0.89830002E+02 -0.84483E-05
 0.89879997E+02 -0.34306E-05
 0.89930000E+02  0.64406E-05
 0.89980003E+02  0.20487E-04
 0.90029999E+02  0.29920E-04
 0.90080002E+02  0.28556E-04
 0.90129997E+02  0.18925E-04
 0.90180000E+02  0.87272E-05
 0.90230003E+02  0.34529E-06
 0.90279999E+02 -0.52491E-05
 0.90330002E+02 -0.31416E-05
 0.90379997E+02  0.21081E-05
 0.90430000E+02  0.45037E-05
 0.90480003E+02  0.25826E-05
 0.90529999E+02 -0.39781E-05
 0.90580002E+02 -0.11108E-04
 0.90629997E+02 -0.16010E-04
 0.90680000E+02 -0.20153E-04
 0.90730003E+02 -0.25113E-04
 0.90779999E+02 -0.27485E-04
 0.90830002E+02 -0.25606E-04
 0.90879997E+02 -0.22134E-04
 0.90930000E+02 -0.16848E-04
 0.90980003E+02 -0.81039E-05
 0.91029999E+02  0.31426E-05
 0.91080002E+02  0.14891E-04
 0.91129997E+02  0.26248E-04
 0.91180000E+02  0.33762E-04
 0.91230003E+02  0.34951E-04
 0.91279999E+02  0.32405E-04
 0.91330002E+02  0.25780E-04
 0.91379997E+02  0.16408E-04
 0.91430000E+02  0.70601E-05
 0.91480003E+02 -0.31455E-05
 0.91529999E+02 -0.96011E-05
 0.91580002E+02 -0.12562E-04
 0.91629997E+02 -0.16742E-04
 0.91680000E+02 -0.19897E-04
 0.91730003E+02 -0.21133E-04
 0.91779999E+02 -0.20662E-04
 0.91830002E+02 -0.17778E-04
 0.91879997E+02 -0.12534E-04
 0.91930000E+02 -0.48529E-05
 0.91980003E+02  0.42668E-05
 0.92029999E+02  0.13493E-04
 0.92080002E+02  0.19795E-04
 0.92129997E+02  0.20305E-04
 0.92180000E+02  0.18640E-04
 0.92230003E+02  0.16762E-04
 0.92279999E+02  0.13244E-04
 0.92330002E+02  0.10525E-04
 0.92379997E+02  0.10318E-04
 0.92430000E+02  0.12146E-04
 0.92480003E+02  0.15710E-04
 0.92529999E+02  0.20440E-04
 0.92580002E+02  0.23594E-04
 0.92629997E+02  0.23760E-04
 0.92680000E+02  0.19861E-04
 0.92730003E+02  0.99341E-05
 0.92779999E+02 -0.24788E-05
 0.92830002E+02 -0.13044E-04
 0.92879997E+02 -0.19628E-04
 0.92930000E+02 -0.20257E-04
 0.92980003E+02 -0.14900E-04
 0.93029999E+02 -0.49547E-05
 0.93080002E+02  0.51031E-05
 0.93129997E+02  0.96939E-05
 0.93180000E+02  0.85574E-05
 0.93230003E+02  0.33580E-05
 0.93279999E+02 -0.60626E-05
 0.93330002E+02 -0.17118E-04
 0.93379997E+02 -0.26722E-04
 0.93430000E+02 -0.34760E-04
 0.93480003E+02 -0.39038E-04
 0.93529999E+02 -0.40157E-04
 0.93580002E+02 -0.39350E-04
 0.93629997E+02 -0.33706E-04
 0.93680000E+02 -0.22383E-04
 0.93730003E+02 -0.71348E-05
 0.93779999E+02  0.59164E-05
 0.93830002E+02  0.13720E-04
 0.93879997E+02  0.17359E-04
 0.93930000E+02  0.17861E-04
 0.93980003E+02  0.16606E-04
 0.94029999E+02  0.11551E-04
 0.94080002E+02  0.24627E-05
 0.94129997E+02 -0.80818E-05
 0.94180000E+02 -0.17883E-04
 0.94230003E+02 -0.23323E-04
 0.94279999E+02 -0.20959E-04
 0.94330002E+02 -0.10679E-04
 0.94379997E+02  0.32955E-05
 0.94430000E+02  0.14491E-04
 0.94480003E+02  0.21627E-04
 0.94529999E+02  0.25828E-04
 0.94580002E+02  0.24454E-04
 0.94629997E+02  0.18502E-04
 0.94680000E+02  0.13822E-04
 0.94730003E+02  0.11744E-04
 0.94779999E+02  0.81937E-05
 0.94830002E+02  0.30551E-05
 0.94879997E+02 -0.96596E-06
 0.94930000E+02 -0.29517E-05
 0.94980003E+02 -0.18611E-05
 0.95029999E+02  0.95081E-06
 0.95080002E+02  0.36223E-05
 0.95129997E+02  0.67250E-05
 0.95180000E+02  0.96004E-05
 0.95230003E+02  0.13075E-04
 0.95279999E+02  0.18444E-04
 0.95330002E+02  0.24174E-04
 0.95379997E+02  0.29446E-04
 0.95430000E+02  0.30963E-04
 0.95480003E+02  0.27397E-04
 0.95529999E+02  0.20775E-04
 0.95580002E+02  0.10522E-04
 0.95629997E+02 -0.15596E-05
 0.95680000E+02 -0.12858E-04
 0.95730003E+02 -0.22145E-04
 0.95779999E+02 -0.29809E-04
 0.95830002E+02 -0.35772E-04
 0.95879997E+02 -0.36435E-04
 0.95930000E+02 -0.32681E-04
 0.95980003E+02 -0.26385E-04
 0.96029999E+02 -0.17077E-04
 0.96080002E+02 -0.95324E-05
 0.96129997E+02 -0.56530E-05
 0.96180000E+02 -0.17968E-05
 0.96230003E+02  0.25353E-05
 0.96279999E+02  0.65091E-05
 0.96330002E+02  0.10121E-04
 0.96379997E+02  0.11886E-04
 0.96430000E+02  0.98744E-05
 0.96480003E+02  0.55440E-05
 0.96529999E+02  0.14519E-05
 0.96580002E+02 -0.33411E-05
 0.96629997E+02 -0.84075E-05
 0.96680000E+02 -0.93063E-05
 0.96730003E+02 -0.42279E-05
 0.96779999E+02  0.30005E-05
 0.96830002E+02  0.61950E-05
 0.96879997E+02  0.30032E-05
 0.96930000E+02 -0.32466E-05
 0.96980003E+02 -0.89429E-05
 0.97029999E+02 -0.11179E-04
 0.97080002E+02 -0.88446E-05
 0.97129997E+02 -0.47084E-05
 0.97180000E+02  0.78827E-06
 0.97230003E+02  0.72557E-05
 0.97279999E+02  0.10252E-04
 0.97330002E+02  0.80081E-05
 0.97379997E+02  0.45804E-05
 0.97430000E+02  0.28466E-05
 0.97480003E+02  0.50794E-06
 0.97529999E+02 -0.26570E-05
 0.97580002E+02 -0.60430E-05
 0.97629997E+02 -0.98613E-05
 0.97680000E+02 -0.11664E-04
 0.97730003E+02 -0.10347E-04
 0.97779999E+02 -0.78579E-05
 0.97830002E+02 -0.72595E-05
 0.97879997E+02 -0.71403E-05
 0.97930000E+02 -0.29094E-05
 0.97980003E+02  0.27428E-05
 0.98029999E+02  0.54295E-05
 0.98080002E+02  0.71735E-05
 0.98129997E+02  0.96582E-05
 0.98180000E+02  0.12057E-04
 0.98230003E+02  0.13223E-04
 0.98279999E+02  0.12849E-04
 0.98330002E+02  0.11756E-04
 0.98379997E+02  0.10019E-04
 0.98430000E+02  0.87106E-05
 0.98480003E+02  0.93130E-05
 0.98529999E+02  0.10598E-04
 0.98580002E+02  0.11498E-04
 0.98629997E+02  0.12972E-04
 0.98680000E+02  0.13078E-04
 0.98730003E+02  0.10538E-04
 0.98779999E+02  0.80981E-05
 0.98830002E+02  0.50017E-05
 0.98879997E+02 -0.16771E-05
 0.98930000E+02 -0.11163E-04
 0.98980003E+02 -0.20363E-04
 0.99029999E+02 -0.27829E-04
 0.99080002E+02 -0.30586E-04
 0.99129997E+02 -0.25554E-04
 0.99180000E+02 -0.15610E-04
 0.99230003E+02 -0.57572E-05
 0.99279999E+02  0.31554E-05
 0.99330002E+02  0.10571E-04
 0.99379997E+02  0.12194E-04
 0.99430000E+02  0.11612E-04
 0.99480003E+02  0.11789E-04
 0.99529999E+02  0.12499E-04
 0.99580002E+02  0.14986E-04
 0.99629997E+02  0.13168E-04
 0.99680000E+02  0.90480E-05
 0.99730003E+02  0.44732E-05
 0.99779999E+02 -0.23921E-05
 0.99830002E+02 -0.86460E-05
 0.99879997E+02 -0.16655E-04
 0.99930000E+02 -0.25132E-04
 0.99980003E+02 -0.29765E-04
 0.10003000E+03 -0.27178E-04
 0.10008000E+03 -0.17428E-04
 0.10013000E+03 -0.51076E-05
 0.10018000E+03  0.86702E-05
 0.10023000E+03  0.20384E-04
 0.10028000E+03  0.25350E-04
 0.10033000E+03  0.24251E-04
 0.10038000E+03  0.16270E-04
 0.10043000E+03  0.32525E-05
 0.10048000E+03 -0.88477E-05
 0.10053000E+03 -0.16954E-04
 0.10058000E+03 -0.17801E-04
 0.10063000E+03 -0.13105E-04
 0.10068000E+03 -0.70591E-05
 0.10073000E+03  0.24520E-07
 0.10078000E+03  0.64000E-05
 0.10083000E+03  0.10700E-04
 0.10088000E+03  0.13191E-04
 0.10093000E+03  0.14683E-04
 0.10098000E+03  0.16120E-04
 0.10103000E+03  0.16503E-04
 0.10108000E+03  0.15038E-04
 0.10113000E+03  0.12691E-04
 0.10118000E+03  0.94929E-05
 0.10123000E+03  0.52931E-05
 0.10128000E+03  0.22668E-06
 0.10133000E+03 -0.68342E-05
 0.10138000E+03 -0.14944E-04
 0.10143000E+03 -0.20388E-04
 0.10148000E+03 -0.21763E-04
 0.10153000E+03 -0.19980E-04
 0.10158000E+03 -0.14986E-04
 0.10163000E+03 -0.89686E-05
 0.10168000E+03 -0.34911E-05
 0.10173000E+03  0.69565E-06
 0.10178000E+03  0.43285E-06
 0.10183000E+03 -0.28612E-05
 0.10188000E+03 -0.63313E-05
 0.10193000E+03 -0.83856E-05
 0.10198000E+03 -0.77744E-05
 0.10203000E+03 -0.54543E-05
 0.10208000E+03 -0.21878E-05
 0.10213000E+03  0.16003E-05
 0.10218000E+03  0.33819E-05
 0.10223000E+03  0.25115E-05
 0.10228000E+03  0.18851E-05
 0.10233000E+03  0.32987E-05
 0.10238000E+03  0.93744E-05
 0.10243000E+03  0.16155E-04
 0.10248000E+03  0.16692E-04
 0.10253000E+03  0.11767E-04
 0.10258000E+03  0.34112E-05
 0.10263000E+03 -0.58661E-05
 0.10268000E+03 -0.11596E-04
 0.10273000E+03 -0.12111E-04
 0.10278000E+03 -0.10094E-04
 0.10283000E+03 -0.39338E-05
 0.10288000E+03  0.67665E-05
 0.10293000E+03  0.15672E-04
 0.10298000E+03  0.20707E-04
 0.10303000E+03  0.20677E-04
 0.10308000E+03  0.13966E-04
 0.10313000E+03  0.40163E-05
 0.10318000E+03 -0.46289E-05
 0.10323000E+03 -0.10004E-04
 0.10328000E+03 -0.12157E-04
 0.10333000E+03 -0.11422E-04
 0.10338000E+03 -0.94242E-05
 0.10343000E+03 -0.84790E-05
 0.10348000E+03 -0.95110E-05
 0.10353000E+03 -0.11257E-04
 0.10358000E+03 -0.10592E-04
 0.10363000E+03 -0.73895E-05
 0.10368000E+03 -0.37161E-05
 0.10373000E+03 -0.56901E-06
 0.10378000E+03  0.19203E-05
 0.10383000E+03  0.55876E-05
 0.10388000E+03  0.10697E-04
 0.10393000E+03  0.15400E-04
 0.10398000E+03  0.19380E-04
 0.10403000E+03  0.21866E-04
 0.10408000E+03  0.21548E-04
 0.10413000E+03  0.19167E-04
 0.10418000E+03  0.16134E-04
 0.10423000E+03  0.11790E-04
 0.10428000E+03  0.40033E-05
 0.10433000E+03 -0.49300E-05
 0.10438000E+03 -0.98585E-05
 0.10443000E+03 -0.12328E-04
 0.10448000E+03 -0.14215E-04
 0.10453000E+03 -0.14562E-04
 0.10458000E+03 -0.15755E-04
 0.10463000E+03 -0.16180E-04
 0.10468000E+03 -0.14141E-04
 0.10473000E+03 -0.11652E-04
 0.10478000E+03 -0.85313E-05
 0.10483000E+03 -0.53659E-05
 0.10488000E+03 -0.48460E-05
 0.10493000E+03 -0.83468E-05
 0.10498000E+03 -0.12243E-04
 0.10503000E+03 -0.14294E-04
 0.10508000E+03 -0.15311E-04
 0.10513000E+03 -0.13693E-04
 0.10518000E+03 -0.86645E-05
 0.10523000E+03 -0.20104E-05
 0.10528000E+03  0.40722E-05
 0.10533000E+03  0.90769E-05
 0.10538000E+03  0.14158E-04
 0.10543000E+03  0.18614E-04
 0.10548000E+03  0.20177E-04
 0.10553000E+03  0.17977E-04
 0.10558000E+03  0.11909E-04
 0.10563000E+03  0.52747E-05
 0.10568000E+03  0.19135E-05
 0.10573000E+03  0.22633E-05
 0.10578000E+03  0.56727E-05
 0.10583000E+03  0.97599E-05
 0.10588000E+03  0.12576E-04
 0.10593000E+03  0.13312E-04
 0.10598000E+03  0.13042E-04
 0.10603000E+03  0.11197E-04
 0.10608000E+03  0.73617E-05
 0.10613000E+03  0.48960E-05
 0.10618000E+03  0.37996E-05
 0.10623000E+03  0.43416E-05
 0.10628000E+03  0.50673E-05
 0.10633000E+03  0.25455E-05
 0.10638000E+03 -0.12215E-05
 0.10643000E+03 -0.51661E-05
 0.10648000E+03 -0.10155E-04
 0.10653000E+03 -0.14045E-04
 0.10658000E+03 -0.14434E-04
 0.10663000E+03 -0.12686E-04
 0.10668000E+03 -0.10900E-04
 0.10673000E+03 -0.10586E-04
 0.10678000E+03 -0.11633E-04
 0.10683000E+03 -0.10654E-04
 0.10688000E+03 -0.72486E-05
 0.10693000E+03 -0.31510E-05
 0.10698000E+03 -0.25968E-06
 0.10703000E+03 -0.80052E-06
 0.10708000E+03 -0.41038E-05
 0.10713000E+03 -0.91425E-05
 0.10718000E+03 -0.13622E-04
 0.10723000E+03 -0.15134E-04
 0.10728000E+03 -0.14110E-04
 0.10733000E+03 -0.10758E-04
 0.10738000E+03 -0.57268E-05
 0.10743000E+03 -0.96027E-06
 0.10748000E+03  0.20466E-05
 0.10753000E+03  0.41773E-05
 0.10758000E+03  0.67103E-05
 0.10763000E+03  0.95881E-05
 0.10768000E+03  0.12429E-04
 0.10773000E+03  0.14377E-04
 0.10778000E+03  0.15240E-04
 0.10783000E+03  0.15578E-04
 0.10788000E+03  0.15743E-04
 0.10793000E+03  0.14698E-04
 0.10798000E+03  0.12262E-04
 0.10803000E+03  0.90096E-05
 0.10808000E+03  0.35840E-05
 0.10813000E+03 -0.27575E-05
 0.10818000E+03 -0.64962E-05
 0.10823000E+03 -0.71412E-05
 0.10828000E+03 -0.49394E-05
 0.10833000E+03 -0.62685E-07
 0.10838000E+03  0.53919E-05
 0.10843000E+03  0.89357E-05
 0.10848000E+03  0.89796E-05
 0.10853000E+03  0.68723E-05
 0.10858000E+03  0.46516E-05
 0.10863000E+03  0.28105E-05
 0.10868000E+03  0.15044E-05
 0.10873000E+03 -0.98921E-06
 0.10878000E+03 -0.31875E-05
 0.10883000E+03 -0.21405E-05
 0.10888000E+03  0.39637E-07
 0.10893000E+03  0.15798E-05
 0.10898000E+03  0.18907E-05
 0.10903000E+03  0.39031E-07
 0.10908000E+03 -0.30764E-05
 0.10913000E+03 -0.63345E-05
 0.10918000E+03 -0.96273E-05
 0.10923000E+03 -0.10826E-04
 0.10928000E+03 -0.86192E-05
 0.10933000E+03 -0.47410E-05
 0.10938000E+03 -0.82777E-06
 0.10943000E+03  0.11986E-05
 0.10948000E+03  0.10271E-05
 0.10953000E+03 -0.56559E-06
 0.10958000E+03 -0.24683E-05
 0.10963000E+03 -0.34013E-05
 0.10968000E+03 -0.60253E-05
 0.10973000E+03 -0.11569E-04
 0.10978000E+03 -0.15235E-04
 0.10983000E+03 -0.16749E-04
 0.10988000E+03 -0.18250E-04
 0.10993000E+03 -0.18049E-04
 0.10998000E+03 -0.17523E-04
 0.11003000E+03 -0.16655E-04
 0.11008000E+03 -0.13479E-04
 0.11013000E+03 -0.83857E-05
 0.11018000E+03 -0.17126E-05
 0.11023000E+03  0.41954E-05
 0.11028000E+03  0.82369E-05
 0.11033000E+03  0.11980E-04
 0.11038000E+03  0.13520E-04
 0.11043000E+03  0.12520E-04
 0.11048000E+03  0.11940E-04
 0.11053000E+03  0.10382E-04
 0.11058000E+03  0.91014E-05
 0.11063000E+03  0.11098E-04
 0.11068000E+03  0.14095E-04
 0.11073000E+03  0.16838E-04
 0.11078000E+03  0.18961E-04
 0.11083000E+03  0.19499E-04
 0.11088000E+03  0.17913E-04
 0.11093000E+03  0.14795E-04
 0.11098000E+03  0.11812E-04
 0.11103000E+03  0.99908E-05
 0.11108000E+03  0.86887E-05
 0.11113000E+03  0.70690E-05
 0.11118000E+03  0.60809E-05
 0.11123000E+03  0.60128E-05
 0.11128000E+03  0.67628E-05
 0.11133000E+03  0.79862E-05
 0.11138000E+03  0.68385E-05
 0.11143000E+03  0.19506E-05
 0.11148000E+03 -0.32745E-05
 0.11153000E+03 -0.67076E-05
 0.11158000E+03 -0.93519E-05
 0.11163000E+03 -0.11292E-04
 0.11168000E+03 -0.12811E-04
 0.11173000E+03 -0.15423E-04
 0.11178000E+03 -0.19643E-04
 0.11183000E+03 -0.24067E-04
 0.11188000E+03 -0.27062E-04
 0.11193000E+03 -0.28054E-04
 0.11198000E+03 -0.27095E-04
 0.11203000E+03 -0.24386E-04
 0.11208000E+03 -0.20598E-04
 0.11213000E+03 -0.16606E-04
 0.11218000E+03 -0.12566E-04
 0.11223000E+03 -0.84474E-05
 0.11228000E+03 -0.36673E-05
 0.11233000E+03  0.27582E-05
 0.11238000E+03  0.10298E-04
 0.11243000E+03  0.17489E-04
 0.11248000E+03  0.22738E-04
 0.11253000E+03  0.25881E-04
 0.11258000E+03  0.28316E-04
 0.11263000E+03  0.29857E-04
 0.11268000E+03  0.27651E-04
 0.11273000E+03  0.20404E-04
 0.11278000E+03  0.10281E-04
 0.11283000E+03 -0.29803E-06
 0.11288000E+03 -0.86300E-05
 0.11293000E+03 -0.12762E-04
 0.11298000E+03 -0.13319E-04
 0.11303000E+03 -0.11943E-04
 0.11308000E+03 -0.97031E-05
 0.11313000E+03 -0.75389E-05
 0.11318000E+03 -0.60278E-05
 0.11323000E+03 -0.49664E-05
 0.11328000E+03 -0.45691E-05
 0.11333000E+03 -0.53868E-05
 0.11338000E+03 -0.53335E-05
 0.11343000E+03 -0.20640E-05
 0.11348000E+03  0.20305E-05
 0.11353000E+03  0.47225E-05
 0.11358000E+03  0.62033E-05
 0.11363000E+03  0.74694E-05
 0.11368000E+03  0.90078E-05
 0.11373000E+03  0.90518E-05
 0.11378000E+03  0.79710E-05
 0.11383000E+03  0.68157E-05
 0.11388000E+03  0.53108E-05
 0.11393000E+03  0.46433E-05
 0.11398000E+03  0.50986E-05
 0.11403000E+03  0.68688E-05
 0.11408000E+03  0.98085E-05
 0.11413000E+03  0.10790E-04
 0.11418000E+03  0.69886E-05
 0.11423000E+03 -0.16831E-06
 0.11428000E+03 -0.74626E-05
 0.11433000E+03 -0.12996E-04
 0.11438000E+03 -0.14806E-04
 0.11443000E+03 -0.13425E-04
 0.11448000E+03 -0.10836E-04
 0.11453000E+03 -0.54581E-05
 0.11458000E+03  0.33063E-05
 0.11463000E+03  0.10901E-04
 0.11468000E+03  0.14761E-04
 0.11473000E+03  0.15812E-04
 0.11478000E+03  0.13628E-04
 0.11483000E+03  0.93300E-05
 0.11488000E+03  0.41591E-05
 0.11493000E+03 -0.25796E-05
 0.11498000E+03 -0.96525E-05
 0.11503000E+03 -0.14634E-04
 0.11508000E+03 -0.16880E-04
 0.11513000E+03 -0.16967E-04
 0.11518000E+03 -0.15392E-04
 0.11523000E+03 -0.13095E-04
 0.11528000E+03 -0.10780E-04
 0.11533000E+03 -0.87369E-05
 0.11538000E+03 -0.73575E-05
 0.11543000E+03 -0.63298E-05
 0.11548000E+03 -0.50948E-05
 0.11553000E+03 -0.28432E-05
 0.11558000E+03  0.19382E-06
 0.11563000E+03  0.21146E-05
 0.11568000E+03  0.24269E-05
 0.11573000E+03  0.16200E-05
 0.11578000E+03 -0.23813E-06
 0.11583000E+03 -0.23069E-05
 0.11588000E+03 -0.35209E-05
 0.11593000E+03 -0.32122E-05
 0.11598000E+03 -0.11663E-05
 0.11603000E+03  0.15520E-05
 0.11608000E+03  0.47122E-05
 0.11613000E+03  0.80026E-05
 0.11618000E+03  0.10155E-04
 0.11623000E+03  0.13174E-04
 0.11628000E+03  0.17360E-04
 0.11633000E+03  0.19968E-04
 0.11638000E+03  0.20596E-04
 0.11643000E+03  0.18501E-04
 0.11648000E+03  0.13790E-04
 0.11653000E+03  0.77828E-05
 0.11658000E+03  0.15008E-05
 0.11663000E+03 -0.39548E-05
 0.11668000E+03 -0.77012E-05
 0.11673000E+03 -0.89443E-05
 0.11678000E+03 -0.86310E-05
 0.11683000E+03 -0.75877E-05
 0.11688000E+03 -0.61818E-05
 0.11693000E+03 -0.49082E-05
 0.11698000E+03 -0.42445E-05
 0.11703000E+03 -0.46477E-05
 0.11708000E+03 -0.54303E-05
 0.11713000E+03 -0.61287E-05
 0.11718000E+03 -0.67436E-05
 0.11723000E+03 -0.63226E-05
 0.11728000E+03 -0.46956E-05
 0.11733000E+03 -0.34302E-05
 0.11738000E+03 -0.24029E-05
 0.11743000E+03 -0.74143E-06
 0.11748000E+03  0.31626E-06
 0.11753000E+03 -0.60670E-06
 0.11758000E+03 -0.24929E-05
 0.11763000E+03 -0.39542E-05
 0.11768000E+03 -0.52713E-05
 0.11773000E+03 -0.61216E-05
 0.11778000E+03 -0.54025E-05
 0.11783000E+03 -0.30268E-05
 0.11788000E+03  0.95487E-06
 0.11793000E+03  0.59650E-05
 0.11798000E+03  0.10432E-04
 0.11803000E+03  0.12977E-04
 0.11808000E+03  0.12748E-04
 0.11813000E+03  0.10824E-04
 0.11818000E+03  0.85316E-05
 0.11823000E+03  0.67321E-05
 0.11828000E+03  0.58607E-05
 0.11833000E+03  0.57489E-05
 0.11838000E+03  0.69592E-05
 0.11843000E+03  0.79428E-05
 0.11848000E+03  0.60719E-05
 0.11853000E+03  0.99183E-06
 0.11858000E+03 -0.56276E-05
 0.11863000E+03 -0.11278E-04
 0.11868000E+03 -0.13389E-04
 0.11873000E+03 -0.11357E-04
 0.11878000E+03 -0.89398E-05
 0.11883000E+03 -0.86472E-05
 0.11888000E+03 -0.84434E-05
 0.11893000E+03 -0.77833E-05
 0.11898000E+03 -0.66380E-05
 0.11903000E+03 -0.38732E-05
 0.11908000E+03 -0.30837E-06
 0.11913000E+03  0.24991E-05
 0.11918000E+03  0.32474E-05
 0.11923000E+03  0.24633E-05
 0.11928000E+03  0.14469E-05
 0.11933000E+03  0.46106E-06
 0.11938000E+03 -0.96563E-06
 0.11943000E+03 -0.38525E-05
 0.11948000E+03 -0.70977E-05
 0.11953000E+03 -0.85885E-05
 0.11958000E+03 -0.74671E-05
 0.11963000E+03 -0.46409E-05
 0.11968000E+03 -0.19451E-05
 0.11973000E+03  0.50536E-06
 0.11978000E+03  0.30776E-05
 0.11983000E+03  0.53788E-05
 0.11988000E+03  0.67714E-05
 0.11993000E+03  0.60792E-05
 0.11998000E+03  0.39835E-05
 0.12003000E+03  0.35809E-05
 0.12008000E+03  0.51710E-05
 0.12013000E+03  0.65914E-05
 0.12018000E+03  0.75164E-05
 0.12023000E+03  0.80022E-05
 0.12028000E+03  0.79307E-05
 0.12033000E+03  0.66303E-05
 0.12038000E+03  0.32054E-05
 0.12043000E+03 -0.10665E-05
 0.12048000E+03 -0.45849E-05
 0.12053000E+03 -0.62033E-05
 0.12058000E+03 -0.62032E-05
 0.12063000E+03 -0.52796E-05
 0.12068000E+03 -0.33186E-05
 0.12073000E+03 -0.98094E-06
 0.12078000E+03  0.20317E-05
 0.12083000E+03  0.45212E-05
 0.12088000E+03  0.42895E-05
 0.12093000E+03  0.21682E-05
 0.12098000E+03 -0.20794E-06
 0.12103000E+03 -0.21479E-05
 0.12108000E+03 -0.30694E-05
 0.12113000E+03 -0.30103E-05
 0.12118000E+03 -0.26478E-05
 0.12123000E+03 -0.22459E-05
 0.12128000E+03 -0.21298E-05
 0.12133000E+03 -0.18244E-05
 0.12138000E+03  0.48729E-06
 0.12143000E+03  0.60003E-05
 0.12148000E+03  0.12216E-04
 0.12153000E+03  0.17029E-04
 0.12158000E+03  0.20083E-04
 0.12163000E+03  0.19816E-04
 0.12168000E+03  0.17472E-04
 0.12173000E+03  0.13916E-04
 0.12178000E+03  0.84800E-05
 0.12183000E+03  0.22970E-05
 0.12188000E+03 -0.36249E-05
 0.12193000E+03 -0.84913E-05
 0.12198000E+03 -0.11562E-04
 0.12203000E+03 -0.12453E-04
 0.12208000E+03 -0.12428E-04
 0.12213000E+03 -0.12611E-04
 0.12218000E+03 -0.12635E-04
 0.12223000E+03 -0.12325E-04
 0.12228000E+03 -0.11655E-04
 0.12233000E+03 -0.11820E-04
 0.12238000E+03 -0.12181E-04
 0.12243000E+03 -0.12055E-04
 0.12248000E+03 -0.12593E-04
 0.12253000E+03 -0.13304E-04
 0.12258000E+03 -0.14364E-04
 0.12263000E+03 -0.15178E-04
 0.12268000E+03 -0.14248E-04
 0.12273000E+03 -0.11607E-04
 0.12278000E+03 -0.72803E-05
 0.12283000E+03 -0.20224E-05
 0.12288000E+03  0.10476E-05
 0.12293000E+03  0.17371E-05
 0.12298000E+03  0.33077E-05
 0.12303000E+03  0.56658E-05
 0.12308000E+03  0.85892E-05
 0.12313000E+03  0.11728E-04
 0.12318000E+03  0.12823E-04
 0.12323000E+03  0.12306E-04
 0.12328000E+03  0.11728E-04
 0.12333000E+03  0.11210E-04
 0.12338000E+03  0.10741E-04
 0.12343000E+03  0.10745E-04
 0.12348000E+03  0.10928E-04
 0.12353000E+03  0.10888E-04
 0.12358000E+03  0.10770E-04
 0.12363000E+03  0.11505E-04
 0.12368000E+03  0.12465E-04
 0.12373000E+03  0.12666E-04
 0.12378000E+03  0.12734E-04
 0.12383000E+03  0.11535E-04
 0.12388000E+03  0.83658E-05
 0.12393000E+03  0.32972E-05
 0.12398000E+03 -0.15220E-05
 0.12403000E+03 -0.39838E-05
 0.12408000E+03 -0.46024E-05
 0.12413000E+03 -0.54708E-05
 0.12418000E+03 -0.69325E-05
 0.12423000E+03 -0.68510E-05
 0.12428000E+03 -0.77161E-05
 0.12433000E+03 -0.77961E-05
 0.12438000E+03 -0.57407E-05
 0.12443000E+03 -0.64601E-05
 0.12448000E+03 -0.77239E-05
 0.12453000E+03 -0.71437E-05
 0.12458000E+03 -0.55180E-05
 0.12463000E+03 -0.26115E-05
 0.12468000E+03 -0.93351E-06
 0.12473000E+03 -0.68610E-06
 0.12478000E+03 -0.33593E-05
 0.12483000E+03 -0.66383E-05
 0.12488000E+03 -0.18967E-05
 0.12493000E+03 -0.50438E-05
 0.12498000E+03 -0.15678E-04
 0.12503000E+03 -0.90434E-05
 0.12508000E+03 -0.73762E-05
 0.12513000E+03 -0.11724E-04
 0.12518000E+03 -0.16253E-05
 0.12523000E+03  0.22261E-05
 0.12528000E+03  0.14394E-05
 0.12533000E+03  0.35026E-05
 0.12538000E+03 -0.67585E-06
 0.12543000E+03 -0.26942E-05
 0.12548000E+03  0.16861E-05
 0.12553000E+03 -0.96628E-07
 0.12558000E+03 -0.31403E-05
 0.12563000E+03  0.61848E-05
 0.12568000E+03  0.11364E-04
 0.12573000E+03  0.10329E-04
 0.12578000E+03  0.13225E-04
 0.12583000E+03  0.10023E-04
 0.12588000E+03  0.12744E-04
 0.12593000E+03  0.94745E-05
 0.12598000E+03  0.10511E-05
 0.12603000E+03  0.48911E-05
 0.12608000E+03 -0.34160E-05
 0.12613000E+03 -0.70309E-05
 0.12618000E+03 -0.48804E-05
 0.12623000E+03 -0.29526E-05
 0.12628000E+03  0.12019E-05
 0.12633000E+03 -0.10292E-04
 0.12638000E+03 -0.14269E-04
 0.12643000E+03 -0.11333E-04
 0.12648000E+03 -0.81174E-05
 0.12653000E+03 -0.86482E-06
 0.12658000E+03 -0.19695E-06
 0.12663000E+03  0.49418E-05
 0.12668000E+03  0.11500E-04
 0.12673000E+03  0.10268E-04
 0.12678000E+03  0.10707E-04
 0.12683000E+03  0.14247E-04
 0.12688000E+03  0.10128E-04
 0.12693000E+03  0.64585E-05
 0.12698000E+03  0.86716E-05
 0.12703000E+03  0.48602E-05
 0.12708000E+03  0.51962E-05
 0.12713000E+03  0.10825E-05
 0.12718000E+03 -0.14315E-04
 0.12723000E+03 -0.10763E-04
 0.12728000E+03 -0.48870E-06
 0.12733000E+03 -0.70390E-05
 0.12738000E+03 -0.78792E-05
 0.12743000E+03 -0.20009E-05
 0.12748000E+03 -0.65440E-05
 0.12753000E+03 -0.59661E-05
 0.12758000E+03 -0.29013E-05
 0.12763000E+03 -0.84981E-05
 0.12768000E+03 -0.53635E-05
 0.12773000E+03 -0.13082E-05
 0.12778000E+03 -0.56683E-05
 0.12783000E+03 -0.29520E-05
 0.12788000E+03  0.36266E-06
 0.12793000E+03 -0.36126E-05
 0.12798000E+03 -0.52125E-05
 0.12803000E+03 -0.27457E-05
 0.12808000E+03  0.18574E-05
 0.12813000E+03  0.88230E-06
 0.12818001E+03 -0.23025E-05
 0.12823000E+03  0.63365E-05
 0.12828000E+03  0.10788E-04
 0.12833000E+03  0.61387E-05
 0.12838000E+03  0.93609E-05
 0.12843001E+03  0.13060E-04
 0.12848000E+03  0.11800E-04
 0.12853000E+03  0.11724E-04
 0.12858000E+03  0.52630E-05
 0.12863000E+03  0.86669E-06
 0.12868001E+03  0.49787E-05
 0.12873000E+03  0.32508E-05
 0.12878000E+03  0.52191E-06
 0.12883000E+03 -0.23738E-05
 0.12888000E+03 -0.39512E-05
 0.12893001E+03 -0.36360E-05
 0.12898000E+03 -0.84932E-05
 0.12903000E+03 -0.66070E-05
 0.12908000E+03 -0.28043E-05
 0.12913000E+03 -0.57997E-05
 0.12918001E+03 -0.30389E-05
 0.12923000E+03  0.34248E-05
 0.12928000E+03  0.37526E-05
 0.12933000E+03  0.23769E-05
 0.12938000E+03  0.18855E-05
 0.12943001E+03 -0.14479E-05
 0.12948000E+03 -0.22818E-05
 0.12953000E+03  0.72222E-06
 0.12958000E+03 -0.91290E-07
 0.12963000E+03 -0.37180E-05
 0.12968001E+03 -0.33230E-05
 0.12973000E+03 -0.21853E-05
 0.12978000E+03 -0.48965E-05
 0.12983000E+03 -0.39927E-05
 0.12988000E+03 -0.38993E-05
 0.12993001E+03 -0.10021E-04
 0.12998000E+03 -0.91791E-05
 0.13003000E+03 -0.43873E-05
 0.13008000E+03 -0.36552E-05
 0.13013000E+03 -0.46703E-05
 0.13018001E+03 -0.57099E-05
 0.13023000E+03 -0.54235E-06
 0.13028000E+03  0.73546E-06
 0.13033000E+03 -0.52774E-05
 0.13038000E+03 -0.53531E-05
 0.13043001E+03 -0.33079E-05
 0.13048000E+03 -0.40574E-05
 0.13053000E+03 -0.33090E-06
 0.13058000E+03  0.38639E-05
 0.13063000E+03  0.83646E-06
 0.13068001E+03  0.20163E-05
 0.13073000E+03  0.67863E-05
 0.13078000E+03  0.67723E-05
 0.13083000E+03  0.67157E-05
 0.13088000E+03  0.91937E-05
 0.13093001E+03  0.14579E-04
 0.13098000E+03  0.14828E-04
 0.13103000E+03  0.13374E-04
 0.13108000E+03  0.16206E-04
 0.13113000E+03  0.86486E-05
 0.13118001E+03  0.54796E-05
 0.13123000E+03  0.13611E-04
 0.13128000E+03  0.96653E-05
 0.13133000E+03  0.68067E-05
 0.13138000E+03  0.59744E-05
 0.13143001E+03 -0.39882E-05
 0.13148000E+03 -0.42259E-05
 0.13153000E+03 -0.12028E-05
 0.13158000E+03 -0.10510E-04
 0.13163000E+03 -0.17865E-04
 0.13168001E+03 -0.14626E-04
 0.13173000E+03 -0.13581E-04
 0.13178000E+03 -0.14674E-04
 0.13183000E+03 -0.12807E-04
 0.13188000E+03 -0.11285E-04
 0.13193001E+03 -0.69037E-05
 0.13198000E+03 -0.80083E-06
 0.13203000E+03  0.10339E-05
 0.13208000E+03 -0.75052E-06
 0.13213000E+03 -0.92034E-07
 0.13218001E+03  0.11053E-05
 0.13223000E+03 -0.10632E-05
 0.13228000E+03 -0.50914E-05
 0.13233000E+03 -0.48892E-05
 0.13238000E+03 -0.66696E-05
 0.13243001E+03 -0.10397E-04
 0.13248000E+03 -0.87889E-05
 0.13253000E+03 -0.10687E-04
 0.13258000E+03 -0.76523E-05
 0.13263000E+03 -0.30367E-05
 0.13268001E+03 -0.43769E-05
 0.13273000E+03 -0.21837E-05
 0.13278000E+03  0.53800E-05
 0.13283000E+03  0.12562E-04
 0.13288000E+03  0.12254E-04
 0.13293001E+03  0.14710E-04
 0.13298000E+03  0.16897E-04
 0.13303000E+03  0.17369E-04
 0.13308000E+03  0.24472E-04
 0.13313000E+03  0.25176E-04
 0.13318001E+03  0.20397E-04
 0.13323000E+03  0.17446E-04
 0.13328000E+03  0.14072E-04
 0.13333000E+03  0.91468E-05
 0.13338000E+03  0.45837E-05
 0.13343001E+03 -0.20300E-06
 0.13348000E+03 -0.48465E-05
 0.13353000E+03 -0.63597E-05
 0.13358000E+03 -0.91462E-05
 0.13363000E+03 -0.10258E-04
 0.13368001E+03 -0.57216E-05
 0.13373000E+03 -0.22556E-05
 0.13378000E+03 -0.49992E-05
 0.13383000E+03 -0.55031E-05
 0.13388000E+03 -0.40921E-05
 0.13393001E+03 -0.49244E-05
 0.13398000E+03 -0.35835E-05
 0.13403000E+03 -0.62137E-05
 0.13408000E+03 -0.10066E-04
 0.13413000E+03 -0.95470E-05
 0.13418001E+03 -0.10305E-04
 0.13423000E+03 -0.10678E-04
 0.13428000E+03 -0.71092E-05
 0.13433000E+03 -0.82538E-05
 0.13438000E+03 -0.12189E-04
 0.13443001E+03 -0.88578E-05
 0.13448000E+03 -0.71092E-05
 0.13453000E+03 -0.82859E-05
 0.13458000E+03 -0.23335E-05
 0.13463000E+03  0.92299E-06
 0.13468001E+03  0.60921E-06
 0.13473000E+03  0.72495E-05
 0.13478000E+03  0.74952E-05
 0.13483000E+03  0.15338E-05
 0.13488000E+03  0.22360E-05
 0.13493001E+03  0.35289E-05
 0.13498000E+03  0.31556E-05
 0.13503000E+03  0.20669E-05
 0.13508000E+03 -0.17137E-05
 0.13513000E+03 -0.33948E-05
 0.13518001E+03 -0.34976E-05
 0.13523000E+03 -0.46700E-05
 0.13528000E+03 -0.19129E-05
 0.13533000E+03  0.39502E-05
 0.13538000E+03  0.55817E-05
 0.13543001E+03  0.19204E-05
 0.13548000E+03 -0.34016E-06
 0.13553000E+03  0.19925E-05
 0.13558000E+03  0.65300E-05
 0.13563000E+03  0.82345E-05
 0.13568001E+03  0.74110E-05
 0.13573000E+03  0.77425E-05
 0.13578000E+03  0.75215E-05
 0.13583000E+03  0.91776E-05
 0.13588000E+03  0.12136E-04
 0.13593001E+03  0.97618E-05
 0.13598000E+03  0.57033E-05
 0.13603000E+03  0.40614E-05
 0.13608000E+03  0.14777E-06
 0.13613000E+03 -0.17428E-05
 0.13618001E+03 -0.65253E-06
 0.13623000E+03 -0.29330E-05
 0.13628000E+03 -0.34332E-05
 0.13633000E+03 -0.78077E-06
 0.13638000E+03 -0.29465E-05
 0.13643001E+03 -0.61228E-05
 0.13648000E+03 -0.15566E-05
 0.13653000E+03 -0.10808E-05
 0.13658000E+03 -0.42683E-05
 0.13663000E+03 -0.20821E-05
 0.13668001E+03 -0.87047E-06
 0.13673000E+03  0.13908E-05
 0.13678000E+03  0.11394E-05
 0.13683000E+03 -0.34770E-05
 0.13688000E+03 -0.60260E-05
 0.13693001E+03 -0.47098E-05
 0.13698000E+03 -0.56716E-05
 0.13703000E+03 -0.95753E-05
 0.13708000E+03 -0.69678E-05
 0.13713000E+03 -0.44009E-05
 0.13718001E+03 -0.49342E-05
 0.13723000E+03 -0.37189E-05
 0.13728000E+03 -0.17446E-05
 0.13733000E+03  0.12504E-05
 0.13738000E+03  0.30033E-05
 0.13743001E+03  0.50141E-05
 0.13748000E+03  0.98305E-05
 0.13753000E+03  0.92899E-05
 0.13758000E+03  0.39338E-05
 0.13763000E+03  0.28634E-05
 0.13768001E+03  0.31588E-05
 0.13773000E+03  0.40835E-05
 0.13778000E+03  0.52956E-05
 0.13783000E+03  0.21228E-05
 0.13788000E+03 -0.10602E-05
 0.13793001E+03 -0.25901E-05
 0.13798000E+03 -0.41053E-05
 0.13803000E+03  0.25156E-06
 0.13808000E+03  0.46359E-05
 0.13813000E+03  0.28550E-06
 0.13818001E+03 -0.25536E-06
 0.13823000E+03  0.36215E-05
 0.13828000E+03  0.81056E-06
 0.13833000E+03  0.67892E-06
 0.13838000E+03  0.48209E-05
 0.13843001E+03  0.45187E-05
 0.13848000E+03  0.65676E-05
 0.13853000E+03  0.12462E-04
 0.13858000E+03  0.11045E-04
 0.13863000E+03  0.42880E-05
 0.13868001E+03  0.96021E-08
 0.13873000E+03 -0.55088E-05
 0.13878000E+03 -0.11039E-04
 0.13883000E+03 -0.11294E-04
 0.13888000E+03 -0.98788E-05
 0.13893001E+03 -0.11752E-04
 0.13898000E+03 -0.14959E-04
 0.13903000E+03 -0.12348E-04
 0.13908000E+03 -0.86525E-05
 0.13913000E+03 -0.74752E-05
 0.13918001E+03 -0.47207E-05
 0.13923000E+03 -0.86787E-05
 0.13928000E+03 -0.13219E-04
 0.13933000E+03 -0.72652E-05
 0.13938000E+03 -0.33381E-05
 0.13943001E+03 -0.47864E-05
 0.13948000E+03 -0.41737E-05
 0.13953000E+03 -0.46865E-05
 0.13958000E+03 -0.64720E-05
 0.13963000E+03 -0.33751E-05
 0.13968001E+03  0.27940E-05
 0.13973000E+03  0.48700E-05
 0.13978000E+03  0.48288E-05
 0.13983000E+03  0.77470E-05
 0.13988000E+03  0.12713E-04
 0.13993001E+03  0.15951E-04
 0.13998000E+03  0.11710E-04
 0.14003000E+03  0.76732E-05
 0.14008000E+03  0.89384E-05
 0.14013000E+03  0.55504E-05
 0.14018001E+03  0.46411E-05
 0.14023000E+03  0.93344E-05
 0.14028000E+03  0.86338E-05
 0.14033000E+03  0.65832E-05
 0.14038000E+03  0.47482E-05
 0.14043001E+03  0.69806E-07
 0.14048000E+03 -0.51830E-05
 0.14053000E+03 -0.75347E-05
 0.14058000E+03 -0.50122E-05
 0.14063000E+03 -0.39108E-05
 0.14068001E+03 -0.15588E-05
 0.14073000E+03  0.63340E-05
 0.14078000E+03  0.79111E-05
 0.14083000E+03  0.21425E-05
 0.14088000E+03 -0.37996E-06
 0.14093001E+03 -0.23857E-06
 0.14098000E+03  0.10933E-05
 0.14103000E+03  0.36698E-05
 0.14108000E+03  0.39963E-05
 0.14113000E+03  0.88058E-06
 0.14118001E+03 -0.48069E-06
 0.14123000E+03  0.46932E-05
 0.14128000E+03  0.57390E-05
 0.14133000E+03  0.31482E-05
 0.14138000E+03  0.74762E-05
 0.14143001E+03  0.47009E-05
 0.14148000E+03 -0.77573E-05
 0.14153000E+03 -0.11532E-04
 0.14158000E+03 -0.58573E-05
 0.14163000E+03 -0.10611E-05
 0.14168001E+03 -0.31979E-05
 0.14173000E+03 -0.96488E-05
 0.14178000E+03 -0.14782E-04
 0.14183000E+03 -0.17220E-04
 0.14188000E+03 -0.12360E-04
 0.14193001E+03 -0.47122E-05
 0.14198000E+03 -0.85707E-05
 0.14203000E+03 -0.15824E-04
 0.14208000E+03 -0.10765E-04
 0.14213000E+03 -0.43278E-05
 0.14218001E+03 -0.98054E-06
 0.14223000E+03  0.91156E-05
 0.14228000E+03  0.15653E-04
 0.14233000E+03  0.10654E-04
 0.14238000E+03  0.25718E-05
 0.14243001E+03  0.13074E-05
 0.14248000E+03  0.10110E-04
 0.14253000E+03  0.20438E-04
 0.14258000E+03  0.24088E-04
 0.14263000E+03  0.18770E-04
 0.14268001E+03  0.92341E-05
 0.14273000E+03  0.38888E-05
 0.14278000E+03  0.44978E-05
 0.14283000E+03  0.50222E-05
 0.14288000E+03  0.16556E-05
 0.14293001E+03 -0.11750E-05
 0.14298000E+03 -0.30933E-05
 0.14303000E+03 -0.69800E-05
 0.14308000E+03 -0.99813E-05
 0.14313000E+03 -0.11279E-04
 0.14318001E+03 -0.12460E-04
 0.14323000E+03 -0.10669E-04
 0.14328000E+03 -0.78926E-05
 0.14333000E+03 -0.77019E-05
 0.14338000E+03 -0.71901E-05
 0.14343001E+03 -0.53066E-05
 0.14348000E+03 -0.45646E-05
 0.14353000E+03 -0.21386E-05
 0.14358000E+03  0.31063E-05
 0.14363000E+03  0.16291E-05
 0.14368001E+03 -0.43187E-06
 0.14373000E+03  0.33206E-05
 0.14378000E+03  0.17829E-05
 0.14383000E+03 -0.30355E-05
 0.14388000E+03 -0.50405E-05
 0.14393001E+03 -0.43316E-05
 0.14398000E+03  0.23388E-06
 0.14403000E+03  0.52753E-05
 0.14408000E+03  0.41795E-05
 0.14413000E+03 -0.11374E-05
 0.14418001E+03 -0.60358E-05
 0.14423000E+03 -0.12654E-04
 0.14428000E+03 -0.15902E-04
 0.14433000E+03 -0.85867E-05
 0.14438000E+03  0.20229E-05
 0.14443001E+03  0.88150E-05
 0.14448000E+03  0.13087E-04
 0.14453000E+03  0.13763E-04
 0.14458000E+03  0.14336E-04
 0.14463000E+03  0.17953E-04
 0.14468001E+03  0.19841E-04
 0.14473000E+03  0.17569E-04
 0.14478000E+03  0.10268E-04
 0.14483000E+03  0.11032E-05
 0.14488000E+03 -0.26036E-05
 0.14493001E+03  0.13179E-05
 0.14498000E+03  0.56264E-05
 0.14503000E+03  0.26027E-05
 0.14508000E+03 -0.32868E-05
 0.14513000E+03 -0.58071E-05
 0.14518001E+03 -0.82554E-05
 0.14523000E+03 -0.11281E-04
 0.14528000E+03 -0.10378E-04
 0.14533000E+03 -0.78370E-05
 0.14538000E+03 -0.93645E-05
 0.14543001E+03 -0.10185E-04
 0.14548000E+03 -0.82472E-05
 0.14553000E+03 -0.67301E-05
 0.14558000E+03 -0.95462E-06
 0.14563000E+03  0.38267E-05
 0.14568001E+03  0.44689E-05
 0.14573000E+03  0.58278E-05
 0.14578000E+03  0.56876E-05
 0.14583000E+03  0.53789E-05
 0.14588000E+03  0.48442E-05
 0.14593001E+03  0.20920E-05
 0.14598000E+03  0.56231E-06
 0.14603000E+03  0.21711E-06
 0.14608000E+03 -0.13630E-06
 0.14613000E+03  0.16160E-05
 0.14618001E+03  0.41757E-05
 0.14623000E+03  0.35661E-05
 0.14628000E+03 -0.15882E-05
 0.14633000E+03 -0.45678E-05
 0.14638000E+03 -0.28671E-05
 0.14643001E+03 -0.25096E-05
 0.14648000E+03 -0.27229E-05
 0.14653000E+03 -0.24028E-05
 0.14658000E+03 -0.43137E-05
 0.14663000E+03 -0.71097E-05
 0.14668001E+03 -0.62938E-05
 0.14673000E+03 -0.26109E-05
 0.14678000E+03  0.11804E-05
 0.14683000E+03  0.45508E-05
 0.14688000E+03  0.26947E-05
 0.14693001E+03 -0.12708E-05
 0.14698000E+03 -0.15098E-05
 0.14703000E+03 -0.34603E-07
 0.14708000E+03  0.35085E-05
 0.14713000E+03  0.46615E-05
 0.14718001E+03  0.12458E-05
 0.14723000E+03 -0.19831E-05
 0.14728000E+03 -0.28304E-05
 0.14733000E+03 -0.27837E-05
 0.14738000E+03 -0.17027E-05
 0.14743001E+03  0.17865E-05
 0.14748000E+03  0.20669E-05
 0.14753000E+03 -0.99855E-06
 0.14758000E+03 -0.38174E-05
 0.14763000E+03 -0.55542E-05
 0.14768001E+03 -0.56121E-05
 0.14773000E+03 -0.53397E-05
 0.14778000E+03 -0.33269E-05
 0.14783000E+03 -0.18171E-05
 0.14788000E+03 -0.37630E-05
 0.14793001E+03 -0.59434E-05
 0.14798000E+03 -0.61566E-05
 0.14803000E+03 -0.41109E-05
 0.14808000E+03 -0.48279E-06
 0.14813000E+03  0.14361E-05
 0.14818001E+03 -0.65645E-06
 0.14823000E+03 -0.22220E-05
 0.14828000E+03  0.19271E-05
 0.14833000E+03  0.82738E-05
 0.14838000E+03  0.12993E-04
 0.14843001E+03  0.17294E-04
 0.14848000E+03  0.18882E-04
 0.14853000E+03  0.15218E-04
 0.14858000E+03  0.10759E-04
 0.14863000E+03  0.82713E-05
 0.14868001E+03  0.83398E-05
 0.14873000E+03  0.11063E-04
 0.14878000E+03  0.10444E-04
 0.14883000E+03  0.55891E-05
 0.14888000E+03  0.77770E-06
 0.14893001E+03 -0.28429E-05
 0.14898000E+03 -0.44274E-05
 0.14903000E+03 -0.47328E-05
 0.14908000E+03 -0.50729E-05
 0.14913000E+03 -0.65065E-05
 0.14918001E+03 -0.81355E-05
 0.14923000E+03 -0.82033E-05
 0.14928000E+03 -0.63875E-05
 0.14933000E+03 -0.43482E-05
 0.14938000E+03 -0.52586E-05
 0.14943001E+03 -0.62219E-05
 0.14948000E+03 -0.56093E-05
 0.14953000E+03 -0.54430E-05
 0.14958000E+03 -0.50289E-05
 0.14963000E+03 -0.63718E-05
 0.14968001E+03 -0.77218E-05
 0.14973000E+03 -0.58911E-05
 0.14978000E+03 -0.31299E-05
 0.14983000E+03  0.27227E-06
 0.14988000E+03  0.37168E-05
 0.14993001E+03  0.43684E-05
 0.14998000E+03  0.23682E-05
