-0.20000458E-01  0.27091E-06
 0.29999543E-01  0.14130E-06
 0.79999544E-01  0.18729E-06
 0.12999955E+00  0.12787E-06
 0.17999955E+00 -0.72168E-07
 0.22999954E+00 -0.23141E-06
 0.27999955E+00  0.21649E-06
 0.32999954E+00 -0.97311E-07
 0.37999955E+00 -0.10160E-06
 0.42999956E+00 -0.89291E-07
 0.47999954E+00 -0.21431E-06
 0.52999955E+00  0.24055E-06
 0.57999957E+00 -0.28468E-06
 0.62999958E+00  0.26044E-07
 0.67999953E+00  0.65985E-07
 0.72999954E+00 -0.11330E-06
 0.77999955E+00  0.19923E-06
 0.82999957E+00 -0.18509E-06
 0.87999958E+00 -0.74437E-08
 0.92999953E+00 -0.55794E-08
 0.97999954E+00 -0.15839E-06
 0.10299996E+01  0.31474E-07
 0.10799996E+01  0.89343E-07
 0.11299995E+01 -0.29577E-07
 0.11799996E+01 -0.69334E-07
 0.12299995E+01  0.93732E-07
 0.12799996E+01 -0.42015E-07
 0.13299996E+01 -0.61906E-07
 0.13799995E+01  0.12947E-07
 0.14299996E+01  0.41074E-07
 0.14799995E+01  0.67005E-07
 0.15299996E+01 -0.83475E-07
 0.15799996E+01  0.14178E-06
 0.16299995E+01  0.16387E-06
 0.16799996E+01 -0.15746E-06
 0.17299995E+01 -0.28377E-07
 0.17799996E+01  0.72174E-07
 0.18299996E+01 -0.18961E-06
 0.18799995E+01  0.51139E-07
 0.19299996E+01  0.71603E-07
 0.19799995E+01 -0.16017E-06
 0.20299995E+01  0.22058E-06
 0.20799997E+01 -0.57721E-07
 0.21299996E+01  0.39281E-07
 0.21799996E+01  0.88824E-07
 0.22299995E+01 -0.18145E-06
 0.22799995E+01  0.46660E-07
 0.23299997E+01 -0.51596E-08
 0.23799996E+01  0.83456E-07
 0.24299996E+01 -0.12160E-06
 0.24799995E+01  0.35533E-07
 0.25299995E+01  0.35708E-07
 0.25799997E+01 -0.54743E-08
 0.26299996E+01  0.91295E-07
 0.26799996E+01 -0.94983E-07
 0.27299995E+01  0.21873E-07
 0.27799995E+01 -0.13662E-06
 0.28299997E+01  0.60349E-07
 0.28799996E+01 -0.16836E-07
 0.29299996E+01 -0.22746E-06
 0.29799995E+01  0.13420E-06
 0.30299995E+01  0.11305E-06
 0.30799997E+01 -0.17018E-06
 0.31299996E+01  0.77457E-09
 0.31799996E+01  0.50664E-07
 0.32299995E+01 -0.96755E-07
 0.32799995E+01  0.42740E-07
 0.33299997E+01 -0.16391E-06
 0.33799996E+01 -0.78639E-07
 0.34299996E+01  0.72276E-07
 0.34799995E+01 -0.10107E-06
 0.35299995E+01 -0.88139E-08
 0.35799997E+01 -0.75786E-07
 0.36299996E+01 -0.43445E-07
 0.36799996E+01 -0.38986E-07
 0.37299995E+01  0.27817E-07
 0.37799995E+01  0.48281E-07
 0.38299997E+01 -0.79206E-07
 0.38799996E+01  0.10505E-06
 0.39299996E+01  0.10473E-06
 0.39799995E+01  0.12353E-06
 0.40299997E+01 -0.80456E-07
 0.40799994E+01  0.45699E-07
 0.41299996E+01  0.15707E-06
 0.41799998E+01 -0.75114E-07
 0.42299995E+01  0.13753E-08
 0.42799997E+01  0.10348E-06
 0.43299994E+01  0.15115E-06
 0.43799996E+01 -0.61363E-07
 0.44299998E+01  0.12252E-06
 0.44799995E+01  0.75417E-07
 0.45299997E+01  0.10966E-06
 0.45799994E+01  0.89232E-07
 0.46299996E+01 -0.61053E-07
 0.46799998E+01 -0.12631E-07
 0.47299995E+01 -0.59296E-08
 0.47799997E+01  0.21784E-06
 0.48299994E+01 -0.72497E-07
 0.48799996E+01  0.10695E-06
 0.49299998E+01  0.46682E-07
 0.49799995E+01 -0.10951E-06
 0.50299997E+01  0.31541E-07
 0.50799994E+01 -0.34797E-07
 0.51299996E+01 -0.12990E-07
 0.51799998E+01 -0.13619E-06
 0.52299995E+01  0.83945E-07
 0.52799997E+01  0.55348E-07
 0.53299994E+01 -0.77870E-07
 0.53799996E+01 -0.17832E-06
 0.54299998E+01  0.77319E-07
 0.54799995E+01 -0.97723E-07
 0.55299997E+01 -0.23366E-06
 0.55799994E+01  0.10980E-06
 0.56299996E+01 -0.14191E-06
 0.56799998E+01  0.88962E-07
 0.57299995E+01 -0.56636E-07
 0.57799997E+01 -0.17314E-07
 0.58299994E+01  0.18623E-07
 0.58799996E+01 -0.15065E-06
 0.59299998E+01  0.39966E-07
 0.59799995E+01 -0.14057E-06
 0.60299997E+01  0.55447E-07
 0.60799994E+01 -0.83698E-07
 0.61299996E+01  0.93168E-08
 0.61799998E+01  0.65053E-07
 0.62299995E+01 -0.17565E-06
 0.62799997E+01  0.17505E-06
 0.63299994E+01 -0.98530E-07
 0.63799996E+01 -0.10547E-06
 0.64299998E+01  0.83978E-07
 0.64799995E+01 -0.10533E-06
 0.65299997E+01  0.12216E-06
 0.65799994E+01  0.42043E-07
 0.66299996E+01  0.68428E-07
 0.66799998E+01  0.34897E-07
 0.67299995E+01 -0.10490E-07
 0.67799997E+01  0.13920E-06
 0.68299994E+01 -0.80594E-07
 0.68799996E+01  0.14544E-07
 0.69299998E+01 -0.23541E-07
 0.69799995E+01 -0.13804E-07
 0.70299997E+01  0.15602E-06
 0.70799994E+01 -0.90821E-07
 0.71299996E+01 -0.65747E-07
 0.71799998E+01  0.86566E-07
 0.72299995E+01 -0.43750E-07
 0.72799997E+01 -0.17673E-07
 0.73299994E+01 -0.59408E-07
 0.73799996E+01  0.50853E-07
 0.74299998E+01  0.52569E-07
 0.74799995E+01 -0.22557E-07
 0.75299997E+01  0.76945E-07
 0.75799994E+01  0.34436E-08
 0.76299996E+01  0.34000E-07
 0.76799998E+01 -0.40538E-07
 0.77299995E+01 -0.13083E-07
 0.77799997E+01 -0.63069E-07
 0.78299994E+01  0.12035E-06
 0.78799996E+01 -0.56147E-07
 0.79299998E+01  0.61062E-07
 0.79799995E+01  0.18542E-06
 0.80299997E+01 -0.24907E-06
 0.80799999E+01  0.16101E-06
 0.81300001E+01  0.11144E-07
 0.81799994E+01 -0.11068E-06
 0.82299995E+01 -0.40945E-07
 0.82799997E+01  0.87837E-07
 0.83299999E+01 -0.79496E-07
 0.83800001E+01 -0.90145E-07
 0.84299994E+01  0.18075E-06
 0.84799995E+01 -0.12993E-06
 0.85299997E+01  0.18697E-06
 0.85799999E+01 -0.44898E-07
 0.86300001E+01 -0.54011E-07
 0.86799994E+01  0.88303E-07
 0.87299995E+01 -0.89976E-07
 0.87799997E+01  0.21357E-08
 0.88299999E+01  0.41453E-07
 0.88800001E+01  0.71920E-07
 0.89299994E+01 -0.11690E-07
 0.89799995E+01  0.16824E-06
 0.90299997E+01  0.11791E-06
 0.90799999E+01  0.48952E-08
 0.91300001E+01 -0.22019E-06
 0.91799994E+01 -0.57916E-07
 0.92299995E+01 -0.62416E-07
 0.92799997E+01 -0.98529E-07
 0.93299999E+01 -0.64155E-07
 0.93800001E+01  0.41745E-06
 0.94299994E+01 -0.26545E-06
 0.94799995E+01 -0.13798E-06
 0.95299997E+01  0.55235E-06
 0.95799999E+01 -0.10680E-05
 0.96300001E+01  0.17856E-05
 0.96799994E+01 -0.20247E-05
 0.97299995E+01  0.22223E-05
 0.97799997E+01 -0.65663E-06
 0.98299999E+01  0.18572E-06
 0.98800001E+01  0.79032E-06
 0.99299994E+01 -0.12615E-04
 0.99799995E+01 -0.26840E-04
 0.10030000E+02 -0.11138E-03
 0.10080000E+02 -0.17017E-03
 0.10130000E+02 -0.20882E-03
 0.10179999E+02 -0.27651E-04
 0.10230000E+02  0.21721E-03
 0.10280000E+02  0.23139E-03
 0.10330000E+02  0.29238E-03
 0.10380000E+02  0.11189E-03
 0.10429999E+02  0.31283E-04
 0.10480000E+02  0.88298E-04
 0.10530000E+02 -0.18011E-04
 0.10580000E+02  0.67791E-05
 0.10630000E+02 -0.47706E-04
 0.10679999E+02 -0.67052E-04
 0.10730000E+02 -0.12380E-03
 0.10780000E+02 -0.15615E-03
 0.10830000E+02 -0.16919E-03
 0.10880000E+02 -0.11322E-03
 0.10929999E+02  0.18655E-03
 0.10980000E+02  0.22302E-03
 0.11030000E+02  0.39985E-04
 0.11080000E+02 -0.18187E-03
 0.11130000E+02 -0.17267E-03
 0.11179999E+02 -0.39617E-04
 0.11230000E+02 -0.67068E-04
 0.11280000E+02  0.39183E-04
 0.11330000E+02  0.34889E-04
 0.11380000E+02  0.83750E-04
 0.11429999E+02  0.17973E-03
 0.11480000E+02  0.17810E-03
 0.11530000E+02  0.23154E-03
 0.11580000E+02 -0.61599E-04
 0.11630000E+02 -0.87642E-04
 0.11679999E+02 -0.11216E-04
 0.11730000E+02 -0.30721E-03
 0.11780000E+02 -0.17162E-03
 0.11830000E+02 -0.16176E-04
 0.11880000E+02 -0.87848E-04
 0.11929999E+02  0.59969E-04
 0.11980000E+02  0.16570E-04
 0.12030000E+02  0.62932E-04
 0.12080000E+02  0.13160E-03
 0.12130000E+02 -0.14460E-03
 0.12179999E+02  0.14959E-03
 0.12230000E+02  0.14642E-03
 0.12280000E+02 -0.21289E-03
 0.12330000E+02  0.14656E-03
 0.12380000E+02  0.10194E-03
 0.12429999E+02  0.50740E-04
 0.12480000E+02  0.28045E-03
 0.12530000E+02  0.18117E-04
 0.12580000E+02 -0.88194E-04
 0.12630000E+02 -0.12718E-03
 0.12679999E+02 -0.12725E-03
 0.12730000E+02 -0.64609E-04
 0.12780000E+02 -0.29777E-03
 0.12830000E+02 -0.25218E-03
 0.12880000E+02 -0.11831E-03
 0.12929999E+02 -0.63665E-04
 0.12980000E+02  0.11982E-03
 0.13030000E+02  0.17475E-03
 0.13080000E+02  0.27735E-03
 0.13130000E+02  0.25975E-03
 0.13179999E+02  0.15086E-03
 0.13230000E+02  0.12194E-04
 0.13280000E+02 -0.17308E-03
 0.13330000E+02 -0.13524E-03
 0.13380000E+02 -0.58089E-04
 0.13429999E+02  0.22618E-04
 0.13480000E+02 -0.84870E-04
 0.13530000E+02 -0.11366E-03
 0.13580000E+02  0.17360E-04
 0.13630000E+02 -0.61057E-04
 0.13679999E+02 -0.45242E-04
 0.13730000E+02  0.62230E-04
 0.13780000E+02  0.12282E-03
 0.13830000E+02  0.37693E-04
 0.13880000E+02 -0.62270E-04
 0.13929999E+02  0.12273E-04
 0.13980000E+02  0.47870E-04
 0.14030000E+02  0.72813E-04
 0.14080000E+02  0.11757E-03
 0.14130000E+02  0.71629E-04
 0.14179999E+02 -0.41465E-05
 0.14230000E+02 -0.49579E-04
 0.14280000E+02 -0.68533E-04
 0.14330000E+02 -0.98450E-04
 0.14380000E+02 -0.33344E-04
 0.14429999E+02  0.22881E-04
 0.14480000E+02 -0.30185E-04
 0.14530000E+02  0.36425E-04
 0.14580000E+02  0.85119E-04
 0.14630000E+02 -0.39330E-04
 0.14679999E+02 -0.18802E-03
 0.14730000E+02 -0.19054E-03
 0.14780000E+02 -0.13007E-03
 0.14830000E+02 -0.80567E-04
 0.14880000E+02  0.63733E-04
 0.14929999E+02  0.20874E-03
 0.14980000E+02  0.16203E-03
 0.15030000E+02  0.45613E-04
 0.15080000E+02  0.51993E-04
 0.15130000E+02  0.89460E-04
 0.15179999E+02  0.14144E-03
 0.15230000E+02  0.20565E-04
 0.15280000E+02  0.43291E-04
 0.15330000E+02  0.21857E-03
 0.15380000E+02  0.35544E-04
 0.15429999E+02  0.41365E-04
 0.15480000E+02  0.63514E-04
 0.15530000E+02 -0.15901E-03
 0.15580000E+02 -0.15299E-03
 0.15630000E+02 -0.16238E-03
 0.15679999E+02 -0.23399E-03
 0.15730000E+02 -0.20730E-03
 0.15780000E+02 -0.12790E-03
 0.15830000E+02  0.31901E-04
 0.15880000E+02  0.22260E-04
 0.15929999E+02 -0.11137E-05
 0.15980000E+02  0.15572E-03
 0.16030001E+02  0.12890E-03
 0.16080000E+02  0.31951E-04
 0.16129999E+02  0.16662E-04
 0.16180000E+02  0.38987E-04
 0.16230000E+02 -0.18526E-04
 0.16280001E+02 -0.14044E-03
 0.16330000E+02 -0.53094E-04
 0.16379999E+02  0.29361E-04
 0.16430000E+02 -0.42480E-04
 0.16480000E+02 -0.91313E-04
 0.16530001E+02 -0.82268E-04
 0.16580000E+02  0.28111E-04
 0.16629999E+02  0.15612E-03
 0.16680000E+02  0.15957E-03
 0.16730000E+02  0.12947E-03
 0.16780001E+02  0.37096E-04
 0.16830000E+02 -0.26953E-03
 0.16879999E+02 -0.91119E-03
 0.16930000E+02 -0.14882E-02
 0.16980000E+02 -0.12247E-02
 0.17030001E+02 -0.32756E-03
 0.17080000E+02  0.57997E-03
 0.17129999E+02  0.10347E-02
 0.17180000E+02  0.89410E-03
 0.17230000E+02  0.99911E-03
 0.17280001E+02  0.14564E-02
 0.17330000E+02  0.15951E-02
 0.17379999E+02  0.11033E-02
 0.17430000E+02  0.28986E-03
 0.17480000E+02 -0.85418E-04
 0.17530001E+02 -0.23636E-03
 0.17580000E+02 -0.68363E-03
 0.17629999E+02 -0.10805E-02
 0.17680000E+02 -0.10874E-02
 0.17730000E+02 -0.10170E-02
 0.17780001E+02 -0.65909E-03
 0.17830000E+02 -0.14639E-03
 0.17879999E+02  0.43073E-03
 0.17930000E+02  0.97221E-03
 0.17980000E+02  0.53667E-03
 0.18030001E+02  0.16824E-03
 0.18080000E+02  0.99102E-04
 0.18129999E+02 -0.26639E-03
 0.18180000E+02 -0.92293E-04
 0.18230000E+02  0.74942E-04
 0.18280001E+02 -0.24352E-03
 0.18330000E+02 -0.53987E-03
 0.18379999E+02 -0.49138E-03
 0.18430000E+02 -0.72239E-04
 0.18480000E+02  0.31936E-03
 0.18530001E+02  0.22196E-03
 0.18580000E+02 -0.22038E-04
 0.18629999E+02  0.25973E-04
 0.18680000E+02 -0.11705E-03
 0.18730000E+02 -0.34213E-03
 0.18780001E+02 -0.31910E-03
 0.18830000E+02 -0.21926E-03
 0.18879999E+02  0.10754E-04
 0.18930000E+02  0.13354E-03
 0.18980000E+02 -0.67224E-04
 0.19030001E+02 -0.32970E-04
 0.19080000E+02  0.19165E-03
 0.19129999E+02  0.18404E-03
 0.19180000E+02  0.11185E-03
 0.19230000E+02  0.83938E-04
 0.19280001E+02  0.54293E-04
 0.19330000E+02 -0.21032E-03
 0.19379999E+02 -0.18884E-03
 0.19430000E+02  0.19045E-03
 0.19480000E+02  0.27261E-03
 0.19530001E+02  0.39193E-03
 0.19580000E+02  0.48821E-03
 0.19629999E+02  0.29258E-03
 0.19680000E+02  0.53114E-04
 0.19730000E+02 -0.13196E-03
 0.19780001E+02 -0.29987E-03
 0.19830000E+02 -0.29385E-03
 0.19879999E+02 -0.25249E-03
 0.19930000E+02 -0.37676E-03
 0.19980000E+02 -0.40555E-03
 0.20030001E+02 -0.25155E-03
 0.20080000E+02  0.79878E-04
 0.20129999E+02  0.36926E-03
 0.20180000E+02  0.57772E-03
 0.20230000E+02  0.62848E-03
 0.20280001E+02  0.40656E-03
 0.20330000E+02  0.21258E-03
 0.20379999E+02 -0.46855E-04
 0.20430000E+02 -0.25877E-03
 0.20480000E+02 -0.26235E-03
 0.20530001E+02 -0.24052E-03
 0.20580000E+02 -0.14280E-03
 0.20629999E+02 -0.13821E-03
 0.20680000E+02 -0.64228E-04
 0.20730000E+02  0.11016E-03
 0.20780001E+02  0.25569E-04
 0.20830000E+02  0.71837E-04
 0.20879999E+02  0.24103E-03
 0.20930000E+02  0.30955E-03
 0.20980000E+02  0.31687E-03
 0.21030001E+02  0.16611E-03
 0.21080000E+02  0.74268E-04
 0.21129999E+02 -0.37845E-04
 0.21180000E+02 -0.21150E-03
 0.21230000E+02 -0.23122E-03
 0.21280001E+02 -0.27713E-03
 0.21330000E+02 -0.41592E-03
 0.21379999E+02 -0.45390E-03
 0.21430000E+02 -0.38218E-03
 0.21480000E+02 -0.32588E-03
 0.21530001E+02 -0.22428E-03
 0.21580000E+02  0.11997E-04
 0.21629999E+02  0.13188E-03
 0.21680000E+02  0.22307E-04
 0.21730000E+02  0.21461E-04
 0.21780001E+02  0.10154E-03
 0.21830000E+02  0.40082E-04
 0.21879999E+02  0.16779E-03
 0.21930000E+02  0.34894E-03
 0.21980000E+02  0.17534E-03
 0.22030001E+02 -0.63274E-04
 0.22080000E+02 -0.15202E-03
 0.22129999E+02 -0.23791E-04
 0.22180000E+02  0.65927E-04
 0.22230000E+02  0.44666E-04
 0.22280001E+02  0.40413E-04
 0.22330000E+02 -0.22205E-04
 0.22379999E+02  0.13365E-03
 0.22430000E+02  0.18855E-03
 0.22480000E+02  0.98051E-04
 0.22530001E+02  0.12877E-03
 0.22580000E+02  0.10074E-03
 0.22629999E+02  0.51773E-04
 0.22680000E+02  0.57414E-05
 0.22730000E+02 -0.27089E-04
 0.22780001E+02 -0.16266E-03
 0.22830000E+02 -0.17573E-03
 0.22879999E+02 -0.25335E-03
 0.22930000E+02 -0.42760E-03
 0.22980000E+02 -0.29444E-03
 0.23030001E+02 -0.14347E-03
 0.23080000E+02  0.13511E-03
 0.23129999E+02  0.17907E-03
 0.23180000E+02  0.69322E-04
 0.23230000E+02  0.12910E-03
 0.23280001E+02  0.22269E-05
 0.23330000E+02  0.42925E-04
 0.23379999E+02  0.16812E-03
 0.23430000E+02  0.28065E-03
 0.23480000E+02  0.27444E-03
 0.23530001E+02  0.20498E-03
 0.23580000E+02  0.28383E-03
 0.23629999E+02  0.27905E-03
 0.23680000E+02  0.39533E-03
 0.23730000E+02  0.44984E-03
 0.23780001E+02  0.29572E-03
 0.23830000E+02  0.99010E-04
 0.23879999E+02 -0.16965E-03
 0.23930000E+02 -0.45972E-03
 0.23980000E+02 -0.67158E-03
 0.24030001E+02 -0.67096E-03
 0.24080000E+02 -0.60115E-03
 0.24129999E+02 -0.56345E-03
 0.24180000E+02 -0.41766E-03
 0.24230000E+02 -0.16366E-03
 0.24280001E+02  0.65218E-04
 0.24330000E+02  0.21341E-03
 0.24379999E+02  0.26635E-03
 0.24430000E+02  0.17528E-03
 0.24480000E+02  0.26422E-04
 0.24530001E+02 -0.66487E-04
 0.24580000E+02 -0.18879E-03
 0.24629999E+02 -0.14322E-03
 0.24680000E+02  0.64103E-04
 0.24730000E+02  0.15297E-03
 0.24780001E+02  0.29051E-03
 0.24830000E+02  0.30434E-03
 0.24879999E+02  0.24180E-03
 0.24930000E+02  0.26481E-03
 0.24980000E+02  0.11201E-03
 0.25030001E+02 -0.54120E-04
 0.25080000E+02 -0.11395E-03
 0.25129999E+02 -0.13158E-03
 0.25180000E+02 -0.12161E-03
 0.25230000E+02 -0.11507E-03
 0.25280001E+02 -0.69952E-04
 0.25330000E+02  0.16781E-05
 0.25379999E+02  0.62750E-04
 0.25430000E+02  0.70854E-04
 0.25480000E+02  0.41819E-04
 0.25530001E+02  0.64571E-05
 0.25580000E+02 -0.43223E-04
 0.25629999E+02 -0.30512E-04
 0.25680000E+02 -0.53037E-05
 0.25730000E+02  0.31499E-04
 0.25780001E+02  0.16633E-03
 0.25830000E+02  0.31957E-03
 0.25879999E+02  0.39514E-03
 0.25930000E+02  0.32328E-03
 0.25980000E+02  0.18650E-03
 0.26030001E+02  0.42637E-04
 0.26080000E+02 -0.11005E-03
 0.26129999E+02 -0.15178E-03
 0.26180000E+02 -0.10493E-03
 0.26230000E+02 -0.63353E-04
 0.26280001E+02 -0.10464E-03
 0.26330000E+02 -0.10825E-03
 0.26379999E+02 -0.72967E-04
 0.26430000E+02 -0.15369E-03
 0.26480000E+02 -0.12314E-03
 0.26530001E+02 -0.79575E-04
 0.26580000E+02 -0.14045E-03
 0.26629999E+02 -0.14728E-03
 0.26680000E+02 -0.14495E-03
 0.26730000E+02 -0.13987E-03
 0.26780001E+02 -0.12428E-03
 0.26830000E+02 -0.13086E-03
 0.26879999E+02 -0.15518E-03
 0.26930000E+02 -0.87037E-04
 0.26980000E+02 -0.30749E-05
 0.27030001E+02  0.30726E-04
 0.27080000E+02  0.12699E-03
 0.27129999E+02  0.16414E-03
 0.27180000E+02  0.13337E-03
 0.27230000E+02  0.13662E-03
 0.27280001E+02  0.19051E-03
 0.27330000E+02  0.25931E-03
 0.27379999E+02  0.25392E-03
 0.27430000E+02  0.19987E-03
 0.27480000E+02  0.86044E-04
 0.27530001E+02  0.49907E-05
 0.27580000E+02 -0.49167E-04
 0.27629999E+02 -0.10231E-03
 0.27680000E+02 -0.57788E-04
 0.27730000E+02 -0.76700E-04
 0.27780001E+02 -0.14747E-03
 0.27830000E+02 -0.18548E-03
 0.27879999E+02 -0.20589E-03
 0.27930000E+02 -0.11777E-03
 0.27980000E+02 -0.54378E-04
 0.28030001E+02 -0.10088E-03
 0.28080000E+02 -0.79645E-04
 0.28129999E+02 -0.97930E-04
 0.28180000E+02 -0.17696E-03
 0.28230000E+02 -0.16196E-03
 0.28280001E+02 -0.13953E-03
 0.28330000E+02 -0.86606E-04
 0.28379999E+02 -0.13912E-04
 0.28430000E+02  0.60285E-04
 0.28480000E+02  0.13585E-03
 0.28530001E+02  0.15351E-03
 0.28580000E+02  0.19291E-03
 0.28629999E+02  0.19061E-03
 0.28680000E+02  0.19982E-03
 0.28730000E+02  0.25684E-03
 0.28780001E+02  0.24556E-03
 0.28830000E+02  0.23213E-03
 0.28879999E+02  0.22760E-03
 0.28930000E+02  0.22579E-03
 0.28980000E+02  0.13065E-03
 0.29030001E+02  0.62356E-05
 0.29080000E+02 -0.30665E-04
 0.29129999E+02 -0.10100E-03
 0.29180000E+02 -0.16950E-03
 0.29230000E+02 -0.18122E-03
 0.29280001E+02 -0.17422E-03
 0.29330000E+02 -0.18473E-03
 0.29379999E+02 -0.17210E-03
 0.29430000E+02 -0.12105E-03
 0.29480000E+02 -0.11805E-03
 0.29530001E+02 -0.10612E-03
 0.29580000E+02 -0.17364E-05
 0.29629999E+02  0.70053E-04
 0.29680000E+02  0.10618E-03
 0.29730000E+02  0.15942E-03
 0.29780001E+02  0.14501E-03
 0.29830000E+02  0.13453E-03
 0.29879999E+02  0.80884E-04
 0.29930000E+02  0.11400E-05
 0.29980000E+02  0.18620E-04
 0.30030001E+02 -0.46211E-04
 0.30080000E+02 -0.13272E-03
 0.30129999E+02 -0.15981E-03
 0.30180000E+02 -0.22031E-03
 0.30230000E+02 -0.21388E-03
 0.30280001E+02 -0.16092E-03
 0.30330000E+02 -0.91505E-04
 0.30379999E+02 -0.35499E-04
 0.30430000E+02 -0.11332E-04
 0.30480000E+02  0.16639E-04
 0.30530001E+02 -0.64415E-05
 0.30580000E+02 -0.50295E-05
 0.30629999E+02  0.33235E-04
 0.30680000E+02  0.60566E-04
 0.30730000E+02  0.70589E-04
 0.30780001E+02  0.59827E-04
 0.30830000E+02  0.85412E-04
 0.30879999E+02  0.11543E-03
 0.30930000E+02  0.12540E-03
 0.30980000E+02  0.12481E-03
 0.31030001E+02  0.86228E-04
 0.31080000E+02  0.43098E-04
 0.31129999E+02  0.31815E-04
 0.31180000E+02  0.21874E-04
 0.31230000E+02  0.21151E-04
 0.31280001E+02 -0.16310E-05
 0.31330000E+02 -0.48745E-04
 0.31379999E+02 -0.59151E-04
 0.31430000E+02 -0.60506E-04
 0.31480000E+02 -0.76027E-05
 0.31530001E+02  0.46730E-04
 0.31580000E+02  0.65246E-04
 0.31629999E+02  0.10897E-03
 0.31680000E+02  0.77141E-04
 0.31730000E+02  0.17034E-04
 0.31780001E+02  0.11379E-05
 0.31830000E+02 -0.40978E-04
 0.31879999E+02 -0.89045E-04
 0.31930000E+02 -0.95388E-04
 0.31980000E+02 -0.10466E-03
 0.32029999E+02 -0.11989E-03
 0.32080002E+02 -0.74505E-04
 0.32130001E+02 -0.30092E-05
 0.32180000E+02  0.19236E-04
 0.32230000E+02 -0.13257E-04
 0.32279999E+02 -0.46145E-04
 0.32330002E+02 -0.74777E-04
 0.32380001E+02 -0.75971E-04
 0.32430000E+02 -0.30599E-04
 0.32480000E+02  0.37186E-04
 0.32529999E+02  0.11199E-03
 0.32580002E+02  0.98179E-04
 0.32630001E+02  0.80008E-04
 0.32680000E+02  0.65360E-04
 0.32730000E+02 -0.52741E-04
 0.32779999E+02 -0.81751E-04
 0.32830002E+02 -0.47798E-04
 0.32880001E+02 -0.64475E-04
 0.32930000E+02 -0.36596E-04
 0.32980000E+02 -0.29480E-04
 0.33029999E+02 -0.59665E-04
 0.33080002E+02 -0.56616E-04
 0.33130001E+02 -0.35891E-04
 0.33180000E+02  0.31264E-04
 0.33230000E+02  0.93548E-04
 0.33279999E+02  0.10752E-03
 0.33330002E+02  0.12034E-03
 0.33380001E+02  0.83324E-04
 0.33430000E+02  0.63718E-04
 0.33480000E+02  0.69907E-04
 0.33529999E+02  0.10196E-04
 0.33580002E+02 -0.28113E-04
 0.33630001E+02 -0.70074E-04
 0.33680000E+02 -0.11388E-03
 0.33730000E+02 -0.70777E-04
 0.33779999E+02 -0.48892E-05
 0.33830002E+02  0.55788E-04
 0.33880001E+02  0.90968E-04
 0.33930000E+02  0.11953E-03
 0.33980000E+02  0.13688E-03
 0.34029999E+02  0.92004E-04
 0.34080002E+02  0.90152E-04
 0.34130001E+02  0.85654E-04
 0.34180000E+02  0.80923E-05
 0.34230000E+02 -0.26584E-04
 0.34279999E+02 -0.66367E-04
 0.34330002E+02 -0.13737E-03
 0.34380001E+02 -0.14057E-03
 0.34430000E+02 -0.12596E-03
 0.34480000E+02 -0.11749E-03
 0.34529999E+02 -0.10719E-03
 0.34580002E+02 -0.10633E-03
 0.34630001E+02 -0.55188E-04
 0.34680000E+02  0.22462E-04
 0.34730000E+02  0.59284E-04
 0.34779999E+02  0.81855E-04
 0.34830002E+02  0.70631E-04
 0.34880001E+02 -0.27863E-04
 0.34930000E+02 -0.65995E-04
 0.34980000E+02 -0.48796E-04
 0.35029999E+02 -0.51143E-04
 0.35080002E+02  0.94424E-05
 0.35130001E+02  0.40925E-04
 0.35180000E+02  0.56091E-04
 0.35230000E+02  0.54161E-04
 0.35279999E+02  0.73953E-05
 0.35330002E+02  0.12138E-04
 0.35380001E+02  0.12024E-04
 0.35430000E+02  0.19276E-04
 0.35480000E+02  0.40788E-04
 0.35529999E+02  0.42636E-04
 0.35580002E+02  0.51609E-04
 0.35630001E+02  0.39590E-04
 0.35680000E+02 -0.30440E-05
 0.35730000E+02 -0.46815E-04
 0.35779999E+02 -0.80127E-04
 0.35830002E+02 -0.96943E-04
 0.35880001E+02 -0.49829E-04
 0.35930000E+02  0.30008E-04
 0.35980000E+02  0.90928E-04
 0.36029999E+02  0.10288E-03
 0.36080002E+02  0.73338E-04
 0.36130001E+02  0.55872E-04
 0.36180000E+02  0.22030E-04
 0.36230000E+02  0.63311E-05
 0.36279999E+02  0.71482E-06
 0.36330002E+02 -0.18715E-04
 0.36380001E+02 -0.30030E-04
 0.36430000E+02 -0.59216E-04
 0.36480000E+02 -0.63314E-04
 0.36529999E+02 -0.44291E-04
 0.36580002E+02 -0.78708E-05
 0.36630001E+02  0.26892E-04
 0.36680000E+02  0.28394E-04
 0.36730000E+02  0.19715E-04
 0.36779999E+02  0.34954E-05
 0.36830002E+02  0.24859E-05
 0.36880001E+02  0.69716E-05
 0.36930000E+02  0.24817E-04
 0.36980000E+02  0.57940E-04
 0.37029999E+02  0.48359E-04
 0.37080002E+02  0.22948E-04
 0.37130001E+02 -0.28313E-05
 0.37180000E+02 -0.40492E-04
 0.37230000E+02 -0.58812E-04
 0.37279999E+02 -0.85297E-04
 0.37330002E+02 -0.89685E-04
 0.37380001E+02 -0.82562E-04
 0.37430000E+02 -0.12887E-03
 0.37480000E+02 -0.14292E-03
 0.37529999E+02 -0.13864E-03
 0.37580002E+02 -0.13602E-03
 0.37630001E+02 -0.62266E-04
 0.37680000E+02  0.26816E-04
 0.37730000E+02  0.94772E-04
 0.37779999E+02  0.14176E-03
 0.37830002E+02  0.15298E-03
 0.37880001E+02  0.15037E-03
 0.37930000E+02  0.12879E-03
 0.37980000E+02  0.10458E-03
 0.38029999E+02  0.95564E-04
 0.38080002E+02  0.51223E-04
 0.38130001E+02  0.13591E-04
 0.38180000E+02 -0.69917E-05
 0.38230000E+02 -0.49575E-04
 0.38279999E+02 -0.43000E-04
 0.38330002E+02 -0.37987E-04
 0.38380001E+02 -0.74351E-04
 0.38430000E+02 -0.87291E-04
 0.38480000E+02 -0.76137E-04
 0.38529999E+02 -0.42882E-04
 0.38580002E+02 -0.28362E-05
 0.38630001E+02  0.42494E-04
 0.38680000E+02  0.99360E-04
 0.38730000E+02  0.11704E-03
 0.38779999E+02  0.93784E-04
 0.38830002E+02  0.70477E-04
 0.38880001E+02  0.36599E-04
 0.38930000E+02 -0.46298E-05
 0.38980000E+02 -0.34391E-04
 0.39029999E+02 -0.40452E-04
 0.39080002E+02 -0.23436E-04
 0.39130001E+02 -0.18836E-04
 0.39180000E+02 -0.16626E-04
 0.39230000E+02 -0.34231E-05
 0.39279999E+02  0.13736E-05
 0.39330002E+02  0.10576E-04
 0.39380001E+02  0.11598E-04
 0.39430000E+02  0.37603E-05
 0.39480000E+02 -0.54240E-05
 0.39529999E+02 -0.29828E-04
 0.39580002E+02 -0.14270E-04
 0.39630001E+02  0.11331E-04
 0.39680000E+02 -0.12110E-04
 0.39730000E+02 -0.23883E-04
 0.39779999E+02 -0.40795E-04
 0.39830002E+02 -0.69075E-04
 0.39880001E+02 -0.63264E-04
 0.39930000E+02 -0.60692E-04
 0.39980000E+02 -0.82420E-04
 0.40029999E+02 -0.93399E-04
 0.40080002E+02 -0.71628E-04
 0.40130001E+02 -0.51934E-04
 0.40180000E+02 -0.36794E-04
 0.40230000E+02 -0.35017E-05
 0.40279999E+02  0.27663E-04
 0.40330002E+02  0.60202E-04
 0.40380001E+02  0.10266E-03
 0.40430000E+02  0.13340E-03
 0.40480000E+02  0.14265E-03
 0.40529999E+02  0.13803E-03
 0.40580002E+02  0.10103E-03
 0.40630001E+02  0.53756E-04
 0.40680000E+02  0.21914E-04
 0.40730000E+02 -0.19692E-04
 0.40779999E+02 -0.48881E-04
 0.40830002E+02 -0.64255E-04
 0.40880001E+02 -0.59661E-04
 0.40930000E+02 -0.19603E-04
 0.40980000E+02  0.20715E-04
 0.41029999E+02  0.41008E-04
 0.41080002E+02  0.32977E-04
 0.41130001E+02  0.17119E-04
 0.41180000E+02  0.90559E-05
 0.41230000E+02  0.52843E-05
 0.41279999E+02  0.94819E-05
 0.41330002E+02  0.27824E-04
 0.41380001E+02  0.31615E-04
 0.41430000E+02 -0.20425E-05
 0.41480000E+02 -0.32766E-04
 0.41529999E+02 -0.51061E-04
 0.41580002E+02 -0.71551E-04
 0.41630001E+02 -0.86224E-04
 0.41680000E+02 -0.60060E-04
 0.41730000E+02 -0.27247E-04
 0.41779999E+02 -0.33899E-04
 0.41830002E+02 -0.37619E-04
 0.41880001E+02 -0.50985E-04
 0.41930000E+02 -0.45732E-04
 0.41980000E+02  0.21739E-04
 0.42029999E+02  0.72105E-04
 0.42080002E+02  0.79155E-04
 0.42130001E+02  0.72572E-04
 0.42180000E+02  0.50840E-04
 0.42230000E+02  0.99559E-05
 0.42279999E+02 -0.46823E-04
 0.42330002E+02 -0.68867E-04
 0.42380001E+02 -0.57434E-04
 0.42430000E+02 -0.43659E-04
 0.42480000E+02 -0.76122E-05
 0.42529999E+02  0.27623E-04
 0.42580002E+02  0.45894E-04
 0.42630001E+02  0.28534E-04
 0.42680000E+02 -0.25119E-04
 0.42730000E+02 -0.77413E-04
 0.42779999E+02 -0.10879E-03
 0.42830002E+02 -0.10707E-03
 0.42880001E+02 -0.90364E-04
 0.42930000E+02 -0.67422E-04
 0.42980000E+02 -0.46700E-04
 0.43029999E+02 -0.91722E-05
 0.43080002E+02  0.55916E-04
 0.43130001E+02  0.11279E-03
 0.43180000E+02  0.15386E-03
 0.43230000E+02  0.17282E-03
 0.43279999E+02  0.16735E-03
 0.43330002E+02  0.13241E-03
 0.43380001E+02  0.89955E-04
 0.43430000E+02  0.68052E-04
 0.43480000E+02  0.51607E-04
 0.43529999E+02  0.30292E-04
 0.43580002E+02  0.71479E-05
 0.43630001E+02 -0.16207E-04
 0.43680000E+02 -0.44399E-04
 0.43730000E+02 -0.66336E-04
 0.43779999E+02 -0.75636E-04
 0.43830002E+02 -0.73044E-04
 0.43880001E+02 -0.53703E-04
 0.43930000E+02 -0.35045E-04
 0.43980000E+02 -0.32125E-04
 0.44029999E+02 -0.38190E-04
 0.44080002E+02 -0.37603E-04
 0.44130001E+02 -0.26160E-04
 0.44180000E+02 -0.33294E-04
 0.44230000E+02 -0.40126E-04
 0.44279999E+02 -0.28674E-04
 0.44330002E+02 -0.37960E-04
 0.44380001E+02 -0.27374E-04
 0.44430000E+02  0.98764E-05
 0.44480000E+02  0.19400E-04
 0.44529999E+02  0.14191E-04
 0.44580002E+02  0.13966E-04
 0.44630001E+02  0.23129E-04
 0.44680000E+02  0.14179E-04
 0.44730000E+02 -0.17017E-05
 0.44779999E+02  0.34390E-05
 0.44830002E+02  0.10308E-08
 0.44880001E+02  0.31485E-05
 0.44930000E+02  0.25021E-04
 0.44980000E+02  0.55211E-04
 0.45029999E+02  0.73821E-04
 0.45080002E+02  0.71013E-04
 0.45130001E+02  0.67528E-04
 0.45180000E+02  0.63936E-04
 0.45230000E+02  0.68976E-04
 0.45279999E+02  0.78790E-04
 0.45330002E+02  0.73530E-04
 0.45380001E+02  0.41390E-04
 0.45430000E+02  0.10329E-05
 0.45480000E+02 -0.42728E-04
 0.45529999E+02 -0.87292E-04
 0.45580002E+02 -0.10680E-03
 0.45630001E+02 -0.12257E-03
 0.45680000E+02 -0.12882E-03
 0.45730000E+02 -0.12831E-03
 0.45779999E+02 -0.14077E-03
 0.45830002E+02 -0.13192E-03
 0.45880001E+02 -0.11598E-03
 0.45930000E+02 -0.91342E-04
 0.45980000E+02 -0.34835E-04
 0.46029999E+02  0.45631E-05
 0.46080002E+02  0.29670E-04
 0.46130001E+02  0.63410E-04
 0.46180000E+02  0.88824E-04
 0.46230000E+02  0.10832E-03
 0.46279999E+02  0.12382E-03
 0.46330002E+02  0.11956E-03
 0.46380001E+02  0.88640E-04
 0.46430000E+02  0.59547E-04
 0.46480000E+02  0.41259E-04
 0.46529999E+02  0.22758E-04
 0.46580002E+02  0.66816E-05
 0.46630001E+02 -0.11579E-04
 0.46680000E+02 -0.38027E-04
 0.46730000E+02 -0.61366E-04
 0.46779999E+02 -0.60153E-04
 0.46830002E+02 -0.38794E-04
 0.46880001E+02 -0.17764E-04
 0.46930000E+02 -0.44280E-05
 0.46980000E+02  0.61092E-05
 0.47029999E+02  0.26197E-04
 0.47080002E+02  0.59137E-04
 0.47130001E+02  0.66909E-04
 0.47180000E+02  0.57095E-04
 0.47230000E+02  0.61165E-04
 0.47279999E+02  0.41440E-04
 0.47330002E+02  0.13941E-04
 0.47380001E+02 -0.26530E-05
 0.47430000E+02 -0.27890E-04
 0.47480000E+02 -0.39746E-04
 0.47529999E+02 -0.32398E-04
 0.47580002E+02 -0.26638E-04
 0.47630001E+02 -0.31984E-04
 0.47680000E+02 -0.50728E-04
 0.47730000E+02 -0.58657E-04
 0.47779999E+02 -0.41563E-04
 0.47830002E+02 -0.31705E-04
 0.47880001E+02 -0.13163E-04
 0.47930000E+02  0.65371E-05
 0.47980000E+02 -0.45788E-07
 0.48029999E+02 -0.19115E-05
 0.48080002E+02 -0.40160E-05
 0.48130001E+02 -0.26279E-05
 0.48180000E+02  0.46539E-05
 0.48230000E+02  0.13993E-04
 0.48279999E+02  0.28383E-04
 0.48330002E+02  0.18184E-04
 0.48380001E+02  0.10623E-04
 0.48430000E+02  0.12139E-04
 0.48480000E+02  0.63912E-05
 0.48529999E+02  0.14332E-04
 0.48580002E+02  0.11822E-04
 0.48630001E+02  0.58788E-05
 0.48680000E+02  0.22113E-04
 0.48730000E+02  0.43379E-04
 0.48779999E+02  0.48784E-04
 0.48830002E+02  0.37011E-04
 0.48880001E+02  0.29162E-04
 0.48930000E+02  0.13935E-04
 0.48980000E+02 -0.95679E-05
 0.49029999E+02 -0.19557E-04
 0.49080002E+02 -0.21787E-04
 0.49130001E+02 -0.15037E-04
 0.49180000E+02 -0.61025E-05
 0.49230000E+02 -0.12059E-04
 0.49279999E+02 -0.20474E-04
 0.49330002E+02 -0.19502E-04
 0.49380001E+02 -0.33587E-04
 0.49430000E+02 -0.50887E-04
 0.49480000E+02 -0.50160E-04
 0.49529999E+02 -0.50534E-04
 0.49580002E+02 -0.47738E-04
 0.49630001E+02 -0.44963E-04
 0.49680000E+02 -0.34240E-04
 0.49730000E+02 -0.11032E-04
 0.49779999E+02  0.42108E-05
 0.49830002E+02  0.23683E-04
 0.49880001E+02  0.36877E-04
 0.49930000E+02  0.38332E-04
 0.49980000E+02  0.44082E-04
 0.50029999E+02  0.41136E-04
 0.50080002E+02  0.39931E-04
 0.50130001E+02  0.44943E-04
 0.50180000E+02  0.46079E-04
 0.50230000E+02  0.42356E-04
 0.50279999E+02  0.24372E-04
 0.50330002E+02  0.32047E-05
 0.50380001E+02 -0.23959E-04
 0.50430000E+02 -0.58194E-04
 0.50480000E+02 -0.78495E-04
 0.50529999E+02 -0.82495E-04
 0.50580002E+02 -0.69361E-04
 0.50630001E+02 -0.33940E-04
 0.50680000E+02  0.15980E-04
 0.50730000E+02  0.61502E-04
 0.50779999E+02  0.80493E-04
 0.50830002E+02  0.64918E-04
 0.50880001E+02  0.35294E-04
 0.50930000E+02  0.83738E-05
 0.50980000E+02 -0.11161E-04
 0.51029999E+02 -0.25699E-04
 0.51080002E+02 -0.34195E-04
 0.51130001E+02 -0.30903E-04
 0.51180000E+02 -0.29269E-04
 0.51230000E+02 -0.32177E-04
 0.51279999E+02 -0.21935E-04
 0.51330002E+02 -0.31408E-05
 0.51380001E+02  0.71980E-05
 0.51430000E+02  0.17987E-04
 0.51480000E+02  0.30615E-04
 0.51529999E+02  0.32203E-04
 0.51580002E+02  0.18553E-04
 0.51630001E+02 -0.12399E-05
 0.51680000E+02 -0.11506E-04
 0.51730000E+02 -0.20304E-04
 0.51779999E+02 -0.29773E-04
 0.51830002E+02 -0.23374E-04
 0.51880001E+02 -0.78342E-05
 0.51930000E+02  0.47509E-05
 0.51980000E+02  0.16291E-04
 0.52029999E+02  0.29018E-04
 0.52080002E+02  0.38597E-04
 0.52130001E+02  0.33331E-04
 0.52180000E+02  0.27659E-04
 0.52230000E+02  0.32976E-04
 0.52279999E+02  0.39642E-04
 0.52330002E+02  0.46189E-04
 0.52380001E+02  0.39968E-04
 0.52430000E+02  0.21098E-04
 0.52480000E+02  0.86134E-06
 0.52529999E+02 -0.12423E-04
 0.52580002E+02 -0.15138E-04
 0.52630001E+02 -0.97696E-05
 0.52680000E+02  0.11067E-05
 0.52730000E+02  0.85466E-05
 0.52779999E+02  0.12617E-04
 0.52830002E+02  0.45420E-05
 0.52880001E+02 -0.11585E-04
 0.52930000E+02 -0.19505E-04
 0.52980000E+02 -0.26429E-04
 0.53029999E+02 -0.39280E-04
 0.53080002E+02 -0.58944E-04
 0.53130001E+02 -0.80433E-04
 0.53180000E+02 -0.96172E-04
 0.53230000E+02 -0.99548E-04
 0.53279999E+02 -0.83972E-04
 0.53330002E+02 -0.53301E-04
 0.53380001E+02 -0.26768E-04
 0.53430000E+02 -0.11123E-04
 0.53480000E+02  0.82312E-05
 0.53529999E+02  0.32279E-04
 0.53580002E+02  0.54075E-04
 0.53630001E+02  0.73904E-04
 0.53680000E+02  0.82166E-04
 0.53730000E+02  0.73366E-04
 0.53779999E+02  0.54955E-04
 0.53830002E+02  0.34638E-04
 0.53880001E+02  0.29278E-04
 0.53930000E+02  0.27588E-04
 0.53980000E+02  0.11379E-04
 0.54029999E+02 -0.61556E-05
 0.54080002E+02 -0.26453E-04
 0.54130001E+02 -0.36188E-04
 0.54180000E+02 -0.36114E-04
 0.54230000E+02 -0.42586E-04
 0.54279999E+02 -0.36516E-04
 0.54330002E+02 -0.21526E-04
 0.54380001E+02 -0.36180E-05
 0.54430000E+02  0.13979E-04
 0.54480000E+02  0.35362E-04
 0.54529999E+02  0.61077E-04
 0.54580002E+02  0.62550E-04
 0.54630001E+02  0.51420E-04
 0.54680000E+02  0.40527E-04
 0.54730000E+02  0.25430E-04
 0.54779999E+02  0.12153E-04
 0.54830002E+02 -0.38409E-07
 0.54880001E+02 -0.67215E-05
 0.54930000E+02 -0.90066E-05
 0.54980000E+02 -0.96014E-05
 0.55029999E+02 -0.35235E-05
 0.55080002E+02 -0.56398E-06
 0.55130001E+02 -0.67438E-05
 0.55180000E+02 -0.14938E-04
 0.55230000E+02 -0.28711E-04
 0.55279999E+02 -0.36289E-04
 0.55330002E+02 -0.37276E-04
 0.55380001E+02 -0.36415E-04
 0.55430000E+02 -0.22564E-04
 0.55480000E+02 -0.11871E-04
 0.55529999E+02 -0.90913E-05
 0.55580002E+02 -0.94761E-05
 0.55630001E+02 -0.12266E-04
 0.55680000E+02 -0.13659E-04
 0.55730000E+02 -0.13902E-04
 0.55779999E+02 -0.11311E-04
 0.55830002E+02 -0.68008E-05
 0.55880001E+02 -0.12625E-06
 0.55930000E+02  0.50074E-05
 0.55980000E+02  0.98195E-05
 0.56029999E+02  0.15658E-04
 0.56080002E+02  0.18036E-04
 0.56130001E+02  0.19109E-04
 0.56180000E+02  0.19048E-04
 0.56230000E+02  0.10392E-04
 0.56279999E+02  0.12540E-06
 0.56330002E+02 -0.13588E-05
 0.56380001E+02 -0.16232E-06
 0.56430000E+02  0.74679E-06
 0.56480000E+02 -0.34106E-05
 0.56529999E+02 -0.10523E-04
 0.56580002E+02 -0.14669E-04
 0.56630001E+02 -0.16404E-04
 0.56680000E+02 -0.85545E-05
 0.56730000E+02  0.17967E-05
 0.56779999E+02  0.12153E-04
 0.56830002E+02  0.28232E-04
 0.56880001E+02  0.40706E-04
 0.56930000E+02  0.47270E-04
 0.56980000E+02  0.52893E-04
 0.57029999E+02  0.51861E-04
 0.57080002E+02  0.35078E-04
 0.57130001E+02  0.73411E-05
 0.57180000E+02 -0.17949E-04
 0.57230000E+02 -0.35109E-04
 0.57279999E+02 -0.49812E-04
 0.57330002E+02 -0.52268E-04
 0.57380001E+02 -0.36970E-04
 0.57430000E+02 -0.22170E-04
 0.57480000E+02 -0.12480E-04
 0.57529999E+02 -0.56628E-05
 0.57580002E+02 -0.70281E-05
 0.57630001E+02 -0.10849E-04
 0.57680000E+02 -0.63808E-05
 0.57730000E+02  0.99625E-06
 0.57779999E+02  0.70993E-05
 0.57830002E+02  0.15354E-04
 0.57880001E+02  0.22962E-04
 0.57930000E+02  0.19049E-04
 0.57980000E+02  0.28657E-05
 0.58029999E+02 -0.13554E-04
 0.58080002E+02 -0.27716E-04
 0.58130001E+02 -0.31482E-04
 0.58180000E+02 -0.25396E-04
 0.58230000E+02 -0.19471E-04
 0.58279999E+02 -0.91785E-05
 0.58330002E+02  0.45393E-05
 0.58380001E+02  0.11127E-04
 0.58430000E+02  0.30629E-05
 0.58480000E+02 -0.71845E-06
 0.58529999E+02  0.78868E-05
 0.58580002E+02  0.11823E-04
 0.58630001E+02  0.15555E-04
 0.58680000E+02  0.19050E-04
 0.58730000E+02  0.17812E-04
 0.58779999E+02  0.10592E-04
 0.58830002E+02  0.29620E-07
 0.58880001E+02 -0.63087E-05
 0.58930000E+02 -0.83272E-05
 0.58980000E+02 -0.16099E-05
 0.59029999E+02  0.54910E-05
 0.59080002E+02  0.10811E-04
 0.59130001E+02  0.14526E-04
 0.59180000E+02  0.12494E-04
 0.59230000E+02  0.11346E-04
 0.59279999E+02  0.74385E-05
 0.59330002E+02  0.76133E-05
 0.59380001E+02  0.16798E-04
 0.59430000E+02  0.23272E-04
 0.59480000E+02  0.26032E-04
 0.59529999E+02  0.32101E-04
 0.59580002E+02  0.34754E-04
 0.59630001E+02  0.29847E-04
 0.59680000E+02  0.23394E-04
 0.59730000E+02  0.13097E-04
 0.59779999E+02  0.15601E-06
 0.59830002E+02 -0.18258E-04
 0.59880001E+02 -0.33395E-04
 0.59930000E+02 -0.37183E-04
 0.59980000E+02 -0.43362E-04
