-0.20000458E-01 -0.68163E-06
 0.29999543E-01 -0.14486E-06
 0.79999544E-01 -0.40371E-06
 0.12999955E+00  0.22627E-06
 0.17999955E+00  0.11397E-06
 0.22999954E+00  0.16051E-06
 0.27999955E+00  0.25306E-06
 0.32999954E+00  0.40228E-07
 0.37999955E+00  0.14122E-06
 0.42999956E+00  0.16083E-06
 0.47999954E+00  0.15849E-06
 0.52999955E+00  0.19758E-06
 0.57999957E+00  0.17295E-06
 0.62999958E+00 -0.78757E-07
 0.67999953E+00  0.20461E-06
 0.72999954E+00  0.36083E-07
 0.77999955E+00 -0.18592E-06
 0.82999957E+00 -0.62686E-07
 0.87999958E+00 -0.11271E-06
 0.92999953E+00  0.20606E-06
 0.97999954E+00 -0.78754E-07
 0.10299996E+01 -0.33626E-06
 0.10799996E+01  0.16899E-06
 0.11299995E+01  0.80772E-07
 0.11799996E+01  0.15316E-07
 0.12299995E+01 -0.28613E-06
 0.12799996E+01 -0.33750E-06
 0.13299996E+01  0.33825E-06
 0.13799995E+01  0.81224E-09
 0.14299996E+01 -0.55319E-07
 0.14799995E+01 -0.58227E-07
 0.15299996E+01 -0.11948E-06
 0.15799996E+01  0.20139E-06
 0.16299995E+01 -0.95632E-07
 0.16799996E+01 -0.46916E-08
 0.17299995E+01  0.19526E-06
 0.17799996E+01 -0.18955E-06
 0.18299996E+01  0.73061E-07
 0.18799995E+01  0.32196E-06
 0.19299996E+01 -0.28356E-06
 0.19799995E+01  0.97320E-07
 0.20299995E+01  0.24306E-06
 0.20799997E+01 -0.29456E-06
 0.21299996E+01  0.75442E-07
 0.21799996E+01 -0.56595E-07
 0.22299995E+01  0.88993E-08
 0.22799995E+01  0.26386E-06
 0.23299997E+01 -0.20658E-06
 0.23799996E+01  0.63764E-07
 0.24299996E+01 -0.11375E-06
 0.24799995E+01 -0.21129E-06
 0.25299995E+01  0.25123E-06
 0.25799997E+01 -0.24940E-06
 0.26299996E+01 -0.12987E-06
 0.26799996E+01  0.13230E-06
 0.27299995E+01  0.11684E-07
 0.27799995E+01 -0.20508E-06
 0.28299997E+01 -0.12390E-06
 0.28799996E+01  0.32327E-06
 0.29299996E+01 -0.19657E-06
 0.29799995E+01 -0.53016E-07
 0.30299995E+01  0.15233E-06
 0.30799997E+01 -0.23547E-08
 0.31299996E+01  0.80066E-07
 0.31799996E+01 -0.48105E-08
 0.32299995E+01  0.23877E-06
 0.32799995E+01 -0.98886E-07
 0.33299997E+01  0.22170E-06
 0.33799996E+01 -0.31362E-07
 0.34299996E+01 -0.35627E-06
 0.34799995E+01  0.42886E-06
 0.35299995E+01  0.11047E-07
 0.35799997E+01  0.12616E-06
 0.36299996E+01  0.47411E-07
 0.36799996E+01 -0.27595E-07
 0.37299995E+01  0.23886E-06
 0.37799995E+01  0.45593E-07
 0.38299997E+01  0.92254E-07
 0.38799996E+01 -0.29984E-06
 0.39299996E+01  0.19820E-08
 0.39799995E+01 -0.31548E-08
 0.40299997E+01 -0.20520E-07
 0.40799994E+01  0.12040E-06
 0.41299996E+01 -0.26125E-06
 0.41799998E+01 -0.16318E-07
 0.42299995E+01 -0.18061E-06
 0.42799997E+01 -0.22531E-06
 0.43299994E+01  0.15246E-06
 0.43799996E+01  0.84789E-08
 0.44299998E+01 -0.26161E-06
 0.44799995E+01  0.50131E-07
 0.45299997E+01  0.15260E-07
 0.45799994E+01 -0.21802E-06
 0.46299996E+01  0.28276E-07
 0.46799998E+01  0.72557E-07
 0.47299995E+01 -0.11257E-06
 0.47799997E+01 -0.41246E-06
 0.48299994E+01  0.69752E-07
 0.48799996E+01  0.65473E-06
 0.49299998E+01 -0.30511E-06
 0.49799995E+01 -0.45930E-06
 0.50299997E+01  0.46588E-06
 0.50799994E+01 -0.19415E-06
 0.51299996E+01 -0.48388E-07
 0.51799998E+01  0.31040E-06
 0.52299995E+01  0.71522E-07
 0.52799997E+01  0.17160E-06
 0.53299994E+01 -0.12019E-06
 0.53799996E+01  0.28047E-06
 0.54299998E+01 -0.27429E-07
 0.54799995E+01 -0.23352E-07
 0.55299997E+01  0.42996E-06
 0.55799994E+01 -0.17926E-06
 0.56299996E+01  0.24937E-07
 0.56799998E+01  0.94214E-07
 0.57299995E+01  0.33592E-07
 0.57799997E+01  0.14918E-06
 0.58299994E+01 -0.35646E-06
 0.58799996E+01  0.22205E-06
 0.59299998E+01  0.46042E-07
 0.59799995E+01 -0.31405E-06
 0.60299997E+01  0.14909E-06
 0.60799994E+01 -0.56450E-07
 0.61299996E+01  0.58577E-07
 0.61799998E+01 -0.12184E-06
 0.62299995E+01 -0.30799E-07
 0.62799997E+01 -0.11875E-06
 0.63299994E+01 -0.15612E-07
 0.63799996E+01  0.27916E-07
 0.64299998E+01 -0.18554E-06
 0.64799995E+01  0.19739E-06
 0.65299997E+01 -0.16892E-06
 0.65799994E+01 -0.54861E-07
 0.66299996E+01  0.87556E-07
 0.66799998E+01 -0.82790E-07
 0.67299995E+01 -0.18300E-06
 0.67799997E+01 -0.12276E-06
 0.68299994E+01  0.27629E-06
 0.68799996E+01 -0.58169E-07
 0.69299998E+01 -0.20434E-06
 0.69799995E+01  0.13890E-06
 0.70299997E+01  0.84877E-07
 0.70799994E+01 -0.10222E-06
 0.71299996E+01 -0.15854E-07
 0.71799998E+01  0.22906E-07
 0.72299995E+01 -0.12557E-06
 0.72799997E+01  0.16013E-06
 0.73299994E+01  0.27082E-06
 0.73799996E+01 -0.16418E-06
 0.74299998E+01  0.26001E-07
 0.74799995E+01  0.11167E-06
 0.75299997E+01  0.11825E-06
 0.75799994E+01  0.12531E-06
 0.76299996E+01 -0.74009E-07
 0.76799998E+01  0.15505E-06
 0.77299995E+01 -0.13903E-06
 0.77799997E+01  0.53965E-07
 0.78299994E+01  0.24941E-06
 0.78799996E+01 -0.21347E-06
 0.79299998E+01  0.11399E-06
 0.79799995E+01  0.21608E-07
 0.80299997E+01 -0.18580E-06
 0.80799999E+01  0.94788E-07
 0.81300001E+01 -0.98931E-07
 0.81799994E+01 -0.12689E-06
 0.82299995E+01 -0.53860E-07
 0.82799997E+01 -0.70336E-07
 0.83299999E+01  0.22436E-06
 0.83800001E+01 -0.17671E-07
 0.84299994E+01 -0.27095E-06
 0.84799995E+01  0.59875E-07
 0.85299997E+01  0.42035E-07
 0.85799999E+01  0.21481E-08
 0.86300001E+01  0.94196E-08
 0.86799994E+01  0.88131E-07
 0.87299995E+01  0.97313E-07
 0.87799997E+01 -0.17916E-06
 0.88299999E+01 -0.17736E-06
 0.88800001E+01  0.49327E-07
 0.89299994E+01 -0.64698E-07
 0.89799995E+01 -0.20545E-06
 0.90299997E+01  0.17956E-06
 0.90799999E+01 -0.58249E-07
 0.91300001E+01 -0.72795E-07
 0.91799994E+01  0.25477E-06
 0.92299995E+01 -0.11943E-06
 0.92799997E+01 -0.41058E-07
 0.93299999E+01 -0.99705E-07
 0.93800001E+01 -0.11220E-06
 0.94299994E+01  0.36309E-06
 0.94799995E+01  0.64590E-07
 0.95299997E+01 -0.10897E-06
 0.95799999E+01  0.23651E-06
 0.96300001E+01 -0.22082E-07
 0.96799994E+01 -0.82305E-07
 0.97299995E+01  0.28119E-06
 0.97799997E+01 -0.54978E-07
 0.98299999E+01 -0.14640E-06
 0.98800001E+01  0.11510E-06
 0.99299994E+01 -0.53106E-07
 0.99799995E+01  0.10629E-06
 0.10030000E+02  0.97855E-08
 0.10080000E+02 -0.11894E-06
 0.10130000E+02  0.55541E-07
 0.10179999E+02 -0.14476E-07
 0.10230000E+02 -0.72879E-08
 0.10280000E+02 -0.76101E-07
 0.10330000E+02 -0.82806E-08
 0.10380000E+02 -0.17835E-07
 0.10429999E+02  0.15271E-07
 0.10480000E+02  0.46815E-07
 0.10530000E+02 -0.10224E-06
 0.10580000E+02  0.68612E-07
 0.10630000E+02  0.77976E-07
 0.10679999E+02 -0.85816E-07
 0.10730000E+02  0.74660E-07
 0.10780000E+02  0.44258E-07
 0.10830000E+02 -0.15427E-06
 0.10880000E+02  0.13984E-06
 0.10929999E+02 -0.65149E-07
 0.10980000E+02 -0.13926E-06
 0.11030000E+02  0.21752E-07
 0.11080000E+02 -0.78860E-07
 0.11130000E+02  0.45580E-07
 0.11179999E+02 -0.41806E-07
 0.11230000E+02 -0.43562E-07
 0.11280000E+02 -0.24929E-06
 0.11330000E+02 -0.85463E-07
 0.11380000E+02  0.17250E-06
 0.11429999E+02  0.18562E-06
 0.11480000E+02  0.66517E-07
 0.11530000E+02 -0.15448E-06
 0.11580000E+02  0.16701E-06
 0.11630000E+02  0.15567E-06
 0.11679999E+02  0.13331E-07
 0.11730000E+02  0.48698E-07
 0.11780000E+02 -0.10283E-06
 0.11830000E+02 -0.75170E-07
 0.11880000E+02 -0.96125E-08
 0.11929999E+02  0.15698E-07
 0.11980000E+02  0.85579E-07
 0.12030000E+02 -0.10009E-06
 0.12080000E+02 -0.78106E-08
 0.12130000E+02 -0.11193E-06
 0.12179999E+02 -0.17250E-06
 0.12230000E+02  0.18807E-06
 0.12280000E+02 -0.11026E-06
 0.12330000E+02 -0.32917E-07
 0.12380000E+02  0.66683E-07
 0.12429999E+02 -0.42309E-07
 0.12480000E+02 -0.77471E-08
 0.12530000E+02 -0.74485E-07
 0.12580000E+02  0.24720E-06
 0.12630000E+02 -0.23129E-07
 0.12679999E+02 -0.58169E-07
 0.12730000E+02  0.20654E-06
 0.12780000E+02 -0.41364E-07
 0.12830000E+02  0.36930E-07
 0.12880000E+02  0.84177E-07
 0.12929999E+02 -0.43881E-07
 0.12980000E+02 -0.46887E-07
 0.13030000E+02 -0.14807E-07
 0.13080000E+02  0.15219E-06
 0.13130000E+02  0.13088E-06
 0.13179999E+02 -0.30950E-06
 0.13230000E+02  0.99799E-07
 0.13280000E+02  0.10083E-06
 0.13330000E+02 -0.29178E-06
 0.13380000E+02  0.13082E-06
 0.13429999E+02 -0.10284E-06
 0.13480000E+02  0.66801E-09
 0.13530000E+02  0.70977E-07
 0.13580000E+02 -0.14985E-06
 0.13630000E+02  0.38534E-08
 0.13679999E+02 -0.82498E-07
 0.13730000E+02 -0.49286E-07
 0.13780000E+02 -0.55062E-09
 0.13830000E+02  0.24998E-08
 0.13880000E+02 -0.14456E-06
 0.13929999E+02  0.15790E-06
 0.13980000E+02  0.28509E-06
 0.14030000E+02 -0.10149E-06
 0.14080000E+02 -0.20167E-07
 0.14130000E+02  0.42762E-07
 0.14179999E+02  0.12345E-06
 0.14230000E+02  0.47114E-07
 0.14280000E+02  0.12567E-06
 0.14330000E+02  0.34259E-07
 0.14380000E+02 -0.15127E-06
 0.14429999E+02  0.23609E-06
 0.14480000E+02  0.39402E-07
 0.14530000E+02 -0.23951E-06
 0.14580000E+02  0.72746E-07
 0.14630000E+02  0.21783E-06
 0.14679999E+02 -0.96155E-07
 0.14730000E+02 -0.18317E-06
 0.14780000E+02  0.94462E-09
 0.14830000E+02  0.13509E-07
 0.14880000E+02 -0.69840E-07
 0.14929999E+02 -0.20522E-06
 0.14980000E+02  0.26836E-07
 0.15030000E+02  0.22285E-06
 0.15080000E+02 -0.23464E-07
 0.15130000E+02 -0.11191E-06
 0.15179999E+02 -0.34708E-07
 0.15230000E+02 -0.34936E-08
 0.15280000E+02 -0.60385E-07
 0.15330000E+02 -0.53028E-07
 0.15380000E+02 -0.47631E-07
 0.15429999E+02 -0.12350E-06
 0.15480000E+02 -0.12236E-07
 0.15530000E+02  0.46580E-07
 0.15580000E+02 -0.24086E-07
 0.15630000E+02 -0.21867E-06
 0.15679999E+02 -0.30270E-07
 0.15730000E+02  0.63949E-07
 0.15780000E+02 -0.18555E-06
 0.15830000E+02  0.12971E-06
 0.15880000E+02 -0.53740E-07
 0.15929999E+02  0.79978E-08
 0.15980000E+02  0.26380E-06
 0.16030001E+02 -0.15673E-08
 0.16080000E+02  0.11087E-06
 0.16129999E+02 -0.15220E-06
 0.16180000E+02 -0.15049E-07
 0.16230000E+02  0.35185E-06
 0.16280001E+02 -0.51866E-07
 0.16330000E+02  0.57447E-07
 0.16379999E+02  0.42972E-06
 0.16430000E+02 -0.18690E-06
 0.16480000E+02 -0.24347E-06
 0.16530001E+02  0.15839E-06
 0.16580000E+02  0.21820E-07
 0.16629999E+02  0.23010E-06
 0.16680000E+02 -0.37972E-07
 0.16730000E+02 -0.32065E-06
 0.16780001E+02  0.28777E-06
 0.16830000E+02  0.10458E-06
 0.16879999E+02 -0.34839E-06
 0.16930000E+02  0.31340E-06
 0.16980000E+02  0.80410E-07
 0.17030001E+02 -0.21196E-06
 0.17080000E+02  0.60018E-07
 0.17129999E+02 -0.98634E-07
 0.17180000E+02  0.13341E-06
 0.17230000E+02  0.65808E-07
 0.17280001E+02 -0.10300E-06
 0.17330000E+02 -0.24835E-06
 0.17379999E+02 -0.15093E-06
 0.17430000E+02  0.19624E-06
 0.17480000E+02  0.13195E-07
 0.17530001E+02 -0.22224E-06
 0.17580000E+02 -0.69699E-07
 0.17629999E+02  0.15708E-06
 0.17680000E+02 -0.82123E-07
 0.17730000E+02 -0.15270E-07
 0.17780001E+02 -0.22098E-07
 0.17830000E+02 -0.29129E-06
 0.17879999E+02  0.32161E-07
 0.17930000E+02  0.18410E-06
 0.17980000E+02 -0.26884E-07
 0.18030001E+02 -0.22331E-06
 0.18080000E+02 -0.82527E-08
 0.18129999E+02  0.11163E-06
 0.18180000E+02 -0.59977E-07
 0.18230000E+02  0.46794E-08
 0.18280001E+02 -0.40572E-07
 0.18330000E+02 -0.16064E-06
 0.18379999E+02 -0.14834E-06
 0.18430000E+02  0.26220E-06
 0.18480000E+02  0.18731E-06
 0.18530001E+02 -0.24820E-06
 0.18580000E+02  0.39535E-07
 0.18629999E+02  0.13734E-06
 0.18680000E+02  0.14168E-06
 0.18730000E+02  0.12513E-06
 0.18780001E+02  0.34430E-07
 0.18830000E+02  0.28544E-06
 0.18879999E+02  0.94443E-07
 0.18930000E+02  0.73293E-08
 0.18980000E+02  0.18722E-06
 0.19030001E+02  0.11168E-06
 0.19080000E+02  0.38748E-07
 0.19129999E+02 -0.22402E-06
 0.19180000E+02  0.83433E-07
 0.19230000E+02  0.22696E-06
 0.19280001E+02 -0.91144E-07
 0.19330000E+02  0.94138E-07
 0.19379999E+02 -0.14991E-06
 0.19430000E+02  0.60183E-08
 0.19480000E+02  0.25167E-07
 0.19530001E+02 -0.31989E-06
 0.19580000E+02  0.18241E-06
 0.19629999E+02 -0.12086E-06
 0.19680000E+02 -0.30765E-06
 0.19730000E+02  0.42119E-07
 0.19780001E+02 -0.63214E-07
 0.19830000E+02 -0.44919E-07
 0.19879999E+02 -0.47084E-07
 0.19930000E+02 -0.19271E-06
 0.19980000E+02 -0.22486E-06
 0.20030001E+02  0.22339E-06
 0.20080000E+02 -0.68893E-07
 0.20129999E+02 -0.27350E-06
 0.20180000E+02  0.19500E-06
 0.20230000E+02 -0.17171E-07
 0.20280001E+02 -0.92579E-07
 0.20330000E+02 -0.13669E-06
 0.20379999E+02  0.63254E-07
 0.20430000E+02  0.17526E-06
 0.20480000E+02 -0.55849E-07
 0.20530001E+02 -0.14354E-08
 0.20580000E+02 -0.11683E-06
 0.20629999E+02  0.31029E-07
 0.20680000E+02  0.15679E-06
 0.20730000E+02 -0.95858E-07
 0.20780001E+02 -0.17340E-06
 0.20830000E+02  0.12503E-06
 0.20879999E+02  0.16394E-06
 0.20930000E+02 -0.34759E-07
 0.20980000E+02  0.17602E-06
 0.21030001E+02  0.17531E-06
 0.21080000E+02 -0.58870E-07
 0.21129999E+02 -0.41592E-07
 0.21180000E+02  0.18650E-06
 0.21230000E+02  0.44053E-07
 0.21280001E+02  0.16798E-07
 0.21330000E+02  0.28047E-06
 0.21379999E+02  0.28758E-07
 0.21430000E+02 -0.67746E-07
 0.21480000E+02 -0.18348E-06
 0.21530001E+02  0.14865E-07
 0.21580000E+02  0.17510E-06
 0.21629999E+02 -0.24511E-06
 0.21680000E+02  0.64126E-07
 0.21730000E+02  0.44427E-07
 0.21780001E+02 -0.89950E-07
 0.21830000E+02  0.23376E-06
 0.21879999E+02 -0.30356E-06
 0.21930000E+02 -0.84263E-06
 0.21980000E+02 -0.20255E-05
 0.22030001E+02 -0.48074E-05
 0.22080000E+02 -0.93412E-05
 0.22129999E+02 -0.16009E-04
 0.22180000E+02 -0.23279E-04
 0.22230000E+02 -0.30163E-04
 0.22280001E+02 -0.35421E-04
 0.22330000E+02 -0.36096E-04
 0.22379999E+02 -0.26759E-04
 0.22430000E+02 -0.69275E-05
 0.22480000E+02  0.19995E-04
 0.22530001E+02  0.50452E-04
 0.22580000E+02  0.78518E-04
 0.22629999E+02  0.10248E-03
 0.22680000E+02  0.11144E-03
 0.22730000E+02  0.92898E-04
 0.22780001E+02  0.48498E-04
 0.22830000E+02 -0.81747E-05
 0.22879999E+02 -0.58932E-04
 0.22930000E+02 -0.97433E-04
 0.22980000E+02 -0.10529E-03
 0.23030001E+02 -0.79880E-04
 0.23080000E+02 -0.52726E-04
 0.23129999E+02 -0.20674E-04
 0.23180000E+02  0.29722E-04
 0.23230000E+02  0.62911E-04
 0.23280001E+02  0.67725E-04
 0.23330000E+02  0.66484E-04
 0.23379999E+02  0.51558E-04
 0.23430000E+02  0.31519E-04
 0.23480000E+02 -0.11622E-04
 0.23530001E+02 -0.52751E-04
 0.23580000E+02 -0.45642E-04
 0.23629999E+02 -0.66264E-04
 0.23680000E+02 -0.85780E-04
 0.23730000E+02 -0.58074E-04
 0.23780001E+02 -0.50349E-04
 0.23830000E+02 -0.38073E-04
 0.23879999E+02 -0.13651E-05
 0.23930000E+02  0.32820E-04
 0.23980000E+02  0.61340E-04
 0.24030001E+02  0.67976E-04
 0.24080000E+02  0.45533E-04
 0.24129999E+02  0.21510E-04
 0.24180000E+02  0.68482E-05
 0.24230000E+02 -0.13939E-04
 0.24280001E+02 -0.69314E-05
 0.24330000E+02  0.57266E-05
 0.24379999E+02  0.41699E-05
 0.24430000E+02  0.28784E-04
 0.24480000E+02  0.39340E-04
 0.24530001E+02  0.21436E-04
 0.24580000E+02 -0.17769E-04
 0.24629999E+02 -0.58669E-04
 0.24680000E+02 -0.67211E-04
 0.24730000E+02 -0.49103E-04
 0.24780001E+02 -0.21826E-04
 0.24830000E+02 -0.15649E-04
 0.24879999E+02  0.14205E-04
 0.24930000E+02  0.82512E-04
 0.24980000E+02  0.96633E-04
 0.25030001E+02  0.62878E-04
 0.25080000E+02  0.34576E-04
 0.25129999E+02 -0.83491E-05
 0.25180000E+02 -0.39163E-04
 0.25230000E+02 -0.63663E-04
 0.25280001E+02 -0.73522E-04
 0.25330000E+02 -0.35740E-04
 0.25379999E+02 -0.38281E-04
 0.25430000E+02 -0.47084E-04
 0.25480000E+02 -0.11712E-04
 0.25530001E+02 -0.85757E-05
 0.25580000E+02 -0.28908E-04
 0.25629999E+02  0.27413E-05
 0.25680000E+02  0.56833E-04
 0.25730000E+02  0.62927E-04
 0.25780001E+02  0.59422E-04
 0.25830000E+02  0.62690E-04
 0.25879999E+02  0.68779E-04
 0.25930000E+02  0.44984E-04
 0.25980000E+02  0.26965E-05
 0.26030001E+02 -0.18361E-04
 0.26080000E+02 -0.61723E-04
 0.26129999E+02 -0.54247E-04
 0.26180000E+02 -0.52984E-06
 0.26230000E+02  0.15986E-04
 0.26280001E+02  0.32659E-04
 0.26330000E+02  0.58744E-04
 0.26379999E+02  0.52509E-04
 0.26430000E+02  0.71709E-05
 0.26480000E+02 -0.37857E-04
 0.26530001E+02 -0.74499E-04
 0.26580000E+02 -0.96794E-04
 0.26629999E+02 -0.13520E-03
 0.26680000E+02 -0.18260E-03
 0.26730000E+02 -0.13566E-03
 0.26780001E+02 -0.18949E-04
 0.26830000E+02  0.92682E-04
 0.26879999E+02  0.18020E-03
 0.26930000E+02  0.20485E-03
 0.26980000E+02  0.16308E-03
 0.27030001E+02  0.98191E-04
 0.27080000E+02  0.73488E-05
 0.27129999E+02 -0.86831E-04
 0.27180000E+02 -0.11305E-03
 0.27230000E+02 -0.92037E-04
 0.27280001E+02 -0.55278E-04
 0.27330000E+02 -0.28630E-04
 0.27379999E+02 -0.11233E-04
 0.27430000E+02  0.21879E-04
 0.27480000E+02  0.49708E-04
 0.27530001E+02  0.70511E-04
 0.27580000E+02  0.48707E-04
 0.27629999E+02  0.41827E-05
 0.27680000E+02 -0.14504E-04
 0.27730000E+02 -0.52197E-05
 0.27780001E+02  0.50056E-04
 0.27830000E+02  0.78802E-04
 0.27879999E+02  0.42960E-04
 0.27930000E+02  0.18891E-04
 0.27980000E+02 -0.47955E-05
 0.28030001E+02 -0.66193E-04
 0.28080000E+02 -0.10711E-03
 0.28129999E+02 -0.12188E-03
 0.28180000E+02 -0.11459E-03
 0.28230000E+02 -0.79153E-04
 0.28280001E+02 -0.49769E-04
 0.28330000E+02 -0.13223E-04
 0.28379999E+02  0.26489E-04
 0.28430000E+02  0.87048E-04
 0.28480000E+02  0.11759E-03
 0.28530001E+02  0.87749E-04
 0.28580000E+02  0.49483E-04
 0.28629999E+02  0.19743E-04
 0.28680000E+02  0.31521E-04
 0.28730000E+02  0.17651E-04
 0.28780001E+02  0.66195E-05
 0.28830000E+02  0.15157E-04
 0.28879999E+02 -0.23999E-04
 0.28930000E+02 -0.24551E-04
 0.28980000E+02 -0.23332E-04
 0.29030001E+02 -0.70878E-04
 0.29080000E+02 -0.78691E-04
 0.29129999E+02 -0.58981E-04
 0.29180000E+02 -0.54284E-04
 0.29230000E+02 -0.29227E-04
 0.29280001E+02  0.24203E-05
 0.29330000E+02  0.44618E-04
 0.29379999E+02  0.11175E-03
 0.29430000E+02  0.10846E-03
 0.29480000E+02  0.67756E-04
 0.29530001E+02  0.44536E-04
 0.29580000E+02  0.12861E-04
 0.29629999E+02 -0.17759E-04
 0.29680000E+02 -0.68495E-04
 0.29730000E+02 -0.85197E-04
 0.29780001E+02 -0.39530E-04
 0.29830000E+02 -0.15935E-04
 0.29879999E+02 -0.22301E-04
 0.29930000E+02 -0.47010E-05
 0.29980000E+02  0.52181E-04
 0.30030001E+02  0.75669E-04
 0.30080000E+02  0.52604E-04
 0.30129999E+02  0.58350E-04
 0.30180000E+02  0.10265E-04
 0.30230000E+02 -0.47587E-04
 0.30280001E+02 -0.25600E-04
 0.30330000E+02 -0.55270E-04
 0.30379999E+02 -0.69070E-04
 0.30430000E+02 -0.42877E-04
 0.30480000E+02 -0.62621E-04
 0.30530001E+02 -0.93896E-05
 0.30580000E+02  0.61832E-04
 0.30629999E+02  0.66182E-04
 0.30680000E+02  0.51888E-04
 0.30730000E+02  0.23958E-04
 0.30780001E+02  0.63888E-05
 0.30830000E+02 -0.20287E-04
 0.30879999E+02 -0.11199E-04
 0.30930000E+02 -0.16335E-05
 0.30980000E+02 -0.31586E-04
 0.31030001E+02 -0.25056E-04
 0.31080000E+02 -0.40174E-04
 0.31129999E+02 -0.71319E-04
 0.31180000E+02 -0.61411E-04
 0.31230000E+02 -0.17187E-04
 0.31280001E+02 -0.72135E-05
 0.31330000E+02 -0.25886E-04
 0.31379999E+02  0.22610E-04
 0.31430000E+02  0.60983E-04
 0.31480000E+02  0.82056E-04
 0.31530001E+02  0.10222E-03
 0.31580000E+02  0.69639E-04
 0.31629999E+02  0.75845E-04
 0.31680000E+02  0.77173E-04
 0.31730000E+02  0.22179E-04
 0.31780001E+02 -0.22427E-04
 0.31830000E+02 -0.47774E-04
 0.31879999E+02 -0.47813E-04
 0.31930000E+02 -0.87520E-04
 0.31980000E+02 -0.11705E-03
 0.32029999E+02 -0.65738E-04
 0.32080002E+02 -0.18995E-04
 0.32130001E+02 -0.45155E-05
 0.32180000E+02  0.14104E-04
 0.32230000E+02  0.52256E-04
 0.32279999E+02  0.59093E-04
 0.32330002E+02  0.33292E-04
 0.32380001E+02  0.25995E-04
 0.32430000E+02  0.13792E-04
 0.32480000E+02 -0.77669E-05
 0.32529999E+02 -0.49346E-05
 0.32580002E+02 -0.66437E-05
 0.32630001E+02 -0.25138E-04
 0.32680000E+02 -0.18650E-04
 0.32730000E+02  0.64164E-06
 0.32779999E+02 -0.59579E-05
 0.32830002E+02 -0.36919E-04
 0.32880001E+02 -0.47211E-04
 0.32930000E+02 -0.12136E-04
 0.32980000E+02  0.36728E-04
 0.33029999E+02  0.68033E-04
 0.33080002E+02  0.51610E-04
 0.33130001E+02  0.26387E-04
 0.33180000E+02  0.21749E-04
 0.33230000E+02  0.88689E-05
 0.33279999E+02  0.84278E-05
 0.33330002E+02 -0.47598E-05
 0.33380001E+02 -0.21439E-05
 0.33430000E+02  0.17361E-05
 0.33480000E+02 -0.45861E-04
 0.33529999E+02 -0.68168E-04
 0.33580002E+02 -0.65087E-04
 0.33630001E+02 -0.25032E-04
 0.33680000E+02  0.84389E-05
 0.33730000E+02 -0.17210E-04
 0.33779999E+02 -0.16203E-04
 0.33830002E+02  0.35039E-05
 0.33880001E+02  0.38263E-04
 0.33930000E+02  0.76712E-04
 0.33980000E+02  0.49978E-04
 0.34029999E+02  0.22110E-04
 0.34080002E+02  0.78891E-05
 0.34130001E+02 -0.25690E-04
 0.34180000E+02 -0.52258E-04
 0.34230000E+02 -0.68990E-04
 0.34279999E+02 -0.50687E-04
 0.34330002E+02 -0.25195E-04
 0.34380001E+02  0.13559E-05
 0.34430000E+02  0.10965E-04
 0.34480000E+02 -0.37468E-05
 0.34529999E+02  0.20397E-04
 0.34580002E+02  0.68147E-04
 0.34630001E+02  0.10258E-03
 0.34680000E+02  0.83092E-04
 0.34730000E+02  0.47679E-04
 0.34779999E+02  0.21721E-04
 0.34830002E+02 -0.81283E-05
 0.34880001E+02 -0.19482E-04
 0.34930000E+02 -0.46491E-04
 0.34980000E+02 -0.59155E-04
 0.35029999E+02 -0.26562E-04
 0.35080002E+02 -0.17555E-04
 0.35130001E+02 -0.33822E-04
 0.35180000E+02 -0.26529E-04
 0.35230000E+02 -0.18452E-04
 0.35279999E+02  0.12889E-04
 0.35330002E+02  0.35785E-04
 0.35380001E+02 -0.37782E-04
 0.35430000E+02 -0.74586E-04
 0.35480000E+02 -0.27092E-04
 0.35529999E+02  0.14644E-04
 0.35580002E+02  0.53247E-04
 0.35630001E+02  0.59446E-04
 0.35680000E+02  0.49782E-04
 0.35730000E+02  0.34126E-04
 0.35779999E+02 -0.23085E-06
 0.35830002E+02 -0.30911E-05
 0.35880001E+02 -0.86478E-05
 0.35930000E+02 -0.49488E-04
 0.35980000E+02 -0.49383E-04
 0.36029999E+02 -0.24833E-04
 0.36080002E+02 -0.39785E-04
 0.36130001E+02 -0.26970E-04
 0.36180000E+02  0.18539E-04
 0.36230000E+02  0.54544E-04
 0.36279999E+02  0.63255E-04
 0.36330002E+02  0.29306E-04
 0.36380001E+02  0.21345E-04
 0.36430000E+02  0.38179E-04
 0.36480000E+02  0.24174E-04
 0.36529999E+02 -0.21448E-04
 0.36580002E+02 -0.52128E-04
 0.36630001E+02 -0.38113E-04
 0.36680000E+02 -0.63218E-05
 0.36730000E+02  0.31228E-04
 0.36779999E+02  0.49621E-04
 0.36830002E+02  0.32475E-04
 0.36880001E+02 -0.10835E-04
 0.36930000E+02 -0.42305E-04
 0.36980000E+02 -0.33224E-04
 0.37029999E+02 -0.11416E-04
 0.37080002E+02 -0.49632E-05
 0.37130001E+02 -0.96755E-05
 0.37180000E+02 -0.43887E-05
 0.37230000E+02  0.65158E-05
 0.37279999E+02  0.14699E-04
 0.37330002E+02 -0.13793E-04
 0.37380001E+02 -0.42895E-04
 0.37430000E+02 -0.29385E-04
 0.37480000E+02 -0.27482E-04
 0.37529999E+02 -0.93945E-05
 0.37580002E+02  0.58980E-05
 0.37630001E+02 -0.15695E-05
 0.37680000E+02  0.46626E-06
 0.37730000E+02  0.58240E-05
 0.37779999E+02  0.26371E-04
 0.37830002E+02  0.15044E-04
 0.37880001E+02  0.21509E-04
 0.37930000E+02  0.48207E-04
 0.37980000E+02  0.14053E-04
 0.38029999E+02 -0.20344E-05
 0.38080002E+02  0.13381E-04
 0.38130001E+02  0.21608E-04
 0.38180000E+02  0.88270E-05
 0.38230000E+02 -0.25322E-04
 0.38279999E+02 -0.40000E-04
 0.38330002E+02 -0.46154E-04
 0.38380001E+02 -0.39349E-04
 0.38430000E+02 -0.51306E-04
 0.38480000E+02 -0.12092E-03
 0.38529999E+02 -0.12848E-03
 0.38580002E+02 -0.75624E-04
 0.38630001E+02 -0.42327E-04
 0.38680000E+02  0.81241E-05
 0.38730000E+02  0.31858E-04
 0.38779999E+02  0.73829E-04
 0.38830002E+02  0.15838E-03
 0.38880001E+02  0.17768E-03
 0.38930000E+02  0.16588E-03
 0.38980000E+02  0.14170E-03
 0.39029999E+02  0.12244E-03
 0.39080002E+02  0.13626E-03
 0.39130001E+02  0.16480E-03
 0.39180000E+02  0.15124E-03
 0.39230000E+02  0.67387E-05
 0.39279999E+02 -0.15914E-03
 0.39330002E+02 -0.31153E-03
 0.39380001E+02 -0.45731E-03
 0.39430000E+02 -0.49355E-03
 0.39480000E+02 -0.41132E-03
 0.39529999E+02 -0.19018E-03
 0.39580002E+02  0.53849E-04
 0.39630001E+02  0.25200E-03
 0.39680000E+02  0.44985E-03
 0.39730000E+02  0.57020E-03
 0.39779999E+02  0.53365E-03
 0.39830002E+02  0.36511E-03
 0.39880001E+02  0.18361E-03
 0.39930000E+02  0.24021E-04
 0.39980000E+02 -0.65754E-04
 0.40029999E+02 -0.12436E-03
 0.40080002E+02 -0.25262E-03
 0.40130001E+02 -0.37335E-03
 0.40180000E+02 -0.41553E-03
 0.40230000E+02 -0.37751E-03
 0.40279999E+02 -0.22903E-03
 0.40330002E+02  0.30783E-04
 0.40380001E+02  0.21426E-03
 0.40430000E+02  0.25939E-03
 0.40480000E+02  0.22791E-03
 0.40529999E+02  0.13404E-03
 0.40580002E+02  0.32932E-04
 0.40630001E+02 -0.11707E-03
 0.40680000E+02 -0.26281E-03
 0.40730000E+02 -0.34370E-03
 0.40779999E+02 -0.34695E-03
 0.40830002E+02 -0.19110E-03
 0.40880001E+02  0.52955E-04
 0.40930000E+02  0.30040E-03
 0.40980000E+02  0.42292E-03
 0.41029999E+02  0.34776E-03
 0.41080002E+02  0.22280E-03
 0.41130001E+02  0.12075E-03
 0.41180000E+02  0.11851E-03
 0.41230000E+02  0.84203E-04
 0.41279999E+02 -0.75206E-04
 0.41330002E+02 -0.17413E-03
 0.41380001E+02 -0.24460E-03
 0.41430000E+02 -0.26111E-03
 0.41480000E+02 -0.22326E-03
 0.41529999E+02 -0.13155E-03
 0.41580002E+02  0.20701E-04
 0.41630001E+02  0.54061E-04
 0.41680000E+02  0.31802E-04
 0.41730000E+02  0.43046E-04
 0.41779999E+02  0.83290E-04
 0.41830002E+02  0.62591E-04
 0.41880001E+02 -0.63716E-04
 0.41930000E+02 -0.10404E-03
 0.41980000E+02  0.48980E-05
 0.42029999E+02  0.18614E-03
 0.42080002E+02  0.22273E-03
 0.42130001E+02  0.91545E-04
 0.42180000E+02 -0.20971E-04
 0.42230000E+02 -0.14851E-03
 0.42279999E+02 -0.24263E-03
 0.42330002E+02 -0.17765E-03
 0.42380001E+02 -0.12609E-04
 0.42430000E+02  0.69297E-04
 0.42480000E+02  0.89199E-04
 0.42529999E+02  0.76584E-04
 0.42580002E+02 -0.15133E-04
 0.42630001E+02 -0.22260E-04
 0.42680000E+02  0.41565E-04
 0.42730000E+02  0.49868E-04
 0.42779999E+02 -0.71040E-04
 0.42830002E+02 -0.19212E-03
 0.42880001E+02 -0.90105E-04
 0.42930000E+02  0.14174E-03
 0.42980000E+02  0.26198E-03
 0.43029999E+02  0.20840E-03
 0.43080002E+02  0.15581E-03
 0.43130001E+02  0.15723E-03
 0.43180000E+02  0.19197E-03
 0.43230000E+02  0.98243E-04
 0.43279999E+02 -0.13268E-03
 0.43330002E+02 -0.29900E-03
 0.43380001E+02 -0.33554E-03
 0.43430000E+02 -0.21010E-03
 0.43480000E+02 -0.10852E-03
 0.43529999E+02  0.34083E-05
 0.43580002E+02  0.13967E-03
 0.43630001E+02  0.19217E-03
 0.43680000E+02  0.20762E-03
 0.43730000E+02  0.13978E-03
 0.43779999E+02  0.14581E-04
 0.43830002E+02 -0.10419E-03
 0.43880001E+02 -0.13776E-03
 0.43930000E+02 -0.16523E-03
 0.43980000E+02 -0.16973E-03
 0.44029999E+02 -0.12683E-03
 0.44080002E+02 -0.79967E-04
 0.44130001E+02  0.82600E-04
 0.44180000E+02  0.10558E-03
 0.44230000E+02 -0.36223E-04
 0.44279999E+02 -0.75072E-04
 0.44330002E+02 -0.44342E-04
 0.44380001E+02  0.13201E-03
 0.44430000E+02  0.30167E-03
 0.44480000E+02  0.15119E-03
 0.44529999E+02 -0.48478E-04
 0.44580002E+02 -0.33957E-04
 0.44630001E+02  0.45837E-04
 0.44680000E+02  0.94759E-04
 0.44730000E+02  0.89283E-04
 0.44779999E+02  0.54904E-04
 0.44830002E+02  0.45242E-04
 0.44880001E+02  0.42927E-04
 0.44930000E+02 -0.75668E-05
 0.44980000E+02 -0.12259E-03
 0.45029999E+02 -0.24574E-03
 0.45080002E+02 -0.36030E-03
 0.45130001E+02 -0.34736E-03
 0.45180000E+02 -0.18483E-03
 0.45230000E+02 -0.45577E-04
 0.45279999E+02  0.78027E-04
 0.45330002E+02  0.16083E-03
 0.45380001E+02  0.17319E-03
 0.45430000E+02  0.14470E-03
 0.45480000E+02  0.16451E-03
 0.45529999E+02  0.18922E-03
 0.45580002E+02  0.48615E-04
 0.45630001E+02 -0.25870E-05
 0.45680000E+02  0.36518E-04
 0.45730000E+02 -0.75116E-04
 0.45779999E+02 -0.22862E-03
 0.45830002E+02 -0.30336E-03
 0.45880001E+02 -0.24812E-03
 0.45930000E+02 -0.11075E-03
 0.45980000E+02 -0.33851E-05
 0.46029999E+02  0.97495E-04
 0.46080002E+02  0.25737E-03
 0.46130001E+02  0.34567E-03
 0.46180000E+02  0.30587E-03
 0.46230000E+02  0.19505E-03
 0.46279999E+02  0.52150E-04
 0.46330002E+02  0.18445E-04
 0.46380001E+02  0.49581E-04
 0.46430000E+02  0.26945E-04
 0.46480000E+02 -0.44672E-04
 0.46529999E+02 -0.19788E-03
 0.46580002E+02 -0.29190E-03
 0.46630001E+02 -0.25063E-03
 0.46680000E+02 -0.21695E-03
 0.46730000E+02 -0.87527E-04
 0.46779999E+02  0.11685E-03
 0.46830002E+02  0.23749E-03
 0.46880001E+02  0.28729E-03
 0.46930000E+02  0.16738E-03
 0.46980000E+02 -0.29844E-05
 0.47029999E+02 -0.25400E-04
 0.47080002E+02 -0.48060E-04
 0.47130001E+02 -0.12118E-03
 0.47180000E+02 -0.12548E-03
 0.47230000E+02 -0.13457E-03
 0.47279999E+02 -0.78082E-04
 0.47330002E+02  0.91221E-04
 0.47380001E+02  0.11242E-03
 0.47430000E+02  0.16034E-04
 0.47480000E+02 -0.10736E-03
 0.47529999E+02 -0.15073E-03
 0.47580002E+02 -0.32290E-04
 0.47630001E+02  0.75479E-04
 0.47680000E+02  0.12934E-03
 0.47730000E+02  0.16010E-03
 0.47779999E+02  0.20090E-03
 0.47830002E+02  0.18308E-03
 0.47880001E+02  0.87613E-04
 0.47930000E+02 -0.31869E-04
 0.47980000E+02 -0.99391E-04
 0.48029999E+02 -0.56091E-04
 0.48080002E+02 -0.12294E-03
 0.48130001E+02 -0.25006E-03
 0.48180000E+02 -0.24335E-03
 0.48230000E+02 -0.89441E-04
 0.48279999E+02  0.15812E-03
 0.48330002E+02  0.31597E-03
 0.48380001E+02  0.35011E-03
 0.48430000E+02  0.23131E-03
 0.48480000E+02  0.47720E-04
 0.48529999E+02 -0.10640E-03
 0.48580002E+02 -0.26442E-03
 0.48630001E+02 -0.32527E-03
 0.48680000E+02 -0.32929E-03
 0.48730000E+02 -0.26505E-03
 0.48779999E+02 -0.13629E-03
 0.48830002E+02 -0.14197E-04
 0.48880001E+02  0.79996E-04
 0.48930000E+02  0.29678E-04
 0.48980000E+02 -0.40114E-04
 0.49029999E+02 -0.34466E-06
 0.49080002E+02  0.14774E-04
 0.49130001E+02  0.10185E-04
 0.49180000E+02  0.66481E-04
 0.49230000E+02  0.15922E-03
 0.49279999E+02  0.25131E-03
 0.49330002E+02  0.29253E-03
 0.49380001E+02  0.28708E-03
 0.49430000E+02  0.24077E-03
 0.49480000E+02  0.18195E-03
 0.49529999E+02  0.10005E-03
 0.49580002E+02 -0.76948E-04
 0.49630001E+02 -0.24102E-03
 0.49680000E+02 -0.33882E-03
 0.49730000E+02 -0.36525E-03
 0.49779999E+02 -0.25631E-03
 0.49830002E+02 -0.30988E-04
 0.49880001E+02  0.15282E-03
 0.49930000E+02  0.15105E-03
 0.49980000E+02  0.81693E-04
 0.50029999E+02 -0.82316E-05
 0.50080002E+02 -0.68498E-04
 0.50130001E+02 -0.58945E-04
 0.50180000E+02 -0.84541E-04
 0.50230000E+02 -0.84938E-04
 0.50279999E+02 -0.12283E-04
 0.50330002E+02  0.12650E-03
 0.50380001E+02  0.19939E-03
 0.50430000E+02  0.15772E-03
 0.50480000E+02  0.95460E-04
 0.50529999E+02 -0.35876E-05
 0.50580002E+02 -0.56949E-04
 0.50630001E+02 -0.77844E-04
 0.50680000E+02 -0.12134E-03
 0.50730000E+02 -0.11726E-03
 0.50779999E+02 -0.91250E-04
 0.50830002E+02 -0.11069E-03
 0.50880001E+02 -0.12491E-03
 0.50930000E+02 -0.98139E-04
 0.50980000E+02 -0.63700E-04
 0.51029999E+02  0.12202E-04
 0.51080002E+02  0.11365E-03
 0.51130001E+02  0.23926E-03
 0.51180000E+02  0.39271E-03
 0.51230000E+02  0.43893E-03
 0.51279999E+02  0.32529E-03
 0.51330002E+02  0.76740E-04
 0.51380001E+02 -0.21296E-03
 0.51430000E+02 -0.40031E-03
 0.51480000E+02 -0.48215E-03
 0.51529999E+02 -0.41689E-03
 0.51580002E+02 -0.20676E-03
 0.51630001E+02 -0.19660E-04
 0.51680000E+02  0.10086E-03
 0.51730000E+02  0.20265E-03
 0.51779999E+02  0.27076E-03
 0.51830002E+02  0.30186E-03
 0.51880001E+02  0.26627E-03
 0.51930000E+02  0.14767E-03
 0.51980000E+02  0.42706E-04
 0.52029999E+02 -0.61811E-04
 0.52080002E+02 -0.19879E-03
 0.52130001E+02 -0.26666E-03
 0.52180000E+02 -0.24965E-03
 0.52230000E+02 -0.16841E-03
 0.52279999E+02 -0.23919E-04
 0.52330002E+02  0.11905E-03
 0.52380001E+02  0.14192E-03
 0.52430000E+02  0.49355E-04
 0.52480000E+02 -0.55153E-04
 0.52529999E+02 -0.12234E-03
 0.52580002E+02 -0.54108E-04
 0.52630001E+02  0.68624E-04
 0.52680000E+02  0.72753E-04
 0.52730000E+02 -0.61178E-07
 0.52779999E+02 -0.74738E-04
 0.52830002E+02 -0.12915E-03
 0.52880001E+02 -0.14721E-03
 0.52930000E+02 -0.92089E-04
 0.52980000E+02 -0.16738E-04
 0.53029999E+02  0.20966E-04
 0.53080002E+02  0.61841E-04
 0.53130001E+02  0.11039E-03
 0.53180000E+02  0.13268E-03
 0.53230000E+02  0.16368E-03
 0.53279999E+02  0.22652E-03
 0.53330002E+02  0.23368E-03
 0.53380001E+02  0.17821E-03
 0.53430000E+02  0.10832E-03
 0.53480000E+02  0.46288E-04
 0.53529999E+02  0.25191E-04
 0.53580002E+02 -0.10167E-04
 0.53630001E+02 -0.12645E-03
 0.53680000E+02 -0.22000E-03
 0.53730000E+02 -0.24347E-03
 0.53779999E+02 -0.25818E-03
 0.53830002E+02 -0.20814E-03
 0.53880001E+02 -0.12778E-03
 0.53930000E+02 -0.71834E-04
 0.53980000E+02  0.14734E-04
 0.54029999E+02  0.11911E-03
 0.54080002E+02  0.22966E-03
 0.54130001E+02  0.30736E-03
 0.54180000E+02  0.27249E-03
 0.54230000E+02  0.12890E-03
 0.54279999E+02 -0.67286E-04
 0.54330002E+02 -0.21883E-03
 0.54380001E+02 -0.26937E-03
 0.54430000E+02 -0.25799E-03
 0.54480000E+02 -0.21597E-03
 0.54529999E+02 -0.12763E-03
 0.54580002E+02 -0.22161E-04
 0.54630001E+02  0.36980E-04
 0.54680000E+02  0.11972E-03
 0.54730000E+02  0.23572E-03
 0.54779999E+02  0.27632E-03
 0.54830002E+02  0.24425E-03
 0.54880001E+02  0.18483E-03
 0.54930000E+02  0.91582E-04
 0.54980000E+02 -0.16905E-04
 0.55029999E+02 -0.78844E-04
 0.55080002E+02 -0.10867E-03
 0.55130001E+02 -0.94605E-04
 0.55180000E+02 -0.38973E-04
 0.55230000E+02 -0.25197E-04
 0.55279999E+02 -0.60707E-04
 0.55330002E+02 -0.10770E-03
 0.55380001E+02 -0.12628E-03
 0.55430000E+02 -0.13617E-03
 0.55480000E+02 -0.12428E-03
 0.55529999E+02 -0.59171E-04
 0.55580002E+02  0.22862E-04
 0.55630001E+02  0.11100E-03
 0.55680000E+02  0.13553E-03
 0.55730000E+02  0.11406E-03
 0.55779999E+02  0.94980E-04
 0.55830002E+02  0.31476E-04
 0.55880001E+02 -0.31221E-04
 0.55930000E+02 -0.85172E-04
 0.55980000E+02 -0.13131E-03
 0.56029999E+02 -0.11803E-03
 0.56080002E+02 -0.39353E-04
 0.56130001E+02  0.44898E-04
 0.56180000E+02  0.92941E-04
 0.56230000E+02  0.12214E-03
 0.56279999E+02  0.11618E-03
 0.56330002E+02  0.99044E-04
 0.56380001E+02  0.81541E-04
 0.56430000E+02  0.36268E-04
 0.56480000E+02 -0.13939E-05
 0.56529999E+02  0.11323E-04
 0.56580002E+02  0.36298E-04
 0.56630001E+02  0.18261E-05
 0.56680000E+02 -0.83311E-04
 0.56730000E+02 -0.15989E-03
 0.56779999E+02 -0.16860E-03
 0.56830002E+02 -0.98658E-04
 0.56880001E+02 -0.94932E-05
 0.56930000E+02  0.58128E-04
 0.56980000E+02  0.95578E-04
 0.57029999E+02  0.88618E-04
 0.57080002E+02  0.50986E-04
 0.57130001E+02  0.11671E-04
 0.57180000E+02 -0.21756E-04
 0.57230000E+02 -0.43096E-04
 0.57279999E+02 -0.48069E-04
 0.57330002E+02 -0.71767E-04
 0.57380001E+02 -0.97167E-04
 0.57430000E+02 -0.68994E-04
 0.57480000E+02 -0.18332E-04
 0.57529999E+02  0.38451E-04
 0.57580002E+02  0.76990E-04
 0.57630001E+02  0.58407E-04
 0.57680000E+02  0.22466E-05
 0.57730000E+02 -0.29629E-04
 0.57779999E+02 -0.18023E-05
 0.57830002E+02  0.33202E-04
 0.57880001E+02  0.57097E-04
 0.57930000E+02  0.71617E-04
 0.57980000E+02  0.80410E-04
 0.58029999E+02  0.98135E-04
 0.58080002E+02  0.94632E-04
 0.58130001E+02  0.34138E-04
 0.58180000E+02 -0.34591E-04
 0.58230000E+02 -0.51921E-04
 0.58279999E+02 -0.94593E-04
 0.58330002E+02 -0.17260E-03
 0.58380001E+02 -0.19007E-03
 0.58430000E+02 -0.13884E-03
 0.58480000E+02 -0.61679E-04
 0.58529999E+02  0.17672E-04
 0.58580002E+02  0.94481E-04
 0.58630001E+02  0.15000E-03
 0.58680000E+02  0.15784E-03
 0.58730000E+02  0.13111E-03
 0.58779999E+02  0.88857E-04
 0.58830002E+02  0.27933E-04
 0.58880001E+02 -0.22748E-04
 0.58930000E+02 -0.49725E-04
 0.58980000E+02 -0.67033E-04
 0.59029999E+02 -0.52652E-04
 0.59080002E+02 -0.37042E-04
 0.59130001E+02 -0.46404E-04
 0.59180000E+02 -0.44611E-04
 0.59230000E+02 -0.27850E-04
 0.59279999E+02 -0.25627E-04
 0.59330002E+02 -0.39281E-04
 0.59380001E+02 -0.12235E-04
 0.59430000E+02  0.42231E-04
 0.59480000E+02  0.91655E-04
 0.59529999E+02  0.12685E-03
 0.59580002E+02  0.94957E-04
 0.59630001E+02  0.25884E-04
 0.59680000E+02 -0.11906E-04
 0.59730000E+02 -0.42795E-04
 0.59779999E+02 -0.10272E-03
 0.59830002E+02 -0.14455E-03
 0.59880001E+02 -0.15142E-03
 0.59930000E+02 -0.12788E-03
 0.59980000E+02 -0.52016E-04
 0.60029999E+02  0.43761E-04
 0.60080002E+02  0.11941E-03
 0.60130001E+02  0.15816E-03
 0.60180000E+02  0.17084E-03
 0.60230000E+02  0.13644E-03
 0.60279999E+02  0.50212E-04
 0.60330002E+02 -0.22498E-04
 0.60380001E+02 -0.76485E-04
 0.60430000E+02 -0.12676E-03
 0.60480000E+02 -0.15074E-03
 0.60529999E+02 -0.13191E-03
 0.60580002E+02 -0.96715E-04
 0.60630001E+02 -0.54152E-04
 0.60680000E+02  0.14702E-04
 0.60730000E+02  0.71428E-04
 0.60779999E+02  0.10554E-03
 0.60830002E+02  0.14028E-03
 0.60880001E+02  0.16618E-03
 0.60930000E+02  0.16516E-03
 0.60980000E+02  0.12469E-03
 0.61029999E+02  0.51957E-04
 0.61080002E+02 -0.24823E-04
 0.61130001E+02 -0.93104E-04
 0.61180000E+02 -0.14958E-03
 0.61230000E+02 -0.16551E-03
 0.61279999E+02 -0.13694E-03
 0.61330002E+02 -0.67650E-04
 0.61380001E+02  0.31934E-04
 0.61430000E+02  0.10955E-03
 0.61480000E+02  0.13864E-03
 0.61529999E+02  0.12361E-03
 0.61580002E+02  0.53472E-04
 0.61630001E+02 -0.51408E-04
 0.61680000E+02 -0.13147E-03
 0.61730000E+02 -0.17095E-03
 0.61779999E+02 -0.16177E-03
 0.61830002E+02 -0.10103E-03
 0.61880001E+02 -0.59272E-04
 0.61930000E+02 -0.76025E-04
 0.61980000E+02 -0.87567E-04
 0.62029999E+02 -0.45632E-04
 0.62080002E+02  0.22793E-04
 0.62130001E+02  0.10225E-03
 0.62180000E+02  0.19419E-03
 0.62230000E+02  0.27209E-03
 0.62279999E+02  0.30887E-03
 0.62330002E+02  0.27786E-03
 0.62380001E+02  0.17367E-03
 0.62430000E+02  0.36416E-04
 0.62480000E+02 -0.92370E-04
 0.62529999E+02 -0.18799E-03
 0.62580002E+02 -0.23052E-03
 0.62630001E+02 -0.20569E-03
 0.62680000E+02 -0.12466E-03
 0.62730000E+02 -0.39401E-04
 0.62779999E+02  0.13339E-04
 0.62830002E+02  0.26178E-04
 0.62880001E+02  0.42444E-05
 0.62930000E+02 -0.11138E-04
 0.62980000E+02  0.25185E-05
 0.63029999E+02  0.14350E-04
 0.63080002E+02 -0.21127E-05
 0.63130001E+02 -0.38612E-04
 0.63180000E+02 -0.63696E-04
 0.63230000E+02 -0.49811E-04
 0.63279999E+02 -0.14773E-04
 0.63330002E+02  0.11091E-04
 0.63380001E+02  0.35107E-04
 0.63430000E+02  0.51851E-04
 0.63480000E+02  0.37280E-04
 0.63529999E+02  0.13040E-04
 0.63580002E+02  0.11331E-04
 0.63630001E+02  0.26922E-04
 0.63680000E+02  0.43342E-04
 0.63730000E+02  0.54826E-04
 0.63779999E+02  0.55021E-04
 0.63830002E+02  0.31667E-04
 0.63880001E+02  0.44335E-05
 0.63930000E+02 -0.33092E-05
 0.63980000E+02 -0.64781E-05
 0.64029999E+02 -0.23453E-04
 0.64080002E+02 -0.44125E-04
 0.64129997E+02 -0.57063E-04
 0.64180000E+02 -0.68291E-04
 0.64230003E+02 -0.69763E-04
 0.64279999E+02 -0.58254E-04
 0.64330002E+02 -0.37718E-04
 0.64379997E+02 -0.32250E-05
 0.64430000E+02  0.33713E-04
 0.64480003E+02  0.60164E-04
 0.64529999E+02  0.69545E-04
 0.64580002E+02  0.46319E-04
 0.64629997E+02  0.79023E-05
 0.64680000E+02 -0.88600E-05
 0.64730003E+02 -0.17333E-04
 0.64779999E+02 -0.31143E-04
 0.64830002E+02 -0.32142E-04
 0.64879997E+02 -0.28324E-04
 0.64930000E+02 -0.36070E-04
 0.64980003E+02 -0.42798E-04
 0.65029999E+02 -0.35152E-04
 0.65080002E+02  0.52622E-07
 0.65129997E+02  0.78108E-04
 0.65180000E+02  0.16801E-03
 0.65230003E+02  0.22155E-03
 0.65279999E+02  0.21653E-03
 0.65330002E+02  0.14623E-03
 0.65379997E+02  0.40265E-04
 0.65430000E+02 -0.51525E-04
 0.65480003E+02 -0.91022E-04
 0.65529999E+02 -0.93507E-04
 0.65580002E+02 -0.10527E-03
 0.65629997E+02 -0.13962E-03
 0.65680000E+02 -0.18189E-03
 0.65730003E+02 -0.17833E-03
 0.65779999E+02 -0.11892E-03
 0.65830002E+02 -0.53497E-04
 0.65879997E+02 -0.73873E-05
 0.65930000E+02  0.22011E-04
 0.65980003E+02  0.43396E-04
 0.66029999E+02  0.50374E-04
 0.66080002E+02  0.55043E-04
 0.66129997E+02  0.61828E-04
 0.66180000E+02  0.55390E-04
 0.66230003E+02  0.33559E-04
 0.66279999E+02 -0.89090E-05
 0.66330002E+02 -0.46665E-04
 0.66379997E+02 -0.37124E-04
 0.66430000E+02 -0.80307E-06
 0.66480003E+02  0.26197E-04
 0.66529999E+02  0.46948E-04
 0.66580002E+02  0.53883E-04
 0.66629997E+02  0.48481E-04
 0.66680000E+02  0.36335E-04
 0.66730003E+02  0.14481E-04
 0.66779999E+02 -0.98618E-06
 0.66830002E+02 -0.48816E-05
 0.66879997E+02 -0.22652E-05
 0.66930000E+02 -0.52472E-05
 0.66980003E+02 -0.16571E-04
 0.67029999E+02 -0.88823E-05
 0.67080002E+02  0.30368E-04
 0.67129997E+02  0.76156E-04
 0.67180000E+02  0.90613E-04
 0.67230003E+02  0.65586E-04
 0.67279999E+02  0.11122E-04
 0.67330002E+02 -0.69050E-04
 0.67379997E+02 -0.13253E-03
 0.67430000E+02 -0.15133E-03
 0.67480003E+02 -0.13832E-03
 0.67529999E+02 -0.93230E-04
 0.67580002E+02 -0.34216E-04
 0.67629997E+02  0.22592E-04
 0.67680000E+02  0.74835E-04
 0.67730003E+02  0.99874E-04
 0.67779999E+02  0.88180E-04
 0.67830002E+02  0.67141E-04
 0.67879997E+02  0.51411E-04
 0.67930000E+02  0.36955E-04
 0.67980003E+02  0.24024E-04
 0.68029999E+02  0.32320E-05
 0.68080002E+02 -0.29440E-04
 0.68129997E+02 -0.69249E-04
 0.68180000E+02 -0.94219E-04
 0.68230003E+02 -0.83640E-04
 0.68279999E+02 -0.54086E-04
 0.68330002E+02 -0.19998E-04
 0.68379997E+02  0.22075E-04
 0.68430000E+02  0.52029E-04
 0.68480003E+02  0.60220E-04
 0.68529999E+02  0.62412E-04
 0.68580002E+02  0.60009E-04
 0.68629997E+02  0.46515E-04
 0.68680000E+02  0.11602E-04
 0.68730003E+02 -0.28054E-04
 0.68779999E+02 -0.51782E-04
 0.68830002E+02 -0.51355E-04
 0.68879997E+02 -0.22423E-04
 0.68930000E+02  0.91670E-05
 0.68980003E+02  0.33857E-04
 0.69029999E+02  0.51381E-04
 0.69080002E+02  0.53205E-04
 0.69129997E+02  0.38797E-04
 0.69180000E+02  0.57806E-05
 0.69230003E+02 -0.28657E-04
 0.69279999E+02 -0.44678E-04
 0.69330002E+02 -0.53744E-04
 0.69379997E+02 -0.80068E-04
 0.69430000E+02 -0.10974E-03
 0.69480003E+02 -0.11038E-03
 0.69529999E+02 -0.89917E-04
 0.69580002E+02 -0.52270E-04
 0.69629997E+02  0.45490E-05
 0.69680000E+02  0.60245E-04
 0.69730003E+02  0.99214E-04
 0.69779999E+02  0.11726E-03
 0.69830002E+02  0.11322E-03
 0.69879997E+02  0.74473E-04
 0.69930000E+02  0.19855E-04
 0.69980003E+02 -0.14397E-04
 0.70029999E+02 -0.22409E-04
 0.70080002E+02 -0.10741E-04
 0.70129997E+02 -0.44208E-05
 0.70180000E+02 -0.81538E-05
 0.70230003E+02 -0.73221E-06
 0.70279999E+02  0.99558E-05
 0.70330002E+02  0.11538E-04
 0.70379997E+02  0.17997E-04
 0.70430000E+02  0.36256E-04
 0.70480003E+02  0.47874E-04
 0.70529999E+02  0.40280E-04
 0.70580002E+02  0.22231E-04
 0.70629997E+02  0.47922E-05
 0.70680000E+02 -0.14299E-04
 0.70730003E+02 -0.27556E-04
 0.70779999E+02 -0.27963E-04
 0.70830002E+02 -0.39218E-04
 0.70879997E+02 -0.66113E-04
 0.70930000E+02 -0.94392E-04
 0.70980003E+02 -0.10907E-03
 0.71029999E+02 -0.84959E-04
 0.71080002E+02 -0.28687E-04
 0.71129997E+02  0.29555E-04
 0.71180000E+02  0.69775E-04
 0.71230003E+02  0.92571E-04
 0.71279999E+02  0.10276E-03
 0.71330002E+02  0.92023E-04
 0.71379997E+02  0.63551E-04
 0.71430000E+02  0.36082E-04
 0.71480003E+02  0.16329E-04
 0.71529999E+02 -0.65226E-05
 0.71580002E+02 -0.24739E-04
 0.71629997E+02 -0.22452E-04
 0.71680000E+02 -0.61265E-05
 0.71730003E+02  0.45126E-05
 0.71779999E+02 -0.36882E-05
 0.71830002E+02 -0.36591E-04
 0.71879997E+02 -0.77705E-04
 0.71930000E+02 -0.10266E-03
 0.71980003E+02 -0.11323E-03
 0.72029999E+02 -0.95774E-04
 0.72080002E+02 -0.57648E-04
 0.72129997E+02 -0.20919E-04
 0.72180000E+02  0.13097E-04
 0.72230003E+02  0.35938E-04
 0.72279999E+02  0.44770E-04
 0.72330002E+02  0.37926E-04
 0.72379997E+02  0.32282E-04
 0.72430000E+02  0.38822E-04
 0.72480003E+02  0.45766E-04
 0.72529999E+02  0.42224E-04
 0.72580002E+02  0.24452E-04
 0.72629997E+02  0.15323E-04
 0.72680000E+02  0.34528E-04
 0.72730003E+02  0.66278E-04
 0.72779999E+02  0.86939E-04
 0.72830002E+02  0.85697E-04
 0.72879997E+02  0.59273E-04
 0.72930000E+02  0.12475E-04
 0.72980003E+02 -0.39939E-04
 0.73029999E+02 -0.80422E-04
 0.73080002E+02 -0.10262E-03
 0.73129997E+02 -0.10409E-03
 0.73180000E+02 -0.87736E-04
 0.73230003E+02 -0.67817E-04
 0.73279999E+02 -0.47607E-04
 0.73330002E+02 -0.29853E-04
 0.73379997E+02 -0.16244E-04
 0.73430000E+02  0.48973E-05
 0.73480003E+02  0.33471E-04
 0.73529999E+02  0.66087E-04
 0.73580002E+02  0.91900E-04
 0.73629997E+02  0.92193E-04
 0.73680000E+02  0.71497E-04
 0.73730003E+02  0.41452E-04
 0.73779999E+02  0.14268E-04
 0.73830002E+02 -0.44377E-05
 0.73879997E+02 -0.28761E-04
 0.73930000E+02 -0.50392E-04
 0.73980003E+02 -0.52305E-04
 0.74029999E+02 -0.45268E-04
 0.74080002E+02 -0.26509E-04
 0.74129997E+02  0.28764E-05
 0.74180000E+02  0.17611E-04
 0.74230003E+02  0.15945E-04
 0.74279999E+02  0.94217E-05
 0.74330002E+02 -0.70880E-05
 0.74379997E+02 -0.26836E-04
 0.74430000E+02 -0.30889E-04
 0.74480003E+02 -0.23232E-04
 0.74529999E+02 -0.10230E-04
 0.74580002E+02 -0.11109E-05
 0.74629997E+02  0.77064E-05
 0.74680000E+02  0.27918E-04
 0.74730003E+02  0.41351E-04
 0.74779999E+02  0.52173E-04
 0.74830002E+02  0.64400E-04
 0.74879997E+02  0.63768E-04
 0.74930000E+02  0.42457E-04
 0.74980003E+02  0.16091E-05
 0.75029999E+02 -0.36227E-04
 0.75080002E+02 -0.70813E-04
 0.75129997E+02 -0.96517E-04
 0.75180000E+02 -0.95817E-04
 0.75230003E+02 -0.76292E-04
 0.75279999E+02 -0.42476E-04
 0.75330002E+02 -0.75074E-05
 0.75379997E+02  0.15430E-04
 0.75430000E+02  0.30554E-04
 0.75480003E+02  0.37476E-04
 0.75529999E+02  0.40494E-04
 0.75580002E+02  0.46545E-04
 0.75629997E+02  0.42664E-04
 0.75680000E+02  0.21431E-04
 0.75730003E+02  0.10160E-05
 0.75779999E+02 -0.10009E-04
 0.75830002E+02 -0.16161E-04
 0.75879997E+02 -0.17356E-04
 0.75930000E+02 -0.13219E-04
 0.75980003E+02 -0.45420E-05
 0.76029999E+02 -0.29981E-06
 0.76080002E+02  0.37724E-05
 0.76129997E+02  0.65653E-05
 0.76180000E+02  0.73827E-06
 0.76230003E+02  0.86669E-05
 0.76279999E+02  0.24194E-04
 0.76330002E+02  0.21131E-04
 0.76379997E+02  0.33131E-05
 0.76430000E+02 -0.13358E-04
 0.76480003E+02 -0.24520E-04
 0.76529999E+02 -0.28797E-04
 0.76580002E+02 -0.15583E-04
 0.76629997E+02  0.53666E-05
 0.76680000E+02  0.16481E-04
 0.76730003E+02  0.17720E-04
 0.76779999E+02  0.16972E-04
 0.76830002E+02  0.19684E-04
 0.76879997E+02  0.20378E-04
 0.76930000E+02  0.10577E-04
 0.76980003E+02 -0.34184E-05
 0.77029999E+02 -0.14084E-04
 0.77080002E+02 -0.26188E-04
 0.77129997E+02 -0.33406E-04
 0.77180000E+02 -0.32802E-04
 0.77230003E+02 -0.34453E-04
 0.77279999E+02 -0.36726E-04
 0.77330002E+02 -0.33249E-04
 0.77379997E+02 -0.18662E-04
 0.77430000E+02  0.45232E-05
 0.77480003E+02  0.27405E-04
 0.77529999E+02  0.53202E-04
 0.77580002E+02  0.80904E-04
 0.77629997E+02  0.10494E-03
 0.77680000E+02  0.11730E-03
 0.77730003E+02  0.10765E-03
 0.77779999E+02  0.79367E-04
 0.77830002E+02  0.25464E-04
 0.77879997E+02 -0.46091E-04
 0.77930000E+02 -0.10817E-03
 0.77980003E+02 -0.14939E-03
 0.78029999E+02 -0.15512E-03
 0.78080002E+02 -0.12372E-03
 0.78129997E+02 -0.74406E-04
 0.78180000E+02 -0.28621E-04
 0.78230003E+02  0.46475E-05
 0.78279999E+02  0.28443E-04
 0.78330002E+02  0.40392E-04
 0.78379997E+02  0.40133E-04
 0.78430000E+02  0.35583E-04
 0.78480003E+02  0.41236E-04
 0.78529999E+02  0.57144E-04
 0.78580002E+02  0.66025E-04
 0.78629997E+02  0.59756E-04
 0.78680000E+02  0.43727E-04
 0.78730003E+02  0.29153E-04
 0.78779999E+02  0.19450E-04
 0.78830002E+02  0.13011E-04
 0.78879997E+02 -0.17477E-05
 0.78930000E+02 -0.30201E-04
 0.78980003E+02 -0.58715E-04
 0.79029999E+02 -0.79092E-04
 0.79080002E+02 -0.80446E-04
 0.79129997E+02 -0.63512E-04
 0.79180000E+02 -0.41519E-04
 0.79230003E+02 -0.21571E-04
 0.79279999E+02 -0.66525E-05
 0.79330002E+02  0.70053E-05
 0.79379997E+02  0.21661E-04
 0.79430000E+02  0.32993E-04
 0.79480003E+02  0.35916E-04
 0.79529999E+02  0.31176E-04
 0.79580002E+02  0.20516E-04
 0.79629997E+02  0.11059E-04
 0.79680000E+02  0.95099E-05
 0.79730003E+02  0.90069E-05
 0.79779999E+02  0.45109E-05
 0.79830002E+02 -0.20951E-05
 0.79879997E+02 -0.12950E-04
 0.79930000E+02 -0.23669E-04
 0.79980003E+02 -0.23349E-04
 0.80029999E+02 -0.18598E-04
 0.80080002E+02 -0.22039E-04
 0.80129997E+02 -0.29564E-04
 0.80180000E+02 -0.30912E-04
 0.80230003E+02 -0.20769E-04
 0.80279999E+02  0.10844E-05
 0.80330002E+02  0.28490E-04
 0.80379997E+02  0.50823E-04
 0.80430000E+02  0.62074E-04
 0.80480003E+02  0.58678E-04
 0.80529999E+02  0.40785E-04
 0.80580002E+02  0.21470E-04
 0.80629997E+02  0.84017E-05
 0.80680000E+02  0.57242E-05
 0.80730003E+02  0.10540E-04
 0.80779999E+02  0.10004E-04
 0.80830002E+02  0.48463E-05
 0.80879997E+02 -0.33899E-05
 0.80930000E+02 -0.12032E-04
 0.80980003E+02 -0.12544E-04
 0.81029999E+02 -0.12024E-04
 0.81080002E+02 -0.19039E-04
 0.81129997E+02 -0.25520E-04
 0.81180000E+02 -0.35224E-04
 0.81230003E+02 -0.46854E-04
 0.81279999E+02 -0.40602E-04
 0.81330002E+02 -0.26789E-04
 0.81379997E+02 -0.24045E-04
 0.81430000E+02 -0.20525E-04
 0.81480003E+02 -0.96187E-05
 0.81529999E+02 -0.17106E-05
 0.81580002E+02  0.52975E-05
 0.81629997E+02  0.15661E-04
 0.81680000E+02  0.20243E-04
 0.81730003E+02  0.18316E-04
 0.81779999E+02  0.17984E-04
 0.81830002E+02  0.17711E-04
 0.81879997E+02  0.19353E-04
 0.81930000E+02  0.27909E-04
 0.81980003E+02  0.39931E-04
 0.82029999E+02  0.46079E-04
 0.82080002E+02  0.41141E-04
 0.82129997E+02  0.30675E-04
 0.82180000E+02  0.19092E-04
 0.82230003E+02  0.84740E-05
 0.82279999E+02 -0.56316E-06
 0.82330002E+02 -0.10525E-04
 0.82379997E+02 -0.26694E-04
 0.82430000E+02 -0.44889E-04
 0.82480003E+02 -0.56636E-04
 0.82529999E+02 -0.60723E-04
 0.82580002E+02 -0.49208E-04
 0.82629997E+02 -0.22737E-04
 0.82680000E+02  0.44554E-05
 0.82730003E+02  0.18629E-04
 0.82779999E+02  0.14954E-04
 0.82830002E+02  0.85930E-05
 0.82879997E+02  0.54300E-05
 0.82930000E+02 -0.31189E-06
 0.82980003E+02 -0.28553E-05
 0.83029999E+02 -0.12888E-05
 0.83080002E+02  0.30399E-05
 0.83129997E+02  0.62933E-05
 0.83180000E+02  0.61658E-05
 0.83230003E+02  0.69298E-06
 0.83279999E+02 -0.10669E-04
 0.83330002E+02 -0.20845E-04
 0.83379997E+02 -0.26826E-04
 0.83430000E+02 -0.17409E-04
 0.83480003E+02  0.23703E-05
 0.83529999E+02  0.18868E-04
 0.83580002E+02  0.29609E-04
 0.83629997E+02  0.33544E-04
 0.83680000E+02  0.36681E-04
 0.83730003E+02  0.38107E-04
 0.83779999E+02  0.37566E-04
 0.83830002E+02  0.32859E-04
 0.83879997E+02  0.19172E-04
 0.83930000E+02  0.24346E-05
 0.83980003E+02 -0.12459E-04
 0.84029999E+02 -0.21604E-04
 0.84080002E+02 -0.25722E-04
 0.84129997E+02 -0.30006E-04
 0.84180000E+02 -0.26403E-04
 0.84230003E+02 -0.11398E-04
 0.84279999E+02  0.56881E-05
 0.84330002E+02  0.16686E-04
 0.84379997E+02  0.15009E-04
 0.84430000E+02  0.46206E-05
 0.84480003E+02 -0.60624E-05
 0.84529999E+02 -0.16022E-04
 0.84580002E+02 -0.27360E-04
 0.84629997E+02 -0.37887E-04
 0.84680000E+02 -0.44555E-04
 0.84730003E+02 -0.43726E-04
 0.84779999E+02 -0.27836E-04
 0.84830002E+02 -0.22008E-05
 0.84879997E+02  0.19465E-04
 0.84930000E+02  0.30567E-04
 0.84980003E+02  0.31917E-04
 0.85029999E+02  0.27718E-04
 0.85080002E+02  0.17893E-04
 0.85129997E+02  0.75167E-05
 0.85180000E+02 -0.10737E-05
 0.85230003E+02 -0.10014E-04
 0.85279999E+02 -0.15119E-04
 0.85330002E+02 -0.13013E-04
 0.85379997E+02  0.78441E-06
 0.85430000E+02  0.17870E-04
 0.85480003E+02  0.29099E-04
 0.85529999E+02  0.34255E-04
 0.85580002E+02  0.28994E-04
 0.85629997E+02  0.14418E-04
 0.85680000E+02 -0.50514E-05
 0.85730003E+02 -0.21660E-04
 0.85779999E+02 -0.31997E-04
 0.85830002E+02 -0.36138E-04
 0.85879997E+02 -0.33584E-04
 0.85930000E+02 -0.24431E-04
 0.85980003E+02 -0.56435E-05
 0.86029999E+02  0.17843E-04
 0.86080002E+02  0.42177E-04
 0.86129997E+02  0.65044E-04
 0.86180000E+02  0.75972E-04
 0.86230003E+02  0.72804E-04
 0.86279999E+02  0.58925E-04
 0.86330002E+02  0.32926E-04
 0.86379997E+02  0.46491E-05
 0.86430000E+02 -0.20375E-04
 0.86480003E+02 -0.47834E-04
 0.86529999E+02 -0.72320E-04
 0.86580002E+02 -0.89859E-04
 0.86629997E+02 -0.95141E-04
 0.86680000E+02 -0.85240E-04
 0.86730003E+02 -0.65781E-04
 0.86779999E+02 -0.38276E-04
 0.86830002E+02 -0.82391E-05
 0.86879997E+02  0.18877E-04
 0.86930000E+02  0.36563E-04
 0.86980003E+02  0.40246E-04
 0.87029999E+02  0.35804E-04
 0.87080002E+02  0.28861E-04
 0.87129997E+02  0.21222E-04
 0.87180000E+02  0.11231E-04
 0.87230003E+02 -0.13418E-05
 0.87279999E+02 -0.13700E-04
 0.87330002E+02 -0.24194E-04
 0.87379997E+02 -0.29191E-04
 0.87430000E+02 -0.23923E-04
 0.87480003E+02 -0.70751E-05
 0.87529999E+02  0.15784E-04
 0.87580002E+02  0.39077E-04
 0.87629997E+02  0.61716E-04
 0.87680000E+02  0.73137E-04
 0.87730003E+02  0.63539E-04
 0.87779999E+02  0.37656E-04
 0.87830002E+02  0.30012E-05
 0.87879997E+02 -0.30798E-04
 0.87930000E+02 -0.52480E-04
 0.87980003E+02 -0.63052E-04
 0.88029999E+02 -0.64602E-04
 0.88080002E+02 -0.50645E-04
 0.88129997E+02 -0.26723E-04
 0.88180000E+02 -0.17947E-05
 0.88230003E+02  0.22226E-04
 0.88279999E+02  0.41596E-04
 0.88330002E+02  0.53486E-04
 0.88379997E+02  0.55879E-04
 0.88430000E+02  0.49179E-04
 0.88480003E+02  0.38435E-04
 0.88529999E+02  0.27917E-04
 0.88580002E+02  0.16608E-04
 0.88629997E+02  0.60178E-05
 0.88680000E+02 -0.21708E-05
 0.88730003E+02 -0.11313E-04
 0.88779999E+02 -0.18528E-04
 0.88830002E+02 -0.21329E-04
 0.88879997E+02 -0.22039E-04
 0.88930000E+02 -0.24206E-04
 0.88980003E+02 -0.29504E-04
 0.89029999E+02 -0.32088E-04
 0.89080002E+02 -0.31457E-04
 0.89129997E+02 -0.28235E-04
 0.89180000E+02 -0.15542E-04
 0.89230003E+02  0.20040E-05
 0.89279999E+02  0.12459E-04
 0.89330002E+02  0.97328E-05
 0.89379997E+02 -0.11156E-05
 0.89430000E+02 -0.54108E-05
 0.89480003E+02 -0.34854E-05
 0.89529999E+02  0.55451E-06
 0.89580002E+02  0.82939E-05
 0.89629997E+02  0.13943E-04
 0.89680000E+02  0.19147E-04
 0.89730003E+02  0.25146E-04
 0.89779999E+02  0.27591E-04
 0.89830002E+02  0.25976E-04
 0.89879997E+02  0.17650E-04
 0.89930000E+02  0.25493E-05
 0.89980003E+02 -0.18046E-04
 0.90029999E+02 -0.35059E-04
 0.90080002E+02 -0.38094E-04
 0.90129997E+02 -0.34282E-04
 0.90180000E+02 -0.27802E-04
 0.90230003E+02 -0.16772E-04
 0.90279999E+02 -0.83260E-05
 0.90330002E+02 -0.25296E-05
 0.90379997E+02  0.59029E-05
 0.90430000E+02  0.12566E-04
 0.90480003E+02  0.17877E-04
 0.90529999E+02  0.20725E-04
 0.90580002E+02  0.17449E-04
 0.90629997E+02  0.13115E-04
 0.90680000E+02  0.95261E-05
 0.90730003E+02  0.63802E-05
 0.90779999E+02  0.16186E-05
 0.90830002E+02 -0.47851E-05
 0.90879997E+02 -0.90544E-05
 0.90930000E+02 -0.69799E-05
 0.90980003E+02 -0.13410E-05
 0.91029999E+02  0.95084E-06
 0.91080002E+02  0.24136E-05
 0.91129997E+02  0.34224E-05
 0.91180000E+02  0.45942E-05
 0.91230003E+02  0.45868E-05
 0.91279999E+02  0.18409E-05
 0.91330002E+02  0.71500E-06
 0.91379997E+02 -0.33344E-05
 0.91430000E+02 -0.14365E-04
 0.91480003E+02 -0.23466E-04
 0.91529999E+02 -0.21260E-04
 0.91580002E+02 -0.14147E-04
 0.91629997E+02 -0.65118E-05
 0.91680000E+02  0.53662E-05
 0.91730003E+02  0.15245E-04
 0.91779999E+02  0.19843E-04
 0.91830002E+02  0.18684E-04
 0.91879997E+02  0.14896E-04
 0.91930000E+02  0.16006E-04
 0.91980003E+02  0.16127E-04
 0.92029999E+02  0.11966E-04
 0.92080002E+02  0.50966E-05
 0.92129997E+02 -0.14614E-05
 0.92180000E+02 -0.26789E-05
 0.92230003E+02 -0.33455E-05
 0.92279999E+02 -0.24571E-05
 0.92330002E+02  0.46115E-06
 0.92379997E+02 -0.14338E-05
 0.92430000E+02 -0.41442E-05
 0.92480003E+02 -0.60330E-05
 0.92529999E+02 -0.10150E-04
 0.92580002E+02 -0.10531E-04
 0.92629997E+02 -0.65885E-05
 0.92680000E+02 -0.57291E-05
 0.92730003E+02 -0.10525E-04
 0.92779999E+02 -0.12786E-04
 0.92830002E+02 -0.10567E-04
 0.92879997E+02 -0.10740E-04
 0.92930000E+02 -0.10673E-04
 0.92980003E+02 -0.11050E-04
 0.93029999E+02 -0.11646E-04
 0.93080002E+02 -0.93757E-05
 0.93129997E+02 -0.71447E-05
 0.93180000E+02 -0.44719E-05
 0.93230003E+02  0.27571E-05
 0.93279999E+02  0.18097E-04
 0.93330002E+02  0.34329E-04
 0.93379997E+02  0.43863E-04
 0.93430000E+02  0.47665E-04
 0.93480003E+02  0.44083E-04
 0.93529999E+02  0.33191E-04
 0.93580002E+02  0.15799E-04
 0.93629997E+02 -0.25057E-05
 0.93680000E+02 -0.15663E-04
 0.93730003E+02 -0.23131E-04
 0.93779999E+02 -0.20940E-04
 0.93830002E+02 -0.14503E-04
 0.93879997E+02 -0.12816E-04
 0.93930000E+02 -0.14717E-04
 0.93980003E+02 -0.19297E-04
 0.94029999E+02 -0.27502E-04
 0.94080002E+02 -0.34595E-04
 0.94129997E+02 -0.35982E-04
 0.94180000E+02 -0.30973E-04
 0.94230003E+02 -0.18624E-04
 0.94279999E+02 -0.42240E-05
 0.94330002E+02  0.84546E-05
 0.94379997E+02  0.20948E-04
 0.94430000E+02  0.29136E-04
 0.94480003E+02  0.28941E-04
 0.94529999E+02  0.23883E-04
 0.94580002E+02  0.17928E-04
 0.94629997E+02  0.14507E-04
 0.94680000E+02  0.14045E-04
 0.94730003E+02  0.97497E-05
 0.94779999E+02  0.19448E-05
 0.94830002E+02 -0.34129E-05
 0.94879997E+02 -0.47422E-05
 0.94930000E+02 -0.27293E-05
 0.94980003E+02  0.10461E-05
 0.95029999E+02  0.45039E-05
 0.95080002E+02  0.62750E-05
 0.95129997E+02  0.49559E-05
 0.95180000E+02  0.23339E-05
 0.95230003E+02  0.69676E-06
 0.95279999E+02 -0.25522E-06
 0.95330002E+02  0.15230E-05
 0.95379997E+02  0.19347E-05
 0.95430000E+02 -0.46632E-05
 0.95480003E+02 -0.17301E-04
 0.95529999E+02 -0.30140E-04
 0.95580002E+02 -0.34841E-04
 0.95629997E+02 -0.29133E-04
 0.95680000E+02 -0.16719E-04
 0.95730003E+02 -0.33986E-05
 0.95779999E+02  0.76146E-05
 0.95830002E+02  0.18530E-04
 0.95879997E+02  0.27634E-04
 0.95930000E+02  0.31278E-04
 0.95980003E+02  0.31614E-04
 0.96029999E+02  0.27012E-04
 0.96080002E+02  0.20492E-04
 0.96129997E+02  0.16194E-04
 0.96180000E+02  0.13287E-04
 0.96230003E+02  0.11278E-04
 0.96279999E+02  0.17048E-05
 0.96330002E+02 -0.12060E-04
 0.96379997E+02 -0.20449E-04
 0.96430000E+02 -0.25250E-04
 0.96480003E+02 -0.28277E-04
 0.96529999E+02 -0.27456E-04
 0.96580002E+02 -0.20981E-04
 0.96629997E+02 -0.14591E-04
 0.96680000E+02 -0.12119E-04
 0.96730003E+02 -0.95299E-05
 0.96779999E+02 -0.41880E-05
 0.96830002E+02 -0.87883E-06
 0.96879997E+02 -0.51737E-06
 0.96930000E+02  0.30263E-05
 0.96980003E+02  0.91726E-05
 0.97029999E+02  0.15526E-04
 0.97080002E+02  0.19980E-04
 0.97129997E+02  0.20233E-04
 0.97180000E+02  0.16581E-04
 0.97230003E+02  0.93448E-05
 0.97279999E+02 -0.31416E-06
 0.97330002E+02 -0.92677E-05
 0.97379997E+02 -0.17399E-04
 0.97430000E+02 -0.23963E-04
 0.97480003E+02 -0.25089E-04
 0.97529999E+02 -0.22858E-04
 0.97580002E+02 -0.19568E-04
 0.97629997E+02 -0.16120E-04
 0.97680000E+02 -0.13158E-04
 0.97730003E+02 -0.10562E-04
 0.97779999E+02 -0.70502E-05
 0.97830002E+02 -0.68068E-06
 0.97879997E+02  0.76529E-05
 0.97930000E+02  0.18756E-04
 0.97980003E+02  0.33302E-04
 0.98029999E+02  0.48734E-04
 0.98080002E+02  0.59860E-04
 0.98129997E+02  0.64116E-04
 0.98180000E+02  0.61261E-04
 0.98230003E+02  0.48666E-04
 0.98279999E+02  0.26917E-04
 0.98330002E+02  0.29520E-05
 0.98379997E+02 -0.17650E-04
 0.98430000E+02 -0.33881E-04
 0.98480003E+02 -0.43802E-04
 0.98529999E+02 -0.45263E-04
 0.98580002E+02 -0.37860E-04
 0.98629997E+02 -0.27070E-04
 0.98680000E+02 -0.20664E-04
 0.98730003E+02 -0.19928E-04
 0.98779999E+02 -0.21342E-04
 0.98830002E+02 -0.19347E-04
 0.98879997E+02 -0.13944E-04
 0.98930000E+02 -0.70765E-05
 0.98980003E+02  0.18235E-05
 0.99029999E+02  0.94896E-05
 0.99080002E+02  0.14449E-04
 0.99129997E+02  0.13297E-04
 0.99180000E+02  0.50010E-05
 0.99230003E+02 -0.30798E-05
 0.99279999E+02 -0.77206E-05
 0.99330002E+02 -0.57779E-05
 0.99379997E+02  0.11932E-05
 0.99430000E+02  0.92010E-05
 0.99480003E+02  0.19937E-04
 0.99529999E+02  0.28064E-04
 0.99580002E+02  0.27807E-04
 0.99629997E+02  0.19092E-04
 0.99680000E+02  0.41362E-05
 0.99730003E+02 -0.13699E-04
 0.99779999E+02 -0.28759E-04
 0.99830002E+02 -0.34979E-04
 0.99879997E+02 -0.36665E-04
 0.99930000E+02 -0.38971E-04
 0.99980003E+02 -0.38749E-04
 0.10003000E+03 -0.32709E-04
 0.10008000E+03 -0.20442E-04
 0.10013000E+03 -0.23900E-05
 0.10018000E+03  0.17831E-04
 0.10023000E+03  0.30747E-04
 0.10028000E+03  0.34029E-04
 0.10033000E+03  0.35086E-04
 0.10038000E+03  0.36753E-04
 0.10043000E+03  0.36822E-04
 0.10048000E+03  0.33229E-04
 0.10053000E+03  0.27070E-04
 0.10058000E+03  0.19577E-04
 0.10063000E+03  0.88219E-05
 0.10068000E+03 -0.44569E-05
 0.10073000E+03 -0.15404E-04
 0.10078000E+03 -0.22601E-04
 0.10083000E+03 -0.27112E-04
 0.10088000E+03 -0.26035E-04
 0.10093000E+03 -0.20174E-04
 0.10098000E+03 -0.12297E-04
 0.10103000E+03 -0.49165E-05
 0.10108000E+03 -0.21020E-05
 0.10113000E+03 -0.10870E-05
 0.10118000E+03  0.16833E-05
 0.10123000E+03  0.61479E-05
 0.10128000E+03  0.11511E-04
 0.10133000E+03  0.18527E-04
 0.10138000E+03  0.24168E-04
 0.10143000E+03  0.23442E-04
 0.10148000E+03  0.18961E-04
 0.10153000E+03  0.11309E-04
 0.10158000E+03  0.23057E-05
 0.10163000E+03 -0.44134E-05
 0.10168000E+03 -0.11060E-04
 0.10173000E+03 -0.16292E-04
 0.10178000E+03 -0.17269E-04
 0.10183000E+03 -0.16099E-04
 0.10188000E+03 -0.13795E-04
 0.10193000E+03 -0.98732E-05
 0.10198000E+03 -0.55052E-05
 0.10203000E+03 -0.19658E-05
 0.10208000E+03  0.82016E-06
 0.10213000E+03  0.39003E-05
 0.10218000E+03  0.52039E-05
 0.10223000E+03  0.37685E-05
 0.10228000E+03  0.15334E-05
 0.10233000E+03 -0.34206E-05
 0.10238000E+03 -0.10576E-04
 0.10243000E+03 -0.15023E-04
 0.10248000E+03 -0.15041E-04
 0.10253000E+03 -0.97775E-05
 0.10258000E+03 -0.32803E-05
 0.10263000E+03  0.92932E-06
 0.10268000E+03  0.71423E-05
 0.10273000E+03  0.12492E-04
 0.10278000E+03  0.14817E-04
 0.10283000E+03  0.15022E-04
 0.10288000E+03  0.10390E-04
 0.10293000E+03  0.33658E-05
 0.10298000E+03 -0.38135E-05
 0.10303000E+03 -0.12014E-04
 0.10308000E+03 -0.17514E-04
 0.10313000E+03 -0.15422E-04
 0.10318000E+03 -0.81453E-05
 0.10323000E+03  0.19301E-06
 0.10328000E+03  0.77026E-05
 0.10333000E+03  0.15523E-04
 0.10338000E+03  0.23196E-04
 0.10343000E+03  0.26579E-04
 0.10348000E+03  0.24225E-04
 0.10353000E+03  0.16488E-04
 0.10358000E+03  0.61047E-05
 0.10363000E+03 -0.47635E-05
 0.10368000E+03 -0.14767E-04
 0.10373000E+03 -0.21979E-04
 0.10378000E+03 -0.23936E-04
 0.10383000E+03 -0.19952E-04
 0.10388000E+03 -0.12468E-04
 0.10393000E+03 -0.43291E-05
 0.10398000E+03  0.33611E-05
 0.10403000E+03  0.10687E-04
 0.10408000E+03  0.14132E-04
 0.10413000E+03  0.11913E-04
 0.10418000E+03  0.57861E-05
 0.10423000E+03  0.10010E-05
 0.10428000E+03 -0.74656E-06
 0.10433000E+03 -0.32494E-05
 0.10438000E+03 -0.54864E-05
 0.10443000E+03 -0.69216E-05
 0.10448000E+03 -0.69837E-05
 0.10453000E+03 -0.46464E-05
 0.10458000E+03 -0.13756E-05
 0.10463000E+03  0.17892E-05
 0.10468000E+03  0.37870E-05
 0.10473000E+03  0.36532E-05
 0.10478000E+03  0.21220E-05
 0.10483000E+03  0.19157E-05
 0.10488000E+03  0.21507E-05
 0.10493000E+03 -0.44256E-07
 0.10498000E+03 -0.26990E-05
 0.10503000E+03 -0.44924E-05
 0.10508000E+03 -0.58765E-05
 0.10513000E+03 -0.65576E-05
 0.10518000E+03 -0.60629E-05
 0.10523000E+03 -0.15057E-05
 0.10528000E+03  0.68034E-05
 0.10533000E+03  0.13494E-04
 0.10538000E+03  0.17340E-04
 0.10543000E+03  0.19910E-04
 0.10548000E+03  0.17651E-04
 0.10553000E+03  0.12950E-04
 0.10558000E+03  0.84285E-05
 0.10563000E+03  0.80152E-06
 0.10568000E+03 -0.85452E-05
 0.10573000E+03 -0.20087E-04
 0.10578000E+03 -0.29716E-04
 0.10583000E+03 -0.33049E-04
 0.10588000E+03 -0.29121E-04
 0.10593000E+03 -0.20515E-04
 0.10598000E+03 -0.11441E-04
 0.10603000E+03 -0.12873E-05
 0.10608000E+03  0.61479E-05
 0.10613000E+03  0.13254E-04
 0.10618000E+03  0.21251E-04
 0.10623000E+03  0.24934E-04
 0.10628000E+03  0.21797E-04
 0.10633000E+03  0.14175E-04
 0.10638000E+03  0.72291E-05
 0.10643000E+03  0.10434E-05
 0.10648000E+03 -0.23706E-05
 0.10653000E+03 -0.38135E-05
 0.10658000E+03 -0.52900E-05
 0.10663000E+03 -0.64769E-05
 0.10668000E+03 -0.92472E-05
 0.10673000E+03 -0.12224E-04
 0.10678000E+03 -0.14151E-04
 0.10683000E+03 -0.14402E-04
 0.10688000E+03 -0.12771E-04
 0.10693000E+03 -0.98188E-05
 0.10698000E+03 -0.48502E-05
 0.10703000E+03  0.10008E-05
 0.10708000E+03  0.69470E-05
 0.10713000E+03  0.12363E-04
 0.10718000E+03  0.14804E-04
 0.10723000E+03  0.13480E-04
 0.10728000E+03  0.10302E-04
 0.10733000E+03  0.61012E-05
 0.10738000E+03 -0.62409E-06
 0.10743000E+03 -0.71807E-05
 0.10748000E+03 -0.74985E-05
 0.10753000E+03 -0.21688E-05
 0.10758000E+03  0.65183E-05
 0.10763000E+03  0.17440E-04
 0.10768000E+03  0.25698E-04
 0.10773000E+03  0.29621E-04
 0.10778000E+03  0.28567E-04
 0.10783000E+03  0.22006E-04
 0.10788000E+03  0.12553E-04
 0.10793000E+03  0.31772E-05
 0.10798000E+03 -0.38306E-05
 0.10803000E+03 -0.10711E-04
 0.10808000E+03 -0.18763E-04
 0.10813000E+03 -0.24735E-04
 0.10818000E+03 -0.25189E-04
 0.10823000E+03 -0.20809E-04
 0.10828000E+03 -0.15392E-04
 0.10833000E+03 -0.93528E-05
 0.10838000E+03 -0.48830E-05
 0.10843000E+03 -0.23355E-05
 0.10848000E+03  0.11643E-05
 0.10853000E+03  0.21416E-05
 0.10858000E+03 -0.58487E-06
 0.10863000E+03 -0.49528E-05
 0.10868000E+03 -0.10204E-04
 0.10873000E+03 -0.14140E-04
 0.10878000E+03 -0.13374E-04
 0.10883000E+03 -0.85855E-05
 0.10888000E+03 -0.30920E-05
 0.10893000E+03  0.28736E-05
 0.10898000E+03  0.76753E-05
 0.10903000E+03  0.10889E-04
 0.10908000E+03  0.11123E-04
 0.10913000E+03  0.82364E-05
 0.10918000E+03  0.39057E-05
 0.10923000E+03 -0.26973E-05
 0.10928000E+03 -0.83071E-05
 0.10933000E+03 -0.11148E-04
 0.10938000E+03 -0.10430E-04
 0.10943000E+03 -0.70339E-05
 0.10948000E+03 -0.37597E-05
 0.10953000E+03  0.62382E-06
 0.10958000E+03  0.51796E-05
 0.10963000E+03  0.94659E-05
 0.10968000E+03  0.12990E-04
 0.10973000E+03  0.15366E-04
 0.10978000E+03  0.18876E-04
 0.10983000E+03  0.20265E-04
 0.10988000E+03  0.19930E-04
 0.10993000E+03  0.21541E-04
 0.10998000E+03  0.21930E-04
 0.11003000E+03  0.20599E-04
 0.11008000E+03  0.17728E-04
 0.11013000E+03  0.11309E-04
 0.11018000E+03  0.16931E-05
 0.11023000E+03 -0.97190E-05
 0.11028000E+03 -0.19880E-04
 0.11033000E+03 -0.26955E-04
 0.11038000E+03 -0.32337E-04
 0.11043000E+03 -0.35633E-04
 0.11048000E+03 -0.34889E-04
 0.11053000E+03 -0.31764E-04
 0.11058000E+03 -0.27869E-04
 0.11063000E+03 -0.23206E-04
 0.11068000E+03 -0.16523E-04
 0.11073000E+03 -0.73468E-05
 0.11078000E+03  0.11203E-05
 0.11083000E+03  0.90566E-05
 0.11088000E+03  0.16048E-04
 0.11093000E+03  0.19195E-04
 0.11098000E+03  0.17988E-04
 0.11103000E+03  0.12114E-04
 0.11108000E+03  0.43724E-05
 0.11113000E+03 -0.18016E-05
 0.11118000E+03 -0.45418E-05
 0.11123000E+03 -0.26797E-05
 0.11128000E+03  0.29313E-05
 0.11133000E+03  0.10203E-04
 0.11138000E+03  0.17319E-04
 0.11143000E+03  0.22208E-04
 0.11148000E+03  0.23223E-04
 0.11153000E+03  0.22103E-04
 0.11158000E+03  0.17587E-04
 0.11163000E+03  0.12697E-04
 0.11168000E+03  0.84565E-05
 0.11173000E+03  0.50064E-06
 0.11178000E+03 -0.76390E-05
 0.11183000E+03 -0.14748E-04
 0.11188000E+03 -0.16813E-04
 0.11193000E+03 -0.15295E-04
 0.11198000E+03 -0.12262E-04
 0.11203000E+03 -0.63435E-05
 0.11208000E+03 -0.24441E-05
 0.11213000E+03  0.71191E-06
 0.11218000E+03  0.85408E-06
 0.11223000E+03 -0.11347E-05
 0.11228000E+03 -0.26075E-05
 0.11233000E+03 -0.29559E-05
 0.11238000E+03 -0.66155E-06
 0.11243000E+03  0.28796E-05
 0.11248000E+03  0.77130E-05
 0.11253000E+03  0.11839E-04
 0.11258000E+03  0.15021E-04
 0.11263000E+03  0.15315E-04
 0.11268000E+03  0.11967E-04
 0.11273000E+03  0.47599E-05
 0.11278000E+03 -0.43195E-05
 0.11283000E+03 -0.95593E-05
 0.11288000E+03 -0.11731E-04
 0.11293000E+03 -0.13913E-04
 0.11298000E+03 -0.16256E-04
 0.11303000E+03 -0.17518E-04
 0.11308000E+03 -0.18770E-04
 0.11313000E+03 -0.18960E-04
 0.11318000E+03 -0.17400E-04
 0.11323000E+03 -0.14766E-04
 0.11328000E+03 -0.97515E-05
 0.11333000E+03 -0.30278E-05
 0.11338000E+03  0.29028E-05
 0.11343000E+03  0.67681E-05
 0.11348000E+03  0.98091E-05
 0.11353000E+03  0.11567E-04
 0.11358000E+03  0.11251E-04
 0.11363000E+03  0.11412E-04
 0.11368000E+03  0.10710E-04
 0.11373000E+03  0.92507E-05
 0.11378000E+03  0.97722E-05
 0.11383000E+03  0.92608E-05
 0.11388000E+03  0.75542E-05
 0.11393000E+03  0.57426E-05
 0.11398000E+03  0.37832E-05
 0.11403000E+03  0.22250E-05
 0.11408000E+03  0.48825E-06
 0.11413000E+03 -0.11403E-05
 0.11418000E+03 -0.91225E-06
 0.11423000E+03  0.72779E-06
 0.11428000E+03  0.18254E-05
 0.11433000E+03  0.22033E-05
 0.11438000E+03  0.37068E-06
 0.11443000E+03 -0.24061E-05
 0.11448000E+03 -0.41354E-05
 0.11453000E+03 -0.52755E-05
 0.11458000E+03 -0.41684E-05
 0.11463000E+03 -0.25573E-05
 0.11468000E+03 -0.32603E-05
 0.11473000E+03 -0.37644E-05
 0.11478000E+03 -0.32617E-05
 0.11483000E+03 -0.19360E-05
 0.11488000E+03 -0.36755E-06
 0.11493000E+03  0.93566E-06
 0.11498000E+03  0.87068E-06
 0.11503000E+03 -0.11305E-05
 0.11508000E+03 -0.32980E-05
 0.11513000E+03 -0.54860E-05
 0.11518000E+03 -0.66479E-05
 0.11523000E+03 -0.86424E-05
 0.11528000E+03 -0.10701E-04
 0.11533000E+03 -0.10329E-04
 0.11538000E+03 -0.81057E-05
 0.11543000E+03 -0.41074E-05
 0.11548000E+03  0.44059E-06
 0.11553000E+03  0.62446E-05
 0.11558000E+03  0.11045E-04
 0.11563000E+03  0.12727E-04
 0.11568000E+03  0.13672E-04
 0.11573000E+03  0.14094E-04
 0.11578000E+03  0.12645E-04
 0.11583000E+03  0.94199E-05
 0.11588000E+03  0.66725E-05
 0.11593000E+03  0.54869E-05
 0.11598000E+03  0.67384E-05
 0.11603000E+03  0.10148E-04
 0.11608000E+03  0.11797E-04
 0.11613000E+03  0.10159E-04
 0.11618000E+03  0.58710E-05
 0.11623000E+03  0.29076E-06
 0.11628000E+03 -0.46691E-05
 0.11633000E+03 -0.90089E-05
 0.11638000E+03 -0.10853E-04
 0.11643000E+03 -0.10412E-04
 0.11648000E+03 -0.88211E-05
 0.11653000E+03 -0.68660E-05
 0.11658000E+03 -0.84438E-05
 0.11663000E+03 -0.13022E-04
 0.11668000E+03 -0.19513E-04
 0.11673000E+03 -0.24276E-04
 0.11678000E+03 -0.25174E-04
 0.11683000E+03 -0.23868E-04
 0.11688000E+03 -0.18378E-04
 0.11693000E+03 -0.10161E-04
 0.11698000E+03 -0.24211E-05
 0.11703000E+03  0.33675E-05
 0.11708000E+03  0.94750E-05
 0.11713000E+03  0.14744E-04
 0.11718000E+03  0.17565E-04
 0.11723000E+03  0.19121E-04
 0.11728000E+03  0.17918E-04
 0.11733000E+03  0.16371E-04
 0.11738000E+03  0.14301E-04
 0.11743000E+03  0.12768E-04
 0.11748000E+03  0.13174E-04
 0.11753000E+03  0.12277E-04
 0.11758000E+03  0.10411E-04
 0.11763000E+03  0.70297E-05
 0.11768000E+03  0.22641E-05
 0.11773000E+03 -0.17771E-05
 0.11778000E+03 -0.42027E-05
 0.11783000E+03 -0.54650E-05
 0.11788000E+03 -0.56823E-05
 0.11793000E+03 -0.52013E-05
 0.11798000E+03 -0.58660E-05
 0.11803000E+03 -0.60311E-05
 0.11808000E+03 -0.40220E-05
 0.11813000E+03 -0.86885E-06
 0.11818000E+03  0.26035E-05
 0.11823000E+03  0.67978E-05
 0.11828000E+03  0.11087E-04
 0.11833000E+03  0.14866E-04
 0.11838000E+03  0.17007E-04
 0.11843000E+03  0.14091E-04
 0.11848000E+03  0.68852E-05
 0.11853000E+03 -0.22271E-05
 0.11858000E+03 -0.12833E-04
 0.11863000E+03 -0.22190E-04
 0.11868000E+03 -0.27030E-04
 0.11873000E+03 -0.26686E-04
 0.11878000E+03 -0.22466E-04
 0.11883000E+03 -0.16726E-04
 0.11888000E+03 -0.99967E-05
 0.11893000E+03 -0.21442E-05
 0.11898000E+03  0.54445E-05
 0.11903000E+03  0.11239E-04
 0.11908000E+03  0.13535E-04
 0.11913000E+03  0.12275E-04
 0.11918000E+03  0.11064E-04
 0.11923000E+03  0.95995E-05
 0.11928000E+03  0.51843E-05
 0.11933000E+03  0.14676E-06
 0.11938000E+03 -0.31380E-05
 0.11943000E+03 -0.32427E-05
 0.11948000E+03 -0.16935E-06
 0.11953000E+03  0.49153E-05
 0.11958000E+03  0.86167E-05
 0.11963000E+03  0.82293E-05
 0.11968000E+03  0.58790E-05
 0.11973000E+03  0.22437E-05
 0.11978000E+03 -0.25476E-05
 0.11983000E+03 -0.69994E-05
 0.11988000E+03 -0.11456E-04
 0.11993000E+03 -0.17559E-04
 0.11998000E+03 -0.22241E-04
 0.12003000E+03 -0.22735E-04
 0.12008000E+03 -0.20575E-04
 0.12013000E+03 -0.16216E-04
 0.12018000E+03 -0.11024E-04
 0.12023000E+03 -0.43418E-05
 0.12028000E+03  0.27674E-05
 0.12033000E+03  0.83102E-05
 0.12038000E+03  0.15162E-04
 0.12043000E+03  0.21649E-04
 0.12048000E+03  0.25460E-04
 0.12053000E+03  0.26709E-04
 0.12058000E+03  0.24078E-04
 0.12063000E+03  0.18979E-04
 0.12068000E+03  0.11288E-04
 0.12073000E+03  0.30686E-05
 0.12078000E+03 -0.36109E-05
 0.12083000E+03 -0.94303E-05
 0.12088000E+03 -0.10382E-04
 0.12093000E+03 -0.93061E-05
 0.12098000E+03 -0.74157E-05
 0.12103000E+03 -0.29659E-05
 0.12108000E+03 -0.61748E-06
 0.12113000E+03  0.43059E-06
 0.12118000E+03  0.65636E-06
 0.12123000E+03 -0.11089E-05
 0.12128000E+03 -0.42159E-05
 0.12133000E+03 -0.61894E-05
 0.12138000E+03 -0.51280E-05
 0.12143000E+03 -0.32224E-05
 0.12148000E+03 -0.21265E-05
 0.12153000E+03 -0.37556E-05
 0.12158000E+03 -0.69856E-05
 0.12163000E+03 -0.94119E-05
 0.12168000E+03 -0.98021E-05
 0.12173000E+03 -0.79093E-05
 0.12178000E+03 -0.40020E-05
 0.12183000E+03  0.20575E-05
 0.12188000E+03  0.70438E-05
 0.12193000E+03  0.98569E-05
 0.12198000E+03  0.93760E-05
 0.12203000E+03  0.51619E-05
 0.12208000E+03  0.13255E-06
 0.12213000E+03 -0.43089E-05
 0.12218000E+03 -0.62454E-05
 0.12223000E+03 -0.49040E-05
 0.12228000E+03  0.70060E-08
 0.12233000E+03  0.74032E-05
 0.12238000E+03  0.14378E-04
 0.12243000E+03  0.19677E-04
 0.12248000E+03  0.21253E-04
 0.12253000E+03  0.18189E-04
 0.12258000E+03  0.13220E-04
 0.12263000E+03  0.64306E-05
 0.12268000E+03 -0.52599E-06
 0.12273000E+03 -0.53659E-05
 0.12278000E+03 -0.86124E-05
 0.12283000E+03 -0.87365E-05
 0.12288000E+03 -0.82861E-05
 0.12293000E+03 -0.69004E-05
 0.12298000E+03 -0.54373E-05
 0.12303000E+03 -0.65045E-05
 0.12308000E+03 -0.74172E-05
 0.12313000E+03 -0.92076E-05
 0.12318000E+03 -0.11569E-04
 0.12323000E+03 -0.12796E-04
 0.12328000E+03 -0.11841E-04
 0.12333000E+03 -0.80500E-05
 0.12338000E+03 -0.30652E-05
 0.12343000E+03  0.94022E-06
 0.12348000E+03  0.41844E-05
 0.12353000E+03  0.57937E-05
 0.12358000E+03  0.50783E-05
 0.12363000E+03  0.45195E-05
 0.12368000E+03  0.42660E-05
 0.12373000E+03  0.31563E-05
 0.12378000E+03  0.14927E-05
 0.12383000E+03 -0.53964E-06
 0.12388000E+03 -0.32489E-05
 0.12393000E+03 -0.48429E-05
 0.12398000E+03 -0.43139E-05
 0.12403000E+03 -0.21244E-05
 0.12408000E+03 -0.49619E-06
 0.12413000E+03  0.59468E-06
 0.12418000E+03  0.19269E-05
 0.12423000E+03  0.34478E-05
 0.12428000E+03  0.53794E-05
 0.12433000E+03  0.52370E-05
 0.12438000E+03  0.45006E-05
 0.12443000E+03  0.42310E-05
 0.12448000E+03  0.45406E-05
 0.12453000E+03  0.55809E-05
 0.12458000E+03  0.50552E-05
 0.12463000E+03  0.33399E-05
 0.12468000E+03  0.76671E-06
 0.12473000E+03 -0.22949E-05
 0.12478000E+03 -0.54003E-05
 0.12483000E+03 -0.79910E-05
 0.12488000E+03 -0.70232E-05
 0.12493000E+03 -0.19234E-05
 0.12498000E+03  0.45458E-05
 0.12503000E+03  0.10815E-04
 0.12508000E+03  0.15749E-04
 0.12513000E+03  0.16286E-04
 0.12518000E+03  0.12451E-04
 0.12523000E+03  0.77198E-05
 0.12528000E+03  0.33168E-05
 0.12533000E+03 -0.61685E-07
 0.12538000E+03 -0.14305E-05
 0.12543000E+03 -0.18067E-05
 0.12548000E+03 -0.26569E-05
 0.12553000E+03 -0.37236E-05
 0.12558000E+03 -0.55315E-05
 0.12563000E+03 -0.86666E-05
 0.12568000E+03 -0.12513E-04
 0.12573000E+03 -0.16976E-04
 0.12578000E+03 -0.20074E-04
 0.12583000E+03 -0.20098E-04
 0.12588000E+03 -0.16451E-04
 0.12593000E+03 -0.10643E-04
 0.12598000E+03 -0.50730E-05
 0.12603000E+03  0.56395E-06
 0.12608000E+03  0.54454E-05
 0.12613000E+03  0.84697E-05
 0.12618000E+03  0.96060E-05
 0.12623000E+03  0.92388E-05
 0.12628000E+03  0.76750E-05
 0.12633000E+03  0.61422E-05
 0.12638000E+03  0.47251E-05
 0.12643000E+03  0.26913E-05
 0.12648000E+03  0.10689E-05
 0.12653000E+03 -0.30976E-06
 0.12658000E+03  0.95419E-07
 0.12663000E+03  0.17593E-05
 0.12668000E+03  0.33158E-05
 0.12673000E+03  0.50592E-05
 0.12678000E+03  0.59105E-05
 0.12683000E+03  0.66677E-05
 0.12688000E+03  0.62062E-05
 0.12693000E+03  0.57575E-05
 0.12698000E+03  0.48718E-05
 0.12703000E+03  0.25585E-05
 0.12708000E+03  0.22877E-05
 0.12713000E+03  0.56752E-06
 0.12718000E+03 -0.37960E-06
 0.12723000E+03  0.21817E-05
 0.12728000E+03  0.32842E-05
 0.12733000E+03  0.29038E-05
 0.12738000E+03  0.80161E-06
 0.12743000E+03 -0.18095E-05
 0.12748000E+03 -0.59585E-05
 0.12753000E+03 -0.11143E-04
 0.12758000E+03 -0.12392E-04
 0.12763000E+03 -0.12864E-04
 0.12768000E+03 -0.13467E-04
 0.12773000E+03 -0.13488E-04
 0.12778000E+03 -0.12434E-04
 0.12783000E+03 -0.79170E-05
 0.12788000E+03 -0.34823E-05
 0.12793000E+03 -0.93366E-06
 0.12798000E+03  0.22847E-05
 0.12803000E+03  0.58727E-05
 0.12808000E+03  0.74848E-05
 0.12813000E+03  0.90053E-05
 0.12818001E+03  0.89777E-05
 0.12823000E+03  0.78851E-05
 0.12828000E+03  0.69651E-05
 0.12833000E+03  0.23288E-05
 0.12838000E+03 -0.26721E-05
 0.12843001E+03 -0.69571E-05
 0.12848000E+03 -0.10407E-04
 0.12853000E+03 -0.12675E-04
 0.12858000E+03 -0.12666E-04
 0.12863000E+03 -0.90810E-05
 0.12868001E+03 -0.46811E-05
 0.12873000E+03  0.11418E-05
 0.12878000E+03  0.71317E-05
 0.12883000E+03  0.12404E-04
 0.12888000E+03  0.16031E-04
 0.12893001E+03  0.16411E-04
 0.12898000E+03  0.16491E-04
 0.12903000E+03  0.17943E-04
 0.12908000E+03  0.17011E-04
 0.12913000E+03  0.12790E-04
 0.12918001E+03  0.81138E-05
 0.12923000E+03  0.30358E-05
 0.12928000E+03 -0.20402E-05
 0.12933000E+03 -0.52638E-05
 0.12938000E+03 -0.62830E-05
 0.12943001E+03 -0.61160E-05
 0.12948000E+03 -0.43493E-05
 0.12953000E+03 -0.30539E-05
 0.12958000E+03 -0.42091E-05
 0.12963000E+03 -0.50639E-05
 0.12968001E+03 -0.60576E-05
 0.12973000E+03 -0.88276E-05
 0.12978000E+03 -0.77369E-05
 0.12983000E+03 -0.28486E-05
 0.12988000E+03  0.48782E-06
 0.12993001E+03  0.42708E-05
 0.12998000E+03  0.59882E-05
 0.13003000E+03  0.42368E-05
 0.13008000E+03  0.17132E-05
 0.13013000E+03 -0.20858E-05
 0.13018001E+03 -0.45238E-05
 0.13023000E+03 -0.43863E-05
 0.13028000E+03 -0.49945E-05
 0.13033000E+03 -0.48708E-05
 0.13038000E+03 -0.12951E-05
 0.13043001E+03  0.73945E-06
 0.13048000E+03 -0.20995E-05
 0.13053000E+03 -0.54447E-05
 0.13058000E+03 -0.70337E-05
 0.13063000E+03 -0.10050E-04
 0.13068001E+03 -0.11652E-04
 0.13073000E+03 -0.11714E-04
 0.13078000E+03 -0.11059E-04
 0.13083000E+03 -0.71386E-05
 0.13088000E+03 -0.37040E-05
 0.13093001E+03 -0.73053E-06
 0.13098000E+03  0.30178E-05
 0.13103000E+03  0.54638E-05
 0.13108000E+03  0.69151E-05
 0.13113000E+03  0.10093E-04
 0.13118001E+03  0.12372E-04
 0.13123000E+03  0.13563E-04
 0.13128000E+03  0.13708E-04
 0.13133000E+03  0.96683E-05
 0.13138000E+03  0.45717E-05
 0.13143001E+03  0.70854E-06
 0.13148000E+03 -0.23962E-05
 0.13153000E+03 -0.60953E-05
 0.13158000E+03 -0.81229E-05
 0.13163000E+03 -0.96334E-05
 0.13168001E+03 -0.10573E-04
 0.13173000E+03 -0.98233E-05
 0.13178000E+03 -0.84189E-05
 0.13183000E+03 -0.36301E-05
 0.13188000E+03  0.11732E-05
 0.13193001E+03  0.75448E-05
 0.13198000E+03  0.13585E-04
 0.13203000E+03  0.15201E-04
 0.13208000E+03  0.17947E-04
 0.13213000E+03  0.18522E-04
 0.13218001E+03  0.16003E-04
 0.13223000E+03  0.13515E-04
 0.13228000E+03  0.99950E-05
 0.13233000E+03  0.34425E-05
 0.13238000E+03 -0.32042E-05
 0.13243001E+03 -0.50666E-05
 0.13248000E+03 -0.98768E-05
 0.13253000E+03 -0.14795E-04
 0.13258000E+03 -0.13994E-04
 0.13263000E+03 -0.13237E-04
 0.13268001E+03 -0.11685E-04
 0.13273000E+03 -0.99525E-05
 0.13278000E+03 -0.86146E-05
 0.13283000E+03 -0.75606E-05
 0.13288000E+03 -0.75239E-05
 0.13293001E+03 -0.54285E-05
 0.13298000E+03 -0.14553E-05
 0.13303000E+03  0.13554E-05
 0.13308000E+03  0.22312E-05
 0.13313000E+03  0.42143E-05
 0.13318001E+03  0.62526E-05
 0.13323000E+03  0.59868E-05
 0.13328000E+03  0.72919E-05
 0.13333000E+03  0.92863E-05
 0.13338000E+03  0.81737E-05
 0.13343001E+03  0.65715E-05
 0.13348000E+03  0.87257E-05
 0.13353000E+03  0.10554E-04
 0.13358000E+03  0.10678E-04
 0.13363000E+03  0.12407E-04
 0.13368001E+03  0.11416E-04
 0.13373000E+03  0.91912E-05
 0.13378000E+03  0.61906E-05
 0.13383000E+03  0.10503E-05
 0.13388000E+03 -0.34643E-05
 0.13393001E+03 -0.72903E-05
 0.13398000E+03 -0.79210E-05
 0.13403000E+03 -0.75241E-05
 0.13408000E+03 -0.68676E-05
 0.13413000E+03 -0.63795E-05
 0.13418001E+03 -0.72784E-05
 0.13423000E+03 -0.79920E-05
 0.13428000E+03 -0.97546E-05
 0.13433000E+03 -0.10348E-04
 0.13438000E+03 -0.11406E-04
 0.13443001E+03 -0.13929E-04
 0.13448000E+03 -0.15037E-04
 0.13453000E+03 -0.14571E-04
 0.13458000E+03 -0.13112E-04
 0.13463000E+03 -0.11347E-04
 0.13468001E+03 -0.78783E-05
 0.13473000E+03 -0.33762E-05
 0.13478000E+03  0.13327E-05
 0.13483000E+03  0.68686E-05
 0.13488000E+03  0.11384E-04
 0.13493001E+03  0.13078E-04
 0.13498000E+03  0.13387E-04
 0.13503000E+03  0.14013E-04
 0.13508000E+03  0.13147E-04
 0.13513000E+03  0.10522E-04
 0.13518001E+03  0.77588E-05
 0.13523000E+03  0.62679E-05
 0.13528000E+03  0.49984E-05
 0.13533000E+03  0.26487E-05
 0.13538000E+03  0.19149E-05
 0.13543001E+03  0.20874E-05
 0.13548000E+03  0.19146E-05
 0.13553000E+03 -0.52655E-06
 0.13558000E+03 -0.41348E-05
 0.13563000E+03 -0.55781E-05
 0.13568001E+03 -0.68367E-05
 0.13573000E+03 -0.68997E-05
 0.13578000E+03 -0.71343E-05
 0.13583000E+03 -0.54165E-05
 0.13588000E+03 -0.20422E-05
 0.13593001E+03 -0.99757E-06
 0.13598000E+03  0.22620E-05
 0.13603000E+03  0.49571E-05
 0.13608000E+03  0.58501E-05
 0.13613000E+03  0.65568E-05
 0.13618001E+03  0.57469E-05
 0.13623000E+03  0.22435E-05
 0.13628000E+03 -0.32231E-05
 0.13633000E+03 -0.70225E-05
 0.13638000E+03 -0.10213E-04
 0.13643001E+03 -0.10263E-04
 0.13648000E+03 -0.76717E-05
 0.13653000E+03 -0.42149E-05
 0.13658000E+03 -0.14918E-06
 0.13663000E+03  0.32796E-05
 0.13668001E+03  0.74371E-05
 0.13673000E+03  0.89387E-05
 0.13678000E+03  0.91203E-05
 0.13683000E+03  0.83840E-05
 0.13688000E+03  0.64660E-05
 0.13693001E+03  0.37013E-05
 0.13698000E+03  0.10170E-05
 0.13703000E+03  0.12039E-05
 0.13708000E+03  0.44044E-06
 0.13713000E+03  0.18846E-05
 0.13718001E+03  0.28643E-05
 0.13723000E+03  0.61458E-06
 0.13728000E+03 -0.50603E-06
 0.13733000E+03 -0.24378E-05
 0.13738000E+03 -0.40738E-05
 0.13743001E+03 -0.60790E-05
 0.13748000E+03 -0.51518E-05
 0.13753000E+03 -0.26218E-05
 0.13758000E+03 -0.36529E-05
 0.13763000E+03 -0.24718E-05
 0.13768001E+03 -0.26834E-06
 0.13773000E+03 -0.41680E-06
 0.13778000E+03 -0.14379E-05
 0.13783000E+03 -0.33400E-05
 0.13788000E+03 -0.32587E-05
 0.13793001E+03 -0.82297E-07
 0.13798000E+03  0.17645E-05
 0.13803000E+03  0.31387E-05
 0.13808000E+03  0.58405E-05
 0.13813000E+03  0.74758E-05
 0.13818001E+03  0.82021E-05
 0.13823000E+03  0.59790E-05
 0.13828000E+03  0.28055E-06
 0.13833000E+03 -0.56965E-05
 0.13838000E+03 -0.94487E-05
 0.13843001E+03 -0.10959E-04
 0.13848000E+03 -0.11247E-04
 0.13853000E+03 -0.89796E-05
 0.13858000E+03 -0.53878E-05
 0.13863000E+03 -0.17083E-05
 0.13868001E+03  0.75849E-06
 0.13873000E+03  0.23823E-05
 0.13878000E+03  0.49043E-05
 0.13883000E+03  0.57761E-05
 0.13888000E+03  0.44957E-05
 0.13893001E+03  0.23058E-05
 0.13898000E+03  0.81684E-06
 0.13903000E+03 -0.42261E-06
 0.13908000E+03 -0.14605E-05
 0.13913000E+03  0.10717E-05
 0.13918001E+03  0.61210E-05
 0.13923000E+03  0.95532E-05
 0.13928000E+03  0.89594E-05
 0.13933000E+03  0.68513E-05
 0.13938000E+03  0.42272E-05
 0.13943001E+03  0.63874E-07
 0.13948000E+03 -0.21220E-05
 0.13953000E+03 -0.42244E-05
 0.13958000E+03 -0.63197E-05
 0.13963000E+03 -0.45751E-05
 0.13968001E+03 -0.26649E-05
 0.13973000E+03 -0.19781E-05
 0.13978000E+03 -0.34868E-05
 0.13983000E+03 -0.58936E-05
 0.13988000E+03 -0.55452E-05
 0.13993001E+03 -0.45019E-05
 0.13998000E+03 -0.29606E-05
 0.14003000E+03 -0.11617E-05
 0.14008000E+03  0.41876E-06
 0.14013000E+03  0.15878E-05
 0.14018001E+03  0.31581E-05
 0.14023000E+03  0.47030E-05
 0.14028000E+03  0.33357E-05
 0.14033000E+03  0.23874E-05
 0.14038000E+03  0.28694E-05
 0.14043001E+03  0.35524E-05
 0.14048000E+03  0.46799E-05
 0.14053000E+03  0.44565E-05
 0.14058000E+03  0.50419E-05
 0.14063000E+03  0.63321E-05
 0.14068001E+03  0.46670E-05
 0.14073000E+03  0.26383E-06
 0.14078000E+03 -0.44176E-05
 0.14083000E+03 -0.75033E-05
 0.14088000E+03 -0.89535E-05
 0.14093001E+03 -0.10476E-04
 0.14098000E+03 -0.12162E-04
 0.14103000E+03 -0.96825E-05
 0.14108000E+03 -0.61991E-05
 0.14113000E+03 -0.50972E-05
 0.14118001E+03 -0.14648E-05
 0.14123000E+03  0.26490E-05
 0.14128000E+03  0.63991E-05
 0.14133000E+03  0.10084E-04
 0.14138000E+03  0.11124E-04
 0.14143001E+03  0.11038E-04
 0.14148000E+03  0.99356E-05
 0.14153000E+03  0.85847E-05
 0.14158000E+03  0.66710E-05
 0.14163000E+03  0.28887E-05
 0.14168001E+03 -0.61377E-06
 0.14173000E+03 -0.20472E-05
 0.14178000E+03 -0.20537E-05
 0.14183000E+03 -0.27595E-05
 0.14188000E+03 -0.21370E-05
 0.14193001E+03 -0.13373E-05
 0.14198000E+03 -0.23109E-05
 0.14203000E+03 -0.24437E-05
 0.14208000E+03 -0.45720E-05
 0.14213000E+03 -0.67943E-05
 0.14218001E+03 -0.74685E-05
 0.14223000E+03 -0.73025E-05
 0.14228000E+03 -0.45547E-05
 0.14233000E+03 -0.20700E-05
 0.14238000E+03  0.59628E-06
 0.14243001E+03  0.32058E-05
 0.14248000E+03  0.47229E-05
 0.14253000E+03  0.50802E-05
 0.14258000E+03  0.53731E-05
 0.14263000E+03  0.58503E-05
 0.14268001E+03  0.92839E-06
 0.14273000E+03 -0.47698E-05
 0.14278000E+03 -0.72960E-05
 0.14283000E+03 -0.95320E-05
 0.14288000E+03 -0.10424E-04
 0.14293001E+03 -0.92722E-05
 0.14298000E+03 -0.34603E-05
 0.14303000E+03 -0.98997E-08
 0.14308000E+03  0.16089E-05
 0.14313000E+03  0.68335E-05
 0.14318001E+03  0.96417E-05
 0.14323000E+03  0.91279E-05
 0.14328000E+03  0.57144E-05
 0.14333000E+03  0.63256E-05
 0.14338000E+03  0.94766E-05
 0.14343001E+03  0.10074E-04
 0.14348000E+03  0.10120E-04
 0.14353000E+03  0.63723E-05
 0.14358000E+03  0.91989E-06
 0.14363000E+03 -0.40376E-05
 0.14368001E+03 -0.51014E-05
 0.14373000E+03 -0.32515E-05
 0.14378000E+03 -0.29068E-05
 0.14383000E+03 -0.80732E-06
 0.14388000E+03 -0.25720E-05
 0.14393001E+03 -0.48125E-05
 0.14398000E+03 -0.36506E-05
 0.14403000E+03 -0.64960E-05
 0.14408000E+03 -0.71613E-05
 0.14413000E+03 -0.32979E-05
 0.14418001E+03  0.10352E-05
 0.14423000E+03 -0.18056E-05
 0.14428000E+03 -0.60887E-05
 0.14433000E+03 -0.55717E-05
 0.14438000E+03 -0.63673E-05
 0.14443001E+03 -0.42338E-05
 0.14448000E+03  0.14397E-05
 0.14453000E+03  0.37476E-05
 0.14458000E+03 -0.31570E-05
 0.14463000E+03 -0.66695E-05
 0.14468001E+03 -0.39567E-05
 0.14473000E+03 -0.13594E-06
 0.14478000E+03  0.54835E-05
 0.14483000E+03  0.46252E-05
 0.14488000E+03  0.39701E-05
 0.14493001E+03  0.92173E-05
 0.14498000E+03  0.12114E-04
 0.14503000E+03  0.78114E-05
 0.14508000E+03  0.38373E-05
 0.14513000E+03  0.51506E-05
 0.14518001E+03  0.55135E-05
 0.14523000E+03  0.26835E-05
 0.14528000E+03  0.87547E-07
 0.14533000E+03 -0.26746E-05
 0.14538000E+03 -0.54982E-05
 0.14543001E+03 -0.60541E-05
 0.14548000E+03 -0.52411E-05
 0.14553000E+03 -0.53185E-05
 0.14558000E+03 -0.67134E-05
 0.14563000E+03 -0.64505E-05
 0.14568001E+03 -0.64719E-05
 0.14573000E+03 -0.32938E-05
 0.14578000E+03 -0.16209E-05
 0.14583000E+03 -0.14924E-05
 0.14588000E+03  0.41762E-05
 0.14593001E+03  0.34861E-05
 0.14598000E+03  0.45330E-05
 0.14603000E+03  0.26184E-05
 0.14608000E+03 -0.56661E-05
 0.14613000E+03 -0.36955E-05
 0.14618001E+03  0.22208E-07
 0.14623000E+03  0.21808E-05
 0.14628000E+03 -0.67337E-07
 0.14633000E+03 -0.25323E-05
 0.14638000E+03 -0.16677E-05
 0.14643001E+03 -0.43761E-06
 0.14648000E+03  0.38326E-05
 0.14653000E+03  0.74551E-05
 0.14658000E+03  0.12038E-04
 0.14663000E+03  0.14086E-04
 0.14668001E+03  0.13966E-04
 0.14673000E+03  0.12364E-04
 0.14678000E+03  0.77095E-05
 0.14683000E+03  0.36341E-06
 0.14688000E+03 -0.67738E-05
 0.14693001E+03 -0.89377E-05
 0.14698000E+03 -0.90326E-05
 0.14703000E+03 -0.58297E-05
 0.14708000E+03 -0.50543E-05
 0.14713000E+03 -0.62073E-05
 0.14718001E+03 -0.59850E-05
 0.14723000E+03 -0.38409E-05
 0.14728000E+03  0.43384E-05
 0.14733000E+03  0.81475E-05
 0.14738000E+03  0.93299E-05
 0.14743001E+03  0.11259E-04
 0.14748000E+03  0.95515E-05
 0.14753000E+03  0.80793E-05
 0.14758000E+03  0.48627E-05
 0.14763000E+03  0.20346E-05
 0.14768001E+03 -0.15919E-05
 0.14773000E+03 -0.78428E-05
 0.14778000E+03 -0.10015E-04
 0.14783000E+03 -0.11463E-04
 0.14788000E+03 -0.14340E-04
 0.14793001E+03 -0.13003E-04
 0.14798000E+03 -0.10429E-04
 0.14803000E+03 -0.88955E-05
 0.14808000E+03 -0.24816E-05
 0.14813000E+03  0.41563E-05
 0.14818001E+03  0.71815E-05
 0.14823000E+03  0.79986E-05
 0.14828000E+03  0.42815E-05
 0.14833000E+03  0.17043E-05
 0.14838000E+03  0.25685E-05
 0.14843001E+03  0.15250E-05
 0.14848000E+03 -0.10246E-05
 0.14853000E+03 -0.98241E-06
 0.14858000E+03 -0.25344E-05
 0.14863000E+03 -0.61807E-05
 0.14868001E+03 -0.63898E-05
 0.14873000E+03 -0.50914E-05
 0.14878000E+03 -0.54519E-06
 0.14883000E+03  0.81679E-06
 0.14888000E+03 -0.21334E-05
 0.14893001E+03 -0.22895E-06
 0.14898000E+03 -0.24647E-06
 0.14903000E+03 -0.14042E-06
 0.14908000E+03  0.35927E-05
 0.14913000E+03  0.52929E-05
 0.14918001E+03  0.55722E-05
 0.14923000E+03  0.30301E-05
 0.14928000E+03 -0.65451E-06
 0.14933000E+03 -0.36502E-05
 0.14938000E+03 -0.70275E-05
 0.14943001E+03 -0.82577E-05
 0.14948000E+03 -0.70997E-05
 0.14953000E+03 -0.51974E-05
 0.14958000E+03 -0.97511E-06
 0.14963000E+03  0.48364E-05
 0.14968001E+03  0.76853E-05
 0.14973000E+03  0.79460E-05
 0.14978000E+03  0.92834E-05
 0.14983000E+03  0.11067E-04
 0.14988000E+03  0.72946E-05
 0.14993001E+03  0.14813E-05
 0.14998000E+03 -0.47090E-06
