-0.20000458E-01  0.26607E-05
 0.29999543E-01  0.36971E-06
 0.79999544E-01  0.70330E-07
 0.12999955E+00  0.26898E-06
 0.17999955E+00  0.71805E-06
 0.22999954E+00  0.13905E-05
 0.27999955E+00  0.25448E-06
 0.32999954E+00 -0.20232E-05
 0.37999955E+00 -0.33928E-05
 0.42999956E+00 -0.28516E-05
 0.47999954E+00 -0.78946E-06
 0.52999955E+00  0.61284E-06
 0.57999957E+00  0.54000E-06
 0.62999958E+00 -0.30721E-06
 0.67999953E+00 -0.19981E-05
 0.72999954E+00 -0.25034E-05
 0.77999955E+00 -0.13975E-05
 0.82999957E+00 -0.28261E-06
 0.87999958E+00  0.17816E-05
 0.92999953E+00  0.28408E-05
 0.97999954E+00  0.19634E-05
 0.10299996E+01  0.93639E-06
 0.10799996E+01 -0.22452E-06
 0.11299995E+01 -0.14726E-06
 0.11799996E+01  0.96109E-06
 0.12299995E+01  0.19711E-05
 0.12799996E+01  0.21077E-05
 0.13299996E+01  0.11552E-05
 0.13799995E+01  0.24301E-06
 0.14299996E+01 -0.77818E-06
 0.14799995E+01 -0.69841E-06
 0.15299996E+01  0.41078E-06
 0.15799996E+01  0.79053E-06
 0.16299995E+01  0.71064E-06
 0.16799996E+01  0.16733E-06
 0.17299995E+01 -0.62675E-06
 0.17799996E+01 -0.87876E-06
 0.18299996E+01 -0.10810E-05
 0.18799995E+01 -0.13671E-05
 0.19299996E+01 -0.13746E-05
 0.19799995E+01 -0.16254E-05
 0.20299995E+01 -0.16736E-05
 0.20799997E+01 -0.11945E-05
 0.21299996E+01 -0.95117E-06
 0.21799996E+01 -0.90966E-06
 0.22299995E+01 -0.93595E-06
 0.22799995E+01 -0.88281E-06
 0.23299997E+01 -0.62152E-06
 0.23799996E+01  0.88780E-07
 0.24299996E+01  0.10806E-05
 0.24799995E+01  0.15031E-05
 0.25299995E+01  0.18396E-05
 0.25799997E+01  0.14187E-05
 0.26299996E+01  0.35950E-06
 0.26799996E+01  0.64481E-06
 0.27299995E+01  0.19195E-05
 0.27799995E+01  0.27709E-05
 0.28299997E+01  0.25060E-05
 0.28799996E+01  0.18664E-05
 0.29299996E+01  0.12871E-05
 0.29799995E+01  0.41352E-06
 0.30299995E+01 -0.20112E-07
 0.30799997E+01  0.70592E-07
 0.31299996E+01 -0.46259E-06
 0.31799996E+01 -0.69323E-06
 0.32299995E+01 -0.32497E-06
 0.32799995E+01 -0.79149E-06
 0.33299997E+01 -0.14760E-05
 0.33799996E+01 -0.14779E-05
 0.34299996E+01 -0.18911E-05
 0.34799995E+01 -0.30647E-05
 0.35299995E+01 -0.26653E-05
 0.35799997E+01 -0.10644E-05
 0.36299996E+01 -0.74930E-07
 0.36799996E+01  0.50947E-06
 0.37299995E+01  0.81345E-06
 0.37799995E+01  0.46144E-06
 0.38299997E+01  0.36734E-07
 0.38799996E+01  0.32715E-06
 0.39299996E+01  0.74787E-06
 0.39799995E+01  0.15624E-05
 0.40299997E+01  0.19398E-05
 0.40799994E+01  0.54925E-06
 0.41299996E+01 -0.15768E-05
 0.41799998E+01 -0.24158E-05
 0.42299995E+01 -0.14019E-05
 0.42799997E+01 -0.27097E-06
 0.43299994E+01  0.14559E-06
 0.43799996E+01  0.13353E-06
 0.44299998E+01 -0.39845E-06
 0.44799995E+01 -0.11314E-05
 0.45299997E+01 -0.95567E-06
 0.45799994E+01  0.34858E-06
 0.46299996E+01  0.94177E-06
 0.46799998E+01  0.42604E-06
 0.47299995E+01  0.35290E-06
 0.47799997E+01  0.51088E-06
 0.48299994E+01  0.27333E-06
 0.48799996E+01 -0.13701E-06
 0.49299998E+01 -0.69178E-06
 0.49799995E+01 -0.67266E-06
 0.50299997E+01  0.30267E-06
 0.50799994E+01  0.59051E-06
 0.51299996E+01  0.14678E-06
 0.51799998E+01  0.14946E-05
 0.52299995E+01  0.31229E-05
 0.52799997E+01  0.24200E-05
 0.53299994E+01  0.75894E-06
 0.53799996E+01 -0.36417E-06
 0.54299998E+01 -0.39100E-06
 0.54799995E+01  0.20769E-06
 0.55299997E+01  0.12587E-05
 0.55799994E+01  0.23416E-05
 0.56299996E+01  0.16851E-05
 0.56799998E+01  0.54171E-06
 0.57299995E+01  0.37265E-08
 0.57799997E+01 -0.29696E-06
 0.58299994E+01  0.69545E-06
 0.58799996E+01  0.10173E-05
 0.59299998E+01 -0.25102E-06
 0.59799995E+01 -0.12532E-05
 0.60299997E+01 -0.18699E-05
 0.60799994E+01 -0.18145E-05
 0.61299996E+01 -0.90405E-06
 0.61799998E+01 -0.28138E-06
 0.62299995E+01 -0.10276E-05
 0.62799997E+01 -0.20703E-05
 0.63299994E+01 -0.21613E-05
 0.63799996E+01 -0.12829E-05
 0.64299998E+01 -0.45624E-06
 0.64799995E+01 -0.47667E-06
 0.65299997E+01 -0.11847E-05
 0.65799994E+01 -0.25009E-05
 0.66299996E+01 -0.26525E-05
 0.66799998E+01 -0.12612E-05
 0.67299995E+01 -0.19787E-06
 0.67799997E+01  0.19263E-06
 0.68299994E+01  0.37099E-06
 0.68799996E+01 -0.17279E-07
 0.69299998E+01 -0.10117E-05
 0.69799995E+01 -0.71732E-06
 0.70299997E+01  0.69247E-06
 0.70799994E+01  0.85007E-06
 0.71299996E+01  0.66119E-06
 0.71799998E+01  0.11280E-05
 0.72299995E+01  0.12850E-05
 0.72799997E+01  0.12557E-05
 0.73299994E+01  0.19203E-05
 0.73799996E+01  0.25989E-05
 0.74299998E+01  0.24319E-05
 0.74799995E+01  0.15744E-05
 0.75299997E+01  0.61810E-06
 0.75799994E+01  0.35779E-06
 0.76299996E+01  0.91536E-07
 0.76799998E+01  0.22480E-06
 0.77299995E+01  0.52066E-06
 0.77799997E+01  0.64546E-06
 0.78299994E+01  0.62939E-06
 0.78799996E+01 -0.47725E-06
 0.79299998E+01 -0.44815E-06
 0.79799995E+01  0.40590E-06
 0.80299997E+01  0.48048E-06
 0.80799999E+01  0.19268E-06
 0.81300001E+01 -0.12700E-05
 0.81799994E+01 -0.22277E-05
 0.82299995E+01 -0.14219E-05
 0.82799997E+01  0.18762E-06
 0.83299999E+01  0.16856E-05
 0.83800001E+01  0.16757E-05
 0.84299994E+01  0.87524E-06
 0.84799995E+01 -0.32042E-06
 0.85299997E+01 -0.78682E-06
 0.85799999E+01  0.36911E-06
 0.86300001E+01  0.95163E-06
 0.86799994E+01  0.11754E-05
 0.87299995E+01  0.77919E-06
 0.87799997E+01 -0.90585E-06
 0.88299999E+01 -0.24377E-05
 0.88800001E+01 -0.30118E-05
 0.89299994E+01 -0.21620E-05
 0.89799995E+01 -0.20461E-06
 0.90299997E+01  0.12845E-05
 0.90799999E+01  0.93071E-06
 0.91300001E+01 -0.36092E-06
 0.91799994E+01 -0.15742E-05
 0.92299995E+01 -0.24264E-05
 0.92799997E+01 -0.13240E-05
 0.93299999E+01  0.44509E-06
 0.93800001E+01  0.53921E-06
 0.94299994E+01 -0.75674E-07
 0.94799995E+01 -0.87620E-06
 0.95299997E+01 -0.11805E-05
 0.95799999E+01 -0.54043E-06
 0.96300001E+01 -0.23923E-07
 0.96799994E+01 -0.33303E-06
 0.97299995E+01 -0.69511E-06
 0.97799997E+01  0.36567E-06
 0.98299999E+01  0.13089E-05
 0.98800001E+01  0.83503E-06
 0.99299994E+01  0.25394E-06
 0.99799995E+01  0.54422E-06
 0.10030000E+02  0.85293E-06
 0.10080000E+02  0.30223E-06
 0.10130000E+02 -0.17372E-06
 0.10179999E+02 -0.81906E-06
 0.10230000E+02 -0.11061E-05
 0.10280000E+02 -0.43831E-06
 0.10330000E+02  0.99564E-06
 0.10380000E+02  0.21559E-05
 0.10429999E+02  0.16451E-05
 0.10480000E+02  0.13130E-05
 0.10530000E+02  0.92515E-06
 0.10580000E+02  0.69377E-06
 0.10630000E+02  0.10223E-05
 0.10679999E+02  0.68958E-06
 0.10730000E+02  0.90242E-06
 0.10780000E+02  0.12607E-05
 0.10830000E+02  0.70978E-06
 0.10880000E+02 -0.94459E-07
 0.10929999E+02 -0.74402E-07
 0.10980000E+02 -0.56390E-06
 0.11030000E+02 -0.14350E-05
 0.11080000E+02 -0.10319E-05
 0.11130000E+02 -0.44972E-06
 0.11179999E+02  0.42309E-06
 0.11230000E+02  0.43616E-06
 0.11280000E+02 -0.81529E-06
 0.11330000E+02 -0.13188E-05
 0.11380000E+02 -0.98874E-06
 0.11429999E+02 -0.64621E-06
 0.11480000E+02 -0.57037E-06
 0.11530000E+02  0.52481E-06
 0.11580000E+02  0.15160E-05
 0.11630000E+02  0.10028E-05
 0.11679999E+02  0.43754E-07
 0.11730000E+02 -0.12207E-05
 0.11780000E+02 -0.99036E-06
 0.11830000E+02  0.29709E-06
 0.11880000E+02  0.73852E-06
 0.11929999E+02  0.14981E-05
 0.11980000E+02  0.12649E-05
 0.12030000E+02 -0.92430E-06
 0.12080000E+02 -0.26010E-05
 0.12130000E+02 -0.19727E-05
 0.12179999E+02 -0.37821E-06
 0.12230000E+02  0.47233E-07
 0.12280000E+02  0.28161E-06
 0.12330000E+02 -0.26289E-06
 0.12380000E+02 -0.18377E-05
 0.12429999E+02 -0.19091E-05
 0.12480000E+02 -0.13996E-05
 0.12530000E+02 -0.80573E-06
 0.12580000E+02  0.91770E-06
 0.12630000E+02  0.22647E-05
 0.12679999E+02  0.15157E-05
 0.12730000E+02 -0.79082E-06
 0.12780000E+02 -0.23565E-05
 0.12830000E+02 -0.14207E-05
 0.12880000E+02  0.84736E-06
 0.12929999E+02  0.22762E-05
 0.12980000E+02  0.20297E-05
 0.13030000E+02  0.78596E-06
 0.13080000E+02 -0.12547E-06
 0.13130000E+02 -0.63096E-06
 0.13179999E+02 -0.28689E-06
 0.13230000E+02  0.28973E-06
 0.13280000E+02  0.36038E-06
 0.13330000E+02  0.77145E-06
 0.13380000E+02  0.10768E-05
 0.13429999E+02  0.46286E-06
 0.13480000E+02 -0.63587E-06
 0.13530000E+02 -0.31425E-06
 0.13580000E+02  0.10280E-05
 0.13630000E+02  0.13662E-05
 0.13679999E+02  0.12456E-05
 0.13730000E+02  0.10292E-05
 0.13780000E+02  0.13387E-06
 0.13830000E+02 -0.12780E-05
 0.13880000E+02 -0.78663E-06
 0.13929999E+02  0.15576E-05
 0.13980000E+02  0.16869E-05
 0.14030000E+02  0.30505E-06
 0.14080000E+02 -0.72213E-06
 0.14130000E+02 -0.21235E-05
 0.14179999E+02 -0.20128E-05
 0.14230000E+02 -0.13431E-06
 0.14280000E+02  0.64149E-06
 0.14330000E+02  0.55726E-06
 0.14380000E+02  0.18257E-06
 0.14429999E+02 -0.84627E-06
 0.14480000E+02 -0.16080E-05
 0.14530000E+02 -0.19797E-05
 0.14580000E+02 -0.13597E-05
 0.14630000E+02  0.26505E-06
 0.14679999E+02  0.14006E-05
 0.14730000E+02  0.13378E-05
 0.14780000E+02 -0.29822E-06
 0.14830000E+02 -0.21800E-05
 0.14880000E+02 -0.14638E-05
 0.14929999E+02  0.11616E-05
 0.14980000E+02  0.29821E-05
 0.15030000E+02  0.37535E-05
 0.15080000E+02  0.24057E-05
 0.15130000E+02 -0.71243E-06
 0.15179999E+02 -0.18847E-05
 0.15230000E+02 -0.79151E-06
 0.15280000E+02  0.10688E-05
 0.15330000E+02  0.21426E-05
 0.15380000E+02  0.14439E-05
 0.15429999E+02 -0.59814E-06
 0.15480000E+02 -0.34478E-05
 0.15530000E+02 -0.47815E-05
 0.15580000E+02 -0.35145E-05
 0.15630000E+02 -0.13862E-06
 0.15679999E+02  0.25033E-05
 0.15730000E+02  0.14478E-05
 0.15780000E+02 -0.73736E-06
 0.15830000E+02 -0.29491E-05
 0.15880000E+02 -0.40079E-05
 0.15929999E+02 -0.19888E-05
 0.15980000E+02  0.11516E-05
 0.16030001E+02  0.31673E-05
 0.16080000E+02  0.19474E-05
 0.16129999E+02 -0.33418E-06
 0.16180000E+02 -0.12779E-05
 0.16230000E+02 -0.58158E-06
 0.16280001E+02  0.19012E-05
 0.16330000E+02  0.37881E-05
 0.16379999E+02  0.42830E-05
 0.16430000E+02  0.22652E-05
 0.16480000E+02 -0.12658E-05
 0.16530001E+02 -0.26289E-05
 0.16580000E+02 -0.17219E-05
 0.16629999E+02  0.88756E-06
 0.16680000E+02  0.32350E-05
 0.16730000E+02  0.26622E-05
 0.16780001E+02  0.10037E-05
 0.16830000E+02 -0.99501E-06
 0.16879999E+02 -0.30183E-05
 0.16930000E+02 -0.22685E-05
 0.16980000E+02  0.18669E-06
 0.17030001E+02  0.16754E-05
 0.17080000E+02  0.14183E-05
 0.17129999E+02 -0.58887E-06
 0.17180000E+02 -0.29743E-05
 0.17230000E+02 -0.29739E-05
 0.17280001E+02 -0.86247E-06
 0.17330000E+02  0.13305E-05
 0.17379999E+02  0.18940E-05
 0.17430000E+02 -0.86698E-07
 0.17480000E+02 -0.17671E-05
 0.17530001E+02 -0.19781E-05
 0.17580000E+02 -0.11528E-06
 0.17629999E+02  0.21129E-05
 0.17680000E+02  0.20713E-05
 0.17730000E+02  0.10737E-05
 0.17780001E+02 -0.64359E-06
 0.17830000E+02 -0.14465E-05
 0.17879999E+02 -0.91662E-06
 0.17930000E+02  0.72601E-06
 0.17980000E+02  0.22857E-05
 0.18030001E+02  0.13992E-05
 0.18080000E+02  0.34508E-06
 0.18129999E+02 -0.25945E-06
 0.18180000E+02 -0.68134E-06
 0.18230000E+02 -0.24851E-06
 0.18280001E+02  0.57821E-07
 0.18330000E+02 -0.22799E-06
 0.18379999E+02 -0.16812E-06
 0.18430000E+02  0.36142E-06
 0.18480000E+02 -0.26533E-06
 0.18530001E+02 -0.19162E-05
 0.18580000E+02 -0.24124E-05
 0.18629999E+02 -0.83403E-06
 0.18680000E+02  0.61087E-06
 0.18730000E+02  0.65003E-06
 0.18780001E+02 -0.66814E-07
 0.18830000E+02 -0.35574E-06
 0.18879999E+02 -0.57147E-06
 0.18930000E+02 -0.14521E-05
 0.18980000E+02 -0.87486E-06
 0.19030001E+02  0.44638E-06
 0.19080000E+02  0.11897E-05
 0.19129999E+02  0.17810E-05
 0.19180000E+02  0.22360E-05
 0.19230000E+02  0.25376E-05
 0.19280001E+02  0.26197E-05
 0.19330000E+02  0.14560E-05
 0.19379999E+02 -0.10827E-05
 0.19430000E+02 -0.43195E-05
 0.19480000E+02 -0.11254E-04
 0.19530001E+02 -0.20668E-04
 0.19580000E+02 -0.28434E-04
 0.19629999E+02 -0.32288E-04
 0.19680000E+02 -0.25353E-04
 0.19730000E+02  0.29556E-05
 0.19780001E+02  0.51039E-04
 0.19830000E+02  0.96035E-04
 0.19879999E+02  0.12104E-03
 0.19930000E+02  0.89627E-04
 0.19980000E+02 -0.46045E-04
 0.20030001E+02 -0.19316E-03
 0.20080000E+02 -0.19944E-03
 0.20129999E+02 -0.84333E-04
 0.20180000E+02  0.42311E-04
 0.20230000E+02  0.71719E-04
 0.20280001E+02 -0.30447E-04
 0.20330000E+02 -0.10203E-03
 0.20379999E+02 -0.34033E-04
 0.20430000E+02  0.90545E-04
 0.20480000E+02  0.19949E-03
 0.20530001E+02  0.22168E-03
 0.20580000E+02  0.94474E-04
 0.20629999E+02 -0.44473E-04
 0.20680000E+02 -0.29379E-04
 0.20730000E+02  0.13843E-04
 0.20780001E+02 -0.35925E-04
 0.20830000E+02 -0.52818E-04
 0.20879999E+02  0.10758E-04
 0.20930000E+02  0.74706E-04
 0.20980000E+02  0.97159E-04
 0.21030001E+02  0.10659E-04
 0.21080000E+02 -0.12358E-03
 0.21129999E+02 -0.81692E-04
 0.21180000E+02  0.27962E-04
 0.21230000E+02  0.56252E-04
 0.21280001E+02  0.83795E-04
 0.21330000E+02 -0.29223E-05
 0.21379999E+02 -0.11819E-03
 0.21430000E+02 -0.85700E-04
 0.21480000E+02 -0.36318E-04
 0.21530001E+02 -0.23910E-04
 0.21580000E+02 -0.53630E-04
 0.21629999E+02 -0.12731E-03
 0.21680000E+02 -0.10941E-03
 0.21730000E+02 -0.23429E-04
 0.21780001E+02 -0.12759E-04
 0.21830000E+02  0.16005E-04
 0.21879999E+02  0.90911E-04
 0.21930000E+02  0.13318E-03
 0.21980000E+02  0.13985E-03
 0.22030001E+02  0.60071E-04
 0.22080000E+02 -0.60561E-04
 0.22129999E+02 -0.66796E-04
 0.22180000E+02 -0.98629E-05
 0.22230000E+02 -0.74902E-04
 0.22280001E+02 -0.16236E-03
 0.22330000E+02 -0.15457E-03
 0.22379999E+02 -0.94758E-04
 0.22430000E+02  0.25604E-04
 0.22480000E+02  0.13508E-03
 0.22530001E+02  0.16255E-03
 0.22580000E+02  0.13822E-03
 0.22629999E+02  0.11452E-03
 0.22680000E+02  0.12162E-03
 0.22730000E+02  0.10261E-03
 0.22780001E+02  0.13075E-04
 0.22830000E+02 -0.10576E-03
 0.22879999E+02 -0.16520E-03
 0.22930000E+02 -0.13187E-03
 0.22980000E+02 -0.45092E-04
 0.23030001E+02  0.37088E-04
 0.23080000E+02  0.36433E-04
 0.23129999E+02 -0.23541E-04
 0.23180000E+02 -0.12136E-03
 0.23230000E+02 -0.10722E-03
 0.23280001E+02  0.16335E-03
 0.23330000E+02  0.36914E-03
 0.23379999E+02  0.22940E-03
 0.23430000E+02 -0.32869E-04
 0.23480000E+02 -0.98601E-04
 0.23530001E+02 -0.22330E-04
 0.23580000E+02 -0.43744E-04
 0.23629999E+02 -0.17305E-03
 0.23680000E+02 -0.15516E-03
 0.23730000E+02  0.12356E-04
 0.23780001E+02  0.81264E-04
 0.23830000E+02  0.53591E-04
 0.23879999E+02  0.51137E-04
 0.23930000E+02  0.52611E-04
 0.23980000E+02 -0.35097E-04
 0.24030001E+02 -0.10558E-03
 0.24080000E+02 -0.67183E-04
 0.24129999E+02  0.64377E-05
 0.24180000E+02  0.16954E-04
 0.24230000E+02 -0.29165E-04
 0.24280001E+02 -0.83723E-05
 0.24330000E+02  0.72402E-04
 0.24379999E+02  0.94088E-04
 0.24430000E+02 -0.50937E-04
 0.24480000E+02 -0.24790E-03
 0.24530001E+02 -0.21918E-03
 0.24580000E+02  0.22916E-04
 0.24629999E+02  0.11592E-03
 0.24680000E+02  0.15707E-04
 0.24730000E+02 -0.33738E-04
 0.24780001E+02 -0.43006E-04
 0.24830000E+02 -0.11911E-04
 0.24879999E+02  0.30279E-04
 0.24930000E+02  0.29418E-04
 0.24980000E+02  0.54721E-04
 0.25030001E+02  0.13548E-03
 0.25080000E+02  0.23220E-03
 0.25129999E+02  0.26383E-03
 0.25180000E+02  0.16661E-03
 0.25230000E+02  0.29190E-05
 0.25280001E+02 -0.28997E-04
 0.25330000E+02 -0.11467E-04
 0.25379999E+02 -0.80355E-04
 0.25430000E+02 -0.10739E-03
 0.25480000E+02 -0.15953E-03
 0.25530001E+02 -0.26100E-03
 0.25580000E+02 -0.24849E-03
 0.25629999E+02 -0.13362E-03
 0.25680000E+02  0.14225E-04
 0.25730000E+02  0.15792E-03
 0.25780001E+02  0.16554E-03
 0.25830000E+02  0.28766E-04
 0.25879999E+02 -0.40199E-04
 0.25930000E+02 -0.90895E-04
 0.25980000E+02 -0.15672E-03
 0.26030001E+02 -0.87896E-04
 0.26080000E+02 -0.68624E-05
 0.26129999E+02  0.78714E-04
 0.26180000E+02  0.19903E-03
 0.26230000E+02  0.21166E-03
 0.26280001E+02  0.15934E-03
 0.26330000E+02  0.12475E-03
 0.26379999E+02  0.99208E-04
 0.26430000E+02  0.10090E-03
 0.26480000E+02  0.12439E-03
 0.26530001E+02  0.84033E-04
 0.26580000E+02  0.41652E-05
 0.26629999E+02 -0.67869E-04
 0.26680000E+02 -0.13649E-03
 0.26730000E+02 -0.17441E-03
 0.26780001E+02 -0.17974E-03
 0.26830000E+02 -0.14174E-03
 0.26879999E+02 -0.15112E-03
 0.26930000E+02 -0.17793E-03
 0.26980000E+02 -0.15146E-03
 0.27030001E+02 -0.10712E-03
 0.27080000E+02  0.32323E-04
 0.27129999E+02  0.17024E-03
 0.27180000E+02  0.19566E-03
 0.27230000E+02  0.14966E-03
 0.27280001E+02  0.87427E-04
 0.27330000E+02  0.87471E-04
 0.27379999E+02  0.60569E-04
 0.27430000E+02 -0.27275E-04
 0.27480000E+02 -0.55230E-04
 0.27530001E+02 -0.47464E-04
 0.27580000E+02 -0.12268E-04
 0.27629999E+02  0.82055E-04
 0.27680000E+02  0.80794E-04
 0.27730000E+02 -0.71812E-04
 0.27780001E+02 -0.18752E-03
 0.27830000E+02 -0.19076E-03
 0.27879999E+02 -0.78650E-04
 0.27930000E+02  0.45081E-04
 0.27980000E+02 -0.64350E-05
 0.28030001E+02 -0.12683E-03
 0.28080000E+02 -0.16087E-03
 0.28129999E+02 -0.54580E-04
 0.28180000E+02  0.85243E-04
 0.28230000E+02  0.79024E-04
 0.28280001E+02 -0.83711E-06
 0.28330000E+02 -0.18998E-04
 0.28379999E+02  0.63242E-04
 0.28430000E+02  0.16705E-03
 0.28480000E+02  0.18147E-03
 0.28530001E+02  0.15988E-03
 0.28580000E+02  0.19093E-03
 0.28629999E+02  0.16371E-03
 0.28680000E+02  0.92829E-04
 0.28730000E+02  0.47908E-04
 0.28780001E+02  0.13842E-05
 0.28830000E+02  0.59156E-04
 0.28879999E+02  0.43762E-04
 0.28930000E+02 -0.13964E-03
 0.28980000E+02 -0.22460E-03
 0.29030001E+02 -0.19346E-03
 0.29080000E+02 -0.12063E-03
 0.29129999E+02 -0.52063E-04
 0.29180000E+02 -0.65233E-04
 0.29230000E+02 -0.62510E-04
 0.29280001E+02  0.53824E-05
 0.29330000E+02 -0.27523E-04
 0.29379999E+02 -0.17047E-03
 0.29430000E+02 -0.22832E-03
 0.29480000E+02 -0.11812E-03
 0.29530001E+02  0.27041E-04
 0.29580000E+02  0.89698E-04
 0.29629999E+02  0.10250E-03
 0.29680000E+02  0.62018E-04
 0.29730000E+02 -0.29341E-04
 0.29780001E+02 -0.69713E-04
 0.29830000E+02  0.24444E-04
 0.29879999E+02  0.15781E-03
 0.29930000E+02  0.21455E-03
 0.29980000E+02  0.25070E-03
 0.30030001E+02  0.25810E-03
 0.30080000E+02  0.20014E-03
 0.30129999E+02  0.91562E-04
 0.30180000E+02 -0.60395E-04
 0.30230000E+02 -0.15562E-03
 0.30280001E+02 -0.17775E-03
 0.30330000E+02 -0.15298E-03
 0.30379999E+02 -0.94761E-04
 0.30430000E+02 -0.10489E-03
 0.30480000E+02 -0.14627E-03
 0.30530001E+02 -0.12878E-03
 0.30580000E+02 -0.38849E-04
 0.30629999E+02  0.51176E-04
 0.30680000E+02  0.83003E-04
 0.30730000E+02  0.93841E-04
 0.30780001E+02  0.54611E-04
 0.30830000E+02  0.19029E-04
 0.30879999E+02  0.47491E-04
 0.30930000E+02  0.10385E-03
 0.30980000E+02  0.16306E-03
 0.31030001E+02  0.10009E-03
 0.31080000E+02 -0.91195E-04
 0.31129999E+02 -0.20700E-03
 0.31180000E+02 -0.12686E-03
 0.31230000E+02  0.30400E-04
 0.31280001E+02  0.58398E-04
 0.31330000E+02  0.45463E-04
 0.31379999E+02  0.78773E-04
 0.31430000E+02  0.51741E-04
 0.31480000E+02 -0.64072E-05
 0.31530001E+02 -0.53599E-04
 0.31580000E+02 -0.71799E-04
 0.31629999E+02 -0.55635E-04
 0.31680000E+02 -0.57697E-04
 0.31730000E+02 -0.12349E-03
 0.31780001E+02 -0.17718E-03
 0.31830000E+02 -0.99109E-04
 0.31879999E+02 -0.76274E-05
 0.31930000E+02 -0.32114E-04
 0.31980000E+02 -0.22679E-04
 0.32029999E+02  0.11186E-03
 0.32080002E+02  0.20598E-03
 0.32130001E+02  0.19874E-03
 0.32180000E+02  0.11818E-03
 0.32230000E+02  0.55014E-05
 0.32279999E+02 -0.15440E-04
 0.32330002E+02  0.69204E-04
 0.32380001E+02  0.17554E-03
 0.32430000E+02  0.16839E-03
 0.32480000E+02  0.43336E-04
 0.32529999E+02 -0.26901E-04
 0.32580002E+02 -0.78348E-05
 0.32630001E+02 -0.20894E-04
 0.32680000E+02 -0.91933E-04
 0.32730000E+02 -0.12934E-03
 0.32779999E+02 -0.14229E-03
 0.32830002E+02 -0.14792E-03
 0.32880001E+02 -0.12958E-03
 0.32930000E+02 -0.11718E-03
 0.32980000E+02 -0.10564E-03
 0.33029999E+02 -0.99067E-04
 0.33080002E+02 -0.71742E-04
 0.33130001E+02 -0.18478E-04
 0.33180000E+02 -0.26489E-04
 0.33230000E+02 -0.10341E-03
 0.33279999E+02 -0.11919E-03
 0.33330002E+02  0.20859E-04
 0.33380001E+02  0.19905E-03
 0.33430000E+02  0.22530E-03
 0.33480000E+02  0.14275E-03
 0.33529999E+02  0.12238E-03
 0.33580002E+02  0.13667E-03
 0.33630001E+02  0.12985E-03
 0.33680000E+02  0.17362E-03
 0.33730000E+02  0.23980E-03
 0.33779999E+02  0.17405E-03
 0.33830002E+02 -0.27812E-04
 0.33880001E+02 -0.13822E-03
 0.33930000E+02 -0.11393E-03
 0.33980000E+02 -0.92917E-04
 0.34029999E+02 -0.11761E-03
 0.34080002E+02 -0.15777E-03
 0.34130001E+02 -0.13043E-03
 0.34180000E+02 -0.90316E-04
 0.34230000E+02 -0.10178E-03
 0.34279999E+02 -0.73718E-04
 0.34330002E+02  0.32304E-04
 0.34380001E+02  0.16789E-03
 0.34430000E+02  0.28148E-03
 0.34480000E+02  0.31959E-03
 0.34529999E+02  0.20795E-03
 0.34580002E+02 -0.65441E-04
 0.34630001E+02 -0.32714E-03
 0.34680000E+02 -0.34494E-03
 0.34730000E+02 -0.17579E-03
 0.34779999E+02 -0.37714E-04
 0.34830002E+02 -0.20579E-04
 0.34880001E+02 -0.72311E-04
 0.34930000E+02 -0.80778E-04
 0.34980000E+02  0.10815E-05
 0.35029999E+02  0.15806E-03
 0.35080002E+02  0.25470E-03
 0.35130001E+02  0.18158E-03
 0.35180000E+02  0.35886E-05
 0.35230000E+02 -0.14791E-03
 0.35279999E+02 -0.14771E-03
 0.35330002E+02 -0.20727E-05
 0.35380001E+02  0.13977E-03
 0.35430000E+02  0.16008E-03
 0.35480000E+02  0.10145E-03
 0.35529999E+02  0.33943E-04
 0.35580002E+02  0.64053E-05
 0.35630001E+02  0.10371E-03
 0.35680000E+02  0.28810E-03
 0.35730000E+02  0.40054E-03
 0.35779999E+02  0.27722E-03
 0.35830002E+02 -0.92144E-04
 0.35880001E+02 -0.42696E-03
 0.35930000E+02 -0.56060E-03
 0.35980000E+02 -0.53383E-03
 0.36029999E+02 -0.34093E-03
 0.36080002E+02 -0.17743E-03
 0.36130001E+02 -0.14184E-03
 0.36180000E+02 -0.15133E-03
 0.36230000E+02 -0.21573E-03
 0.36279999E+02 -0.21979E-03
 0.36330002E+02 -0.16053E-03
 0.36380001E+02 -0.13623E-03
 0.36430000E+02 -0.11748E-03
 0.36480000E+02 -0.69210E-04
 0.36529999E+02 -0.59106E-04
 0.36580002E+02 -0.93509E-04
 0.36630001E+02 -0.16772E-04
 0.36680000E+02  0.18961E-03
 0.36730000E+02  0.43561E-03
 0.36779999E+02  0.61247E-03
 0.36830002E+02  0.62614E-03
 0.36880001E+02  0.50948E-03
 0.36930000E+02  0.33735E-03
 0.36980000E+02  0.17651E-03
 0.37029999E+02  0.12349E-03
 0.37080002E+02  0.19062E-03
 0.37130001E+02  0.19711E-03
 0.37180000E+02  0.62742E-05
 0.37230000E+02 -0.19805E-03
 0.37279999E+02 -0.17856E-03
 0.37330002E+02  0.13700E-04
 0.37380001E+02  0.20167E-03
 0.37430000E+02  0.17486E-03
 0.37480000E+02 -0.21915E-04
 0.37529999E+02 -0.10479E-03
 0.37580002E+02 -0.85983E-04
 0.37630001E+02 -0.55204E-04
 0.37680000E+02  0.73014E-05
 0.37730000E+02  0.65723E-04
 0.37779999E+02 -0.19549E-05
 0.37830002E+02 -0.22452E-03
 0.37880001E+02 -0.33098E-03
 0.37930000E+02 -0.13296E-03
 0.37980000E+02  0.17021E-03
 0.38029999E+02  0.25703E-03
 0.38080002E+02  0.63132E-04
 0.38130001E+02 -0.19638E-03
 0.38180000E+02 -0.31441E-03
 0.38230000E+02 -0.24487E-03
 0.38279999E+02 -0.10593E-03
 0.38330002E+02 -0.23666E-04
 0.38380001E+02 -0.19885E-04
 0.38430000E+02 -0.11689E-03
 0.38480000E+02 -0.31290E-03
 0.38529999E+02 -0.49615E-03
 0.38580002E+02 -0.51648E-03
 0.38630001E+02 -0.34503E-03
 0.38680000E+02 -0.10748E-03
 0.38730000E+02  0.87267E-04
 0.38779999E+02  0.13811E-03
 0.38830002E+02  0.39044E-04
 0.38880001E+02  0.31225E-06
 0.38930000E+02  0.38438E-04
 0.38980000E+02  0.19985E-04
 0.39029999E+02  0.37653E-04
 0.39080002E+02  0.12136E-03
 0.39130001E+02  0.14584E-03
 0.39180000E+02  0.10795E-03
 0.39230000E+02  0.13472E-03
 0.39279999E+02  0.27220E-03
 0.39330002E+02  0.38086E-03
 0.39380001E+02  0.37086E-03
 0.39430000E+02  0.23695E-03
 0.39480000E+02  0.94692E-04
 0.39529999E+02  0.11663E-03
 0.39580002E+02  0.21589E-03
 0.39630001E+02  0.35474E-03
 0.39680000E+02  0.39861E-03
 0.39730000E+02  0.18521E-03
 0.39779999E+02  0.44222E-04
 0.39830002E+02  0.13343E-03
 0.39880001E+02  0.25826E-03
 0.39930000E+02  0.24901E-03
 0.39980000E+02 -0.15900E-04
 0.40029999E+02 -0.37078E-03
 0.40080002E+02 -0.47632E-03
 0.40130001E+02 -0.36537E-03
 0.40180000E+02 -0.30426E-03
 0.40230000E+02 -0.33291E-03
 0.40279999E+02 -0.37217E-03
 0.40330002E+02 -0.34435E-03
 0.40380001E+02 -0.29505E-03
 0.40430000E+02 -0.28678E-03
 0.40480000E+02 -0.21787E-03
 0.40529999E+02 -0.76849E-04
 0.40580002E+02  0.27810E-04
 0.40630001E+02  0.47102E-04
 0.40680000E+02  0.47982E-04
 0.40730000E+02  0.12718E-03
 0.40779999E+02  0.26578E-03
 0.40830002E+02  0.33536E-03
 0.40880001E+02  0.28371E-03
 0.40930000E+02  0.14698E-03
 0.40980000E+02  0.46250E-04
 0.41029999E+02  0.10753E-03
 0.41080002E+02  0.20129E-03
 0.41130001E+02  0.19616E-03
 0.41180000E+02  0.13617E-03
 0.41230000E+02  0.46443E-04
 0.41279999E+02 -0.61435E-04
 0.41330002E+02 -0.11906E-03
 0.41380001E+02 -0.18158E-03
 0.41430000E+02 -0.31492E-03
 0.41480000E+02 -0.41556E-03
 0.41529999E+02 -0.47491E-03
 0.41580002E+02 -0.47154E-03
 0.41630001E+02 -0.35537E-03
 0.41680000E+02 -0.16118E-03
 0.41730000E+02  0.82485E-04
 0.41779999E+02  0.26885E-03
 0.41830002E+02  0.27986E-03
 0.41880001E+02  0.19393E-03
 0.41930000E+02  0.18096E-03
 0.41980000E+02  0.24577E-03
 0.42029999E+02  0.32158E-03
 0.42080002E+02  0.34996E-03
 0.42130001E+02  0.24735E-03
 0.42180000E+02  0.56390E-04
 0.42230000E+02 -0.77394E-04
 0.42279999E+02 -0.15720E-03
 0.42330002E+02 -0.18745E-03
 0.42380001E+02 -0.11158E-03
 0.42430000E+02 -0.36324E-04
 0.42480000E+02 -0.52611E-04
 0.42529999E+02 -0.12208E-03
 0.42580002E+02 -0.89039E-04
 0.42630001E+02  0.15547E-04
 0.42680000E+02  0.12229E-04
 0.42730000E+02 -0.69175E-05
 0.42779999E+02 -0.15641E-04
 0.42830002E+02 -0.64105E-04
 0.42880001E+02 -0.72902E-04
 0.42930000E+02 -0.23378E-04
 0.42980000E+02  0.66243E-04
 0.43029999E+02  0.19544E-03
 0.43080002E+02  0.26695E-03
 0.43130001E+02  0.23300E-03
 0.43180000E+02  0.26827E-03
 0.43230000E+02  0.38677E-03
 0.43279999E+02  0.32733E-03
 0.43330002E+02  0.10236E-03
 0.43380001E+02  0.19215E-04
 0.43430000E+02  0.15410E-04
 0.43480000E+02 -0.11923E-03
 0.43529999E+02 -0.30866E-03
 0.43580002E+02 -0.48991E-03
 0.43630001E+02 -0.55487E-03
 0.43680000E+02 -0.40714E-03
 0.43730000E+02 -0.17933E-03
 0.43779999E+02 -0.45228E-04
 0.43830002E+02 -0.38061E-04
 0.43880001E+02 -0.66725E-04
 0.43930000E+02 -0.56189E-04
 0.43980000E+02 -0.31726E-04
 0.44029999E+02 -0.36997E-04
 0.44080002E+02 -0.21520E-04
 0.44130001E+02 -0.13032E-04
 0.44180000E+02 -0.89682E-04
 0.44230000E+02 -0.18509E-03
 0.44279999E+02 -0.21781E-03
 0.44330002E+02 -0.11643E-03
 0.44380001E+02  0.13576E-03
 0.44430000E+02  0.39156E-03
 0.44480000E+02  0.48095E-03
 0.44529999E+02  0.38620E-03
 0.44580002E+02  0.26002E-03
 0.44630001E+02  0.25154E-03
 0.44680000E+02  0.34881E-03
 0.44730000E+02  0.46719E-03
 0.44779999E+02  0.55338E-03
 0.44830002E+02  0.55690E-03
 0.44880001E+02  0.44717E-03
 0.44930000E+02  0.21070E-03
 0.44980000E+02 -0.96656E-04
 0.45029999E+02 -0.32328E-03
 0.45080002E+02 -0.41755E-03
 0.45130001E+02 -0.48611E-03
 0.45180000E+02 -0.65287E-03
 0.45230000E+02 -0.87486E-03
 0.45279999E+02 -0.98546E-03
 0.45330002E+02 -0.91901E-03
 0.45380001E+02 -0.69925E-03
 0.45430000E+02 -0.44258E-03
 0.45480000E+02 -0.25743E-03
 0.45529999E+02 -0.61505E-04
 0.45580002E+02  0.15666E-03
 0.45630001E+02  0.29007E-03
 0.45680000E+02  0.36769E-03
 0.45730000E+02  0.43600E-03
 0.45779999E+02  0.45481E-03
 0.45830002E+02  0.42388E-03
 0.45880001E+02  0.41262E-03
 0.45930000E+02  0.45069E-03
 0.45980000E+02  0.50145E-03
 0.46029999E+02  0.52918E-03
 0.46080002E+02  0.53109E-03
 0.46130001E+02  0.50850E-03
 0.46180000E+02  0.44910E-03
 0.46230000E+02  0.38955E-03
 0.46279999E+02  0.29797E-03
 0.46330002E+02  0.67443E-04
 0.46380001E+02 -0.25839E-03
 0.46430000E+02 -0.54389E-03
 0.46480000E+02 -0.67046E-03
 0.46529999E+02 -0.57795E-03
 0.46580002E+02 -0.38073E-03
 0.46630001E+02 -0.27320E-03
 0.46680000E+02 -0.25775E-03
 0.46730000E+02 -0.21081E-03
 0.46779999E+02 -0.10911E-03
 0.46830002E+02 -0.52902E-04
 0.46880001E+02 -0.49129E-04
 0.46930000E+02  0.41504E-04
 0.46980000E+02  0.15879E-03
 0.47029999E+02  0.20548E-03
 0.47080002E+02  0.23026E-03
 0.47130001E+02  0.22602E-03
 0.47180000E+02  0.14756E-03
 0.47230000E+02  0.11662E-04
 0.47279999E+02 -0.10853E-03
 0.47330002E+02 -0.23486E-03
 0.47380001E+02 -0.36270E-03
 0.47430000E+02 -0.43213E-03
 0.47480000E+02 -0.45517E-03
 0.47529999E+02 -0.40752E-03
 0.47580002E+02 -0.28978E-03
 0.47630001E+02 -0.19631E-03
 0.47680000E+02 -0.13169E-03
 0.47730000E+02  0.84788E-05
 0.47779999E+02  0.12313E-03
 0.47830002E+02  0.82988E-04
 0.47880001E+02  0.10211E-04
 0.47930000E+02  0.64269E-07
 0.47980000E+02  0.99052E-04
 0.48029999E+02  0.29521E-03
 0.48080002E+02  0.49264E-03
 0.48130001E+02  0.64272E-03
 0.48180000E+02  0.69373E-03
 0.48230000E+02  0.68454E-03
 0.48279999E+02  0.66200E-03
 0.48330002E+02  0.59162E-03
 0.48380001E+02  0.44452E-03
 0.48430000E+02  0.21754E-03
 0.48480000E+02 -0.32996E-04
 0.48529999E+02 -0.29509E-03
 0.48580002E+02 -0.54201E-03
 0.48630001E+02 -0.66165E-03
 0.48680000E+02 -0.60381E-03
 0.48730000E+02 -0.47090E-03
 0.48779999E+02 -0.34957E-03
 0.48830002E+02 -0.24686E-03
 0.48880001E+02 -0.18420E-03
 0.48930000E+02 -0.11078E-03
 0.48980000E+02 -0.26169E-04
 0.49029999E+02  0.21546E-04
 0.49080002E+02  0.38647E-04
 0.49130001E+02  0.32759E-05
 0.49180000E+02 -0.78480E-04
 0.49230000E+02 -0.16701E-03
 0.49279999E+02 -0.21529E-03
 0.49330002E+02 -0.19839E-03
 0.49380001E+02 -0.16423E-03
 0.49430000E+02 -0.16146E-03
 0.49480000E+02 -0.14510E-03
 0.49529999E+02 -0.57647E-04
 0.49580002E+02  0.80752E-04
 0.49630001E+02  0.22008E-03
 0.49680000E+02  0.30020E-03
 0.49730000E+02  0.25026E-03
 0.49779999E+02  0.88663E-04
 0.49830002E+02 -0.57165E-04
 0.49880001E+02 -0.11643E-03
 0.49930000E+02 -0.84918E-04
 0.49980000E+02  0.31901E-05
 0.50029999E+02  0.87942E-04
 0.50080002E+02  0.16842E-03
 0.50130001E+02  0.28719E-03
 0.50180000E+02  0.42902E-03
 0.50230000E+02  0.50469E-03
 0.50279999E+02  0.51049E-03
 0.50330002E+02  0.47959E-03
 0.50380001E+02  0.40469E-03
 0.50430000E+02  0.31552E-03
 0.50480000E+02  0.20420E-03
 0.50529999E+02  0.62714E-04
 0.50580002E+02 -0.71404E-04
 0.50630001E+02 -0.22348E-03
 0.50680000E+02 -0.38576E-03
 0.50730000E+02 -0.48122E-03
 0.50779999E+02 -0.48808E-03
 0.50830002E+02 -0.44708E-03
 0.50880001E+02 -0.44610E-03
 0.50930000E+02 -0.48808E-03
 0.50980000E+02 -0.52060E-03
 0.51029999E+02 -0.52162E-03
 0.51080002E+02 -0.43688E-03
 0.51130001E+02 -0.29733E-03
 0.51180000E+02 -0.13880E-03
 0.51230000E+02  0.39371E-04
 0.51279999E+02  0.18419E-03
 0.51330002E+02  0.29363E-03
 0.51380001E+02  0.38249E-03
 0.51430000E+02  0.46123E-03
 0.51480000E+02  0.54682E-03
 0.51529999E+02  0.60429E-03
 0.51580002E+02  0.57571E-03
 0.51630001E+02  0.46157E-03
 0.51680000E+02  0.30594E-03
 0.51730000E+02  0.16265E-03
 0.51779999E+02  0.12070E-03
 0.51830002E+02  0.14447E-03
 0.51880001E+02  0.11534E-03
 0.51930000E+02  0.53833E-05
 0.51980000E+02 -0.19611E-03
 0.52029999E+02 -0.43214E-03
 0.52080002E+02 -0.59157E-03
 0.52130001E+02 -0.61835E-03
 0.52180000E+02 -0.55432E-03
 0.52230000E+02 -0.48108E-03
 0.52279999E+02 -0.37630E-03
 0.52330002E+02 -0.19996E-03
 0.52380001E+02  0.89102E-05
 0.52430000E+02  0.15663E-03
 0.52480000E+02  0.17749E-03
 0.52529999E+02  0.12095E-03
 0.52580002E+02  0.89880E-04
 0.52630001E+02  0.13655E-03
 0.52680000E+02  0.19545E-03
 0.52730000E+02  0.18502E-03
 0.52779999E+02  0.14544E-03
 0.52830002E+02  0.10858E-03
 0.52880001E+02  0.53843E-04
 0.52930000E+02  0.88633E-05
 0.52980000E+02 -0.33090E-04
 0.53029999E+02 -0.84692E-04
 0.53080002E+02 -0.97977E-04
 0.53130001E+02 -0.28875E-04
 0.53180000E+02  0.89456E-04
 0.53230000E+02  0.15187E-03
 0.53279999E+02  0.14754E-03
 0.53330002E+02  0.12168E-03
 0.53380001E+02  0.94318E-04
 0.53430000E+02  0.74712E-04
 0.53480000E+02  0.31311E-04
 0.53529999E+02 -0.56842E-05
 0.53580002E+02  0.12906E-04
 0.53630001E+02  0.40527E-04
 0.53680000E+02  0.86819E-05
 0.53730000E+02 -0.77051E-04
 0.53779999E+02 -0.12221E-03
 0.53830002E+02 -0.92861E-04
 0.53880001E+02 -0.42669E-04
 0.53930000E+02  0.89410E-05
 0.53980000E+02  0.33553E-04
 0.54029999E+02 -0.10282E-04
 0.54080002E+02 -0.10429E-03
 0.54130001E+02 -0.16121E-03
 0.54180000E+02 -0.11506E-03
 0.54230000E+02 -0.56177E-04
 0.54279999E+02 -0.87599E-04
 0.54330002E+02 -0.11059E-03
 0.54380001E+02 -0.50773E-04
 0.54430000E+02  0.16170E-04
 0.54480000E+02  0.65230E-04
 0.54529999E+02  0.10086E-03
 0.54580002E+02  0.12972E-03
 0.54630001E+02  0.17094E-03
 0.54680000E+02  0.20911E-03
 0.54730000E+02  0.22925E-03
 0.54779999E+02  0.23689E-03
 0.54830002E+02  0.20114E-03
 0.54880001E+02  0.59656E-04
 0.54930000E+02 -0.15722E-03
 0.54980000E+02 -0.33498E-03
 0.55029999E+02 -0.38195E-03
 0.55080002E+02 -0.31341E-03
 0.55130001E+02 -0.20840E-03
 0.55180000E+02 -0.15412E-03
 0.55230000E+02 -0.21018E-03
 0.55279999E+02 -0.29045E-03
 0.55330002E+02 -0.28431E-03
 0.55380001E+02 -0.17815E-03
 0.55430000E+02 -0.14324E-04
 0.55480000E+02  0.16008E-03
 0.55529999E+02  0.33479E-03
 0.55580002E+02  0.46390E-03
 0.55630001E+02  0.50771E-03
 0.55680000E+02  0.49231E-03
 0.55730000E+02  0.46440E-03
 0.55779999E+02  0.43176E-03
 0.55830002E+02  0.35609E-03
 0.55880001E+02  0.24981E-03
 0.55930000E+02  0.12418E-03
 0.55980000E+02 -0.23241E-04
 0.56029999E+02 -0.19270E-03
 0.56080002E+02 -0.38073E-03
 0.56130001E+02 -0.51033E-03
 0.56180000E+02 -0.52539E-03
 0.56230000E+02 -0.42044E-03
 0.56279999E+02 -0.23893E-03
 0.56330002E+02 -0.56434E-04
 0.56380001E+02  0.78440E-04
 0.56430000E+02  0.11463E-03
 0.56480000E+02  0.48598E-04
 0.56529999E+02 -0.41799E-04
 0.56580002E+02 -0.73488E-04
 0.56630001E+02 -0.26343E-04
 0.56680000E+02  0.43085E-04
 0.56730000E+02  0.68825E-04
 0.56779999E+02  0.66277E-04
 0.56830002E+02  0.41816E-04
 0.56880001E+02 -0.11714E-04
 0.56930000E+02 -0.15869E-04
 0.56980000E+02  0.29909E-04
 0.57029999E+02  0.46840E-04
 0.57080002E+02  0.54531E-05
 0.57130001E+02 -0.11385E-03
 0.57180000E+02 -0.25618E-03
 0.57230000E+02 -0.31213E-03
 0.57279999E+02 -0.25296E-03
 0.57330002E+02 -0.12036E-03
 0.57380001E+02  0.12799E-04
 0.57430000E+02  0.10548E-03
 0.57480000E+02  0.15460E-03
 0.57529999E+02  0.15992E-03
 0.57580002E+02  0.14989E-03
 0.57630001E+02  0.13891E-03
 0.57680000E+02  0.12956E-03
 0.57730000E+02  0.13382E-03
 0.57779999E+02  0.14283E-03
 0.57830002E+02  0.14148E-03
 0.57880001E+02  0.13078E-03
 0.57930000E+02  0.11709E-03
 0.57980000E+02  0.87084E-04
 0.58029999E+02  0.31339E-04
 0.58080002E+02 -0.55594E-04
 0.58130001E+02 -0.18729E-03
 0.58180000E+02 -0.32341E-03
 0.58230000E+02 -0.38723E-03
 0.58279999E+02 -0.33613E-03
 0.58330002E+02 -0.18405E-03
 0.58380001E+02  0.13915E-05
 0.58430000E+02  0.15934E-03
 0.58480000E+02  0.26797E-03
 0.58529999E+02  0.33389E-03
 0.58580002E+02  0.38183E-03
 0.58630001E+02  0.41811E-03
 0.58680000E+02  0.41205E-03
 0.58730000E+02  0.35027E-03
 0.58779999E+02  0.24551E-03
 0.58830002E+02  0.11015E-03
 0.58880001E+02 -0.73804E-05
 0.58930000E+02 -0.70757E-04
 0.58980000E+02 -0.95241E-04
 0.59029999E+02 -0.12470E-03
 0.59080002E+02 -0.21735E-03
 0.59130001E+02 -0.38019E-03
 0.59180000E+02 -0.54548E-03
 0.59230000E+02 -0.64338E-03
 0.59279999E+02 -0.65101E-03
 0.59330002E+02 -0.56665E-03
 0.59380001E+02 -0.41294E-03
 0.59430000E+02 -0.23239E-03
 0.59480000E+02 -0.37885E-04
 0.59529999E+02  0.16641E-03
 0.59580002E+02  0.33508E-03
 0.59630001E+02  0.43057E-03
 0.59680000E+02  0.47229E-03
 0.59730000E+02  0.47984E-03
 0.59779999E+02  0.44940E-03
 0.59830002E+02  0.37733E-03
 0.59880001E+02  0.27270E-03
 0.59930000E+02  0.15803E-03
 0.59980000E+02  0.48751E-04
 0.60029999E+02 -0.46217E-04
 0.60080002E+02 -0.12821E-03
 0.60130001E+02 -0.19118E-03
 0.60180000E+02 -0.22630E-03
 0.60230000E+02 -0.26071E-03
 0.60279999E+02 -0.28972E-03
 0.60330002E+02 -0.26278E-03
 0.60380001E+02 -0.18307E-03
 0.60430000E+02 -0.10262E-03
 0.60480000E+02 -0.39313E-04
 0.60529999E+02  0.21292E-04
 0.60580002E+02  0.84600E-04
 0.60630001E+02  0.15758E-03
 0.60680000E+02  0.22510E-03
 0.60730000E+02  0.25141E-03
 0.60779999E+02  0.23279E-03
 0.60830002E+02  0.17544E-03
 0.60880001E+02  0.10480E-03
 0.60930000E+02  0.58485E-04
 0.60980000E+02  0.31720E-04
 0.61029999E+02  0.10417E-04
 0.61080002E+02 -0.36278E-05
 0.61130001E+02 -0.79051E-05
 0.61180000E+02 -0.19613E-04
 0.61230000E+02 -0.62245E-04
 0.61279999E+02 -0.13101E-03
 0.61330002E+02 -0.21054E-03
 0.61380001E+02 -0.30597E-03
 0.61430000E+02 -0.40238E-03
 0.61480000E+02 -0.41929E-03
 0.61529999E+02 -0.31174E-03
 0.61580002E+02 -0.14242E-03
 0.61630001E+02  0.20504E-04
 0.61680000E+02  0.18107E-03
 0.61730000E+02  0.34914E-03
 0.61779999E+02  0.47747E-03
 0.61830002E+02  0.53060E-03
 0.61880001E+02  0.52187E-03
 0.61930000E+02  0.45092E-03
 0.61980000E+02  0.30376E-03
 0.62029999E+02  0.10469E-03
 0.62080002E+02 -0.81588E-04
 0.62130001E+02 -0.19314E-03
 0.62180000E+02 -0.21942E-03
 0.62230000E+02 -0.20351E-03
 0.62279999E+02 -0.18461E-03
 0.62330002E+02 -0.16055E-03
 0.62380001E+02 -0.12090E-03
 0.62430000E+02 -0.88589E-04
 0.62480000E+02 -0.98918E-04
 0.62529999E+02 -0.15138E-03
 0.62580002E+02 -0.21306E-03
 0.62630001E+02 -0.25525E-03
 0.62680000E+02 -0.25872E-03
 0.62730000E+02 -0.20791E-03
 0.62779999E+02 -0.12236E-03
 0.62830002E+02 -0.38290E-04
 0.62880001E+02  0.42245E-04
 0.62930000E+02  0.11702E-03
 0.62980000E+02  0.18446E-03
 0.63029999E+02  0.24173E-03
 0.63080002E+02  0.26192E-03
 0.63130001E+02  0.24372E-03
 0.63180000E+02  0.18546E-03
 0.63230000E+02  0.94324E-04
 0.63279999E+02 -0.11786E-05
 0.63330002E+02 -0.10770E-03
 0.63380001E+02 -0.20150E-03
 0.63430000E+02 -0.23264E-03
 0.63480000E+02 -0.20724E-03
 0.63529999E+02 -0.15953E-03
 0.63580002E+02 -0.10530E-03
 0.63630001E+02 -0.47284E-04
 0.63680000E+02 -0.83449E-05
 0.63730000E+02  0.10189E-04
 0.63779999E+02  0.67877E-04
 0.63830002E+02  0.18577E-03
 0.63880001E+02  0.29357E-03
 0.63930000E+02  0.32250E-03
 0.63980000E+02  0.27306E-03
 0.64029999E+02  0.18070E-03
 0.64080002E+02  0.87414E-04
 0.64129997E+02  0.20917E-04
 0.64180000E+02 -0.20187E-04
 0.64230003E+02 -0.27408E-04
 0.64279999E+02 -0.45907E-05
 0.64330002E+02  0.14962E-04
 0.64379997E+02  0.58143E-05
 0.64430000E+02 -0.21579E-04
 0.64480003E+02 -0.28147E-04
 0.64529999E+02 -0.21656E-04
 0.64580002E+02 -0.18303E-04
 0.64629997E+02 -0.12790E-04
 0.64680000E+02 -0.12639E-04
 0.64730003E+02  0.33910E-05
 0.64779999E+02  0.33376E-04
 0.64830002E+02  0.44647E-04
 0.64879997E+02  0.22005E-04
 0.64930000E+02 -0.37240E-04
 0.64980003E+02 -0.11934E-03
 0.65029999E+02 -0.19999E-03
 0.65080002E+02 -0.25452E-03
 0.65129997E+02 -0.28757E-03
 0.65180000E+02 -0.30436E-03
 0.65230003E+02 -0.30802E-03
 0.65279999E+02 -0.30710E-03
 0.65330002E+02 -0.29171E-03
 0.65379997E+02 -0.25287E-03
 0.65430000E+02 -0.17843E-03
 0.65480003E+02 -0.52481E-04
 0.65529999E+02  0.13262E-03
 0.65580002E+02  0.33631E-03
 0.65629997E+02  0.48824E-03
 0.65680000E+02  0.54158E-03
 0.65730003E+02  0.47815E-03
 0.65779999E+02  0.32646E-03
 0.65830002E+02  0.14704E-03
 0.65879997E+02  0.18203E-04
 0.65930000E+02 -0.13872E-04
 0.65980003E+02  0.20034E-04
 0.66029999E+02  0.63736E-04
 0.66080002E+02  0.86254E-04
 0.66129997E+02  0.10026E-03
 0.66180000E+02  0.11735E-03
 0.66230003E+02  0.11337E-03
 0.66279999E+02  0.65997E-04
 0.66330002E+02 -0.16664E-04
 0.66379997E+02 -0.10396E-03
 0.66430000E+02 -0.17490E-03
 0.66480003E+02 -0.22286E-03
 0.66529999E+02 -0.22800E-03
 0.66580002E+02 -0.18301E-03
 0.66629997E+02 -0.11210E-03
 0.66680000E+02 -0.37286E-04
 0.66730003E+02  0.67127E-05
 0.66779999E+02 -0.29236E-05
 0.66830002E+02 -0.53151E-04
 0.66879997E+02 -0.11821E-03
 0.66930000E+02 -0.15881E-03
 0.66980003E+02 -0.17743E-03
 0.67029999E+02 -0.19440E-03
 0.67080002E+02 -0.17725E-03
 0.67129997E+02 -0.86019E-04
 0.67180000E+02  0.62073E-04
 0.67230003E+02  0.20559E-03
 0.67279999E+02  0.30109E-03
 0.67330002E+02  0.33920E-03
 0.67379997E+02  0.33449E-03
 0.67430000E+02  0.29687E-03
 0.67480003E+02  0.22765E-03
 0.67529999E+02  0.13675E-03
 0.67580002E+02  0.36567E-04
 0.67629997E+02 -0.45277E-04
 0.67680000E+02 -0.94827E-04
 0.67730003E+02 -0.12432E-03
 0.67779999E+02 -0.14509E-03
 0.67830002E+02 -0.17308E-03
 0.67879997E+02 -0.21342E-03
 0.67930000E+02 -0.25436E-03
 0.67980003E+02 -0.28679E-03
 0.68029999E+02 -0.28809E-03
 0.68080002E+02 -0.24086E-03
 0.68129997E+02 -0.16658E-03
 0.68180000E+02 -0.89199E-04
 0.68230003E+02 -0.27834E-04
 0.68279999E+02  0.87694E-05
 0.68330002E+02  0.44185E-04
 0.68379997E+02  0.94401E-04
 0.68430000E+02  0.14591E-03
 0.68480003E+02  0.18135E-03
 0.68529999E+02  0.20575E-03
 0.68580002E+02  0.23034E-03
 0.68629997E+02  0.25334E-03
 0.68680000E+02  0.27454E-03
 0.68730003E+02  0.28308E-03
 0.68779999E+02  0.25519E-03
 0.68830002E+02  0.18567E-03
 0.68879997E+02  0.93274E-04
 0.68930000E+02 -0.61187E-06
 0.68980003E+02 -0.86514E-04
 0.69029999E+02 -0.15378E-03
 0.69080002E+02 -0.18594E-03
 0.69129997E+02 -0.17476E-03
 0.69180000E+02 -0.13349E-03
 0.69230003E+02 -0.95777E-04
 0.69279999E+02 -0.84019E-04
 0.69330002E+02 -0.91619E-04
 0.69379997E+02 -0.94137E-04
 0.69430000E+02 -0.91540E-04
 0.69480003E+02 -0.10224E-03
 0.69529999E+02 -0.10574E-03
 0.69580002E+02 -0.88352E-04
 0.69629997E+02 -0.77787E-04
 0.69680000E+02 -0.76651E-04
 0.69730003E+02 -0.55780E-04
 0.69779999E+02 -0.74809E-05
 0.69830002E+02  0.52541E-04
 0.69879997E+02  0.11583E-03
 0.69930000E+02  0.17747E-03
 0.69980003E+02  0.21919E-03
 0.70029999E+02  0.23402E-03
 0.70080002E+02  0.22712E-03
 0.70129997E+02  0.19727E-03
 0.70180000E+02  0.15558E-03
 0.70230003E+02  0.10667E-03
 0.70279999E+02  0.41947E-04
 0.70330002E+02 -0.37565E-04
 0.70379997E+02 -0.12892E-03
 0.70430000E+02 -0.22147E-03
 0.70480003E+02 -0.29121E-03
 0.70529999E+02 -0.31564E-03
 0.70580002E+02 -0.29413E-03
 0.70629997E+02 -0.24724E-03
 0.70680000E+02 -0.18757E-03
 0.70730003E+02 -0.11579E-03
 0.70779999E+02 -0.30889E-04
 0.70830002E+02  0.60489E-04
 0.70879997E+02  0.13860E-03
 0.70930000E+02  0.19492E-03
 0.70980003E+02  0.22554E-03
 0.71029999E+02  0.21827E-03
 0.71080002E+02  0.17976E-03
 0.71129997E+02  0.12759E-03
 0.71180000E+02  0.77382E-04
 0.71230003E+02  0.42920E-04
 0.71279999E+02  0.14770E-04
 0.71330002E+02 -0.12078E-04
 0.71379997E+02 -0.24015E-04
 0.71430000E+02 -0.15895E-04
 0.71480003E+02  0.18063E-04
 0.71529999E+02  0.71534E-04
 0.71580002E+02  0.12127E-03
 0.71629997E+02  0.14418E-03
 0.71680000E+02  0.12725E-03
 0.71730003E+02  0.82892E-04
 0.71779999E+02  0.27711E-04
 0.71830002E+02 -0.41065E-04
 0.71879997E+02 -0.12548E-03
 0.71930000E+02 -0.20778E-03
 0.71980003E+02 -0.26455E-03
 0.72029999E+02 -0.29366E-03
 0.72080002E+02 -0.30346E-03
 0.72129997E+02 -0.27943E-03
 0.72180000E+02 -0.21899E-03
 0.72230003E+02 -0.15120E-03
 0.72279999E+02 -0.86898E-04
 0.72330002E+02 -0.24304E-04
 0.72379997E+02  0.29419E-04
 0.72430000E+02  0.66626E-04
 0.72480003E+02  0.94491E-04
 0.72529999E+02  0.13796E-03
 0.72580002E+02  0.19030E-03
 0.72629997E+02  0.21967E-03
 0.72680000E+02  0.21309E-03
 0.72730003E+02  0.18001E-03
 0.72779999E+02  0.14566E-03
 0.72830002E+02  0.12059E-03
 0.72879997E+02  0.98666E-04
 0.72930000E+02  0.76458E-04
 0.72980003E+02  0.69455E-04
 0.73029999E+02  0.89391E-04
 0.73080002E+02  0.10419E-03
 0.73129997E+02  0.86765E-04
 0.73180000E+02  0.56377E-04
 0.73230003E+02  0.44712E-04
 0.73279999E+02  0.59014E-04
 0.73330002E+02  0.66176E-04
 0.73379997E+02  0.24908E-04
 0.73430000E+02 -0.65149E-04
 0.73480003E+02 -0.16828E-03
 0.73529999E+02 -0.23941E-03
 0.73580002E+02 -0.26720E-03
 0.73629997E+02 -0.27713E-03
 0.73680000E+02 -0.27351E-03
 0.73730003E+02 -0.24476E-03
 0.73779999E+02 -0.18961E-03
 0.73830002E+02 -0.10879E-03
 0.73879997E+02 -0.90190E-05
 0.73930000E+02  0.84439E-04
 0.73980003E+02  0.14273E-03
 0.74029999E+02  0.16651E-03
 0.74080002E+02  0.16269E-03
 0.74129997E+02  0.12799E-03
 0.74180000E+02  0.73731E-04
 0.74230003E+02  0.14567E-04
 0.74279999E+02 -0.34019E-04
 0.74330002E+02 -0.43697E-04
 0.74379997E+02 -0.57914E-05
 0.74430000E+02  0.47735E-04
 0.74480003E+02  0.78661E-04
 0.74529999E+02  0.64425E-04
 0.74580002E+02  0.13091E-04
 0.74629997E+02 -0.40797E-04
 0.74680000E+02 -0.77068E-04
 0.74730003E+02 -0.90668E-04
 0.74779999E+02 -0.77887E-04
 0.74830002E+02 -0.45255E-04
 0.74879997E+02 -0.15584E-04
 0.74930000E+02 -0.19341E-05
 0.74980003E+02 -0.84589E-06
 0.75029999E+02 -0.15842E-04
 0.75080002E+02 -0.37638E-04
 0.75129997E+02 -0.44819E-04
 0.75180000E+02 -0.26461E-04
 0.75230003E+02  0.18498E-04
 0.75279999E+02  0.75179E-04
 0.75330002E+02  0.13485E-03
 0.75379997E+02  0.20157E-03
 0.75430000E+02  0.25612E-03
 0.75480003E+02  0.26459E-03
 0.75529999E+02  0.21134E-03
 0.75580002E+02  0.11132E-03
 0.75629997E+02 -0.42484E-06
 0.75680000E+02 -0.95309E-04
 0.75730003E+02 -0.16046E-03
 0.75779999E+02 -0.19298E-03
 0.75830002E+02 -0.19408E-03
 0.75879997E+02 -0.16291E-03
 0.75930000E+02 -0.10082E-03
 0.75980003E+02 -0.29541E-04
 0.76029999E+02  0.16012E-04
 0.76080002E+02  0.21894E-04
 0.76129997E+02 -0.10765E-05
 0.76180000E+02 -0.34262E-04
 0.76230003E+02 -0.62342E-04
 0.76279999E+02 -0.72379E-04
 0.76330002E+02 -0.50905E-04
 0.76379997E+02 -0.15422E-05
 0.76430000E+02  0.51616E-04
 0.76480003E+02  0.86033E-04
 0.76529999E+02  0.92475E-04
 0.76580002E+02  0.76222E-04
 0.76629997E+02  0.46983E-04
 0.76680000E+02  0.91349E-05
 0.76730003E+02 -0.25738E-04
 0.76779999E+02 -0.42508E-04
 0.76830002E+02 -0.40292E-04
 0.76879997E+02 -0.29592E-04
 0.76930000E+02 -0.19919E-04
 0.76980003E+02 -0.15698E-04
 0.77029999E+02 -0.11165E-04
 0.77080002E+02  0.93754E-05
 0.77129997E+02  0.38609E-04
 0.77180000E+02  0.54958E-04
 0.77230003E+02  0.56376E-04
 0.77279999E+02  0.45138E-04
 0.77330002E+02  0.26615E-04
 0.77379997E+02  0.36466E-05
 0.77430000E+02 -0.26913E-04
 0.77480003E+02 -0.55886E-04
 0.77529999E+02 -0.79837E-04
 0.77580002E+02 -0.94626E-04
 0.77629997E+02 -0.77911E-04
 0.77680000E+02 -0.23152E-04
 0.77730003E+02  0.43648E-04
 0.77779999E+02  0.90218E-04
 0.77830002E+02  0.10760E-03
 0.77879997E+02  0.10462E-03
 0.77930000E+02  0.83158E-04
 0.77980003E+02  0.37190E-04
 0.78029999E+02 -0.29069E-04
 0.78080002E+02 -0.98659E-04
 0.78129997E+02 -0.15945E-03
 0.78180000E+02 -0.20207E-03
 0.78230003E+02 -0.21661E-03
 0.78279999E+02 -0.19580E-03
 0.78330002E+02 -0.13653E-03
 0.78379997E+02 -0.49736E-04
 0.78430000E+02  0.44518E-04
 0.78480003E+02  0.12327E-03
 0.78529999E+02  0.17100E-03
 0.78580002E+02  0.18269E-03
 0.78629997E+02  0.15908E-03
 0.78680000E+02  0.11571E-03
 0.78730003E+02  0.73511E-04
 0.78779999E+02  0.44339E-04
 0.78830002E+02  0.29839E-04
 0.78879997E+02  0.30529E-04
 0.78930000E+02  0.48220E-04
 0.78980003E+02  0.74765E-04
 0.79029999E+02  0.94188E-04
 0.79080002E+02  0.10188E-03
 0.79129997E+02  0.10025E-03
 0.79180000E+02  0.81288E-04
 0.79230003E+02  0.44769E-04
 0.79279999E+02 -0.18421E-05
 0.79330002E+02 -0.53573E-04
 0.79379997E+02 -0.10135E-03
 0.79430000E+02 -0.14108E-03
 0.79480003E+02 -0.17366E-03
 0.79529999E+02 -0.19570E-03
 0.79580002E+02 -0.20042E-03
 0.79629997E+02 -0.18734E-03
 0.79680000E+02 -0.15894E-03
 0.79730003E+02 -0.11005E-03
 0.79779999E+02 -0.42697E-04
 0.79830002E+02  0.24617E-04
 0.79879997E+02  0.81267E-04
 0.79930000E+02  0.12296E-03
 0.79980003E+02  0.14329E-03
 0.80029999E+02  0.14299E-03
 0.80080002E+02  0.12259E-03
 0.80129997E+02  0.92735E-04
 0.80180000E+02  0.69487E-04
 0.80230003E+02  0.55321E-04
 0.80279999E+02  0.43064E-04
 0.80330002E+02  0.29914E-04
 0.80379997E+02  0.20065E-04
 0.80430000E+02  0.85797E-05
 0.80480003E+02 -0.85497E-05
 0.80529999E+02 -0.26772E-04
 0.80580002E+02 -0.44198E-04
 0.80629997E+02 -0.64753E-04
 0.80680000E+02 -0.89256E-04
 0.80730003E+02 -0.10603E-03
 0.80779999E+02 -0.10153E-03
 0.80830002E+02 -0.77736E-04
 0.80879997E+02 -0.45905E-04
 0.80930000E+02 -0.56289E-05
 0.80980003E+02  0.38273E-04
 0.81029999E+02  0.69588E-04
 0.81080002E+02  0.85810E-04
 0.81129997E+02  0.87554E-04
 0.81180000E+02  0.68618E-04
 0.81230003E+02  0.33541E-04
 0.81279999E+02 -0.23148E-05
 0.81330002E+02 -0.25937E-04
 0.81379997E+02 -0.30129E-04
 0.81430000E+02 -0.21032E-04
 0.81480003E+02 -0.11293E-04
 0.81529999E+02 -0.16674E-05
 0.81580002E+02  0.14605E-04
 0.81629997E+02  0.47741E-04
 0.81680000E+02  0.96051E-04
 0.81730003E+02  0.13338E-03
 0.81779999E+02  0.14051E-03
 0.81830002E+02  0.11896E-03
 0.81879997E+02  0.74998E-04
 0.81930000E+02  0.10437E-04
 0.81980003E+02 -0.71063E-04
 0.82029999E+02 -0.15149E-03
 0.82080002E+02 -0.20956E-03
 0.82129997E+02 -0.22656E-03
 0.82180000E+02 -0.20173E-03
 0.82230003E+02 -0.16049E-03
 0.82279999E+02 -0.11760E-03
 0.82330002E+02 -0.78786E-04
 0.82379997E+02 -0.53283E-04
 0.82430000E+02 -0.42160E-04
 0.82480003E+02 -0.40797E-04
 0.82529999E+02 -0.39542E-04
 0.82580002E+02 -0.33948E-04
 0.82629997E+02 -0.22544E-04
 0.82680000E+02  0.29127E-05
 0.82730003E+02  0.42404E-04
 0.82779999E+02  0.85748E-04
 0.82830002E+02  0.11826E-03
 0.82879997E+02  0.13006E-03
 0.82930000E+02  0.13058E-03
 0.82980003E+02  0.13575E-03
 0.83029999E+02  0.14375E-03
 0.83080002E+02  0.14407E-03
 0.83129997E+02  0.14075E-03
 0.83180000E+02  0.14564E-03
 0.83230003E+02  0.15886E-03
 0.83279999E+02  0.16339E-03
 0.83330002E+02  0.14128E-03
 0.83379997E+02  0.92315E-04
 0.83430000E+02  0.33594E-04
 0.83480003E+02 -0.20524E-04
 0.83529999E+02 -0.73896E-04
 0.83580002E+02 -0.12908E-03
 0.83629997E+02 -0.17172E-03
 0.83680000E+02 -0.18875E-03
 0.83730003E+02 -0.18332E-03
 0.83779999E+02 -0.16706E-03
 0.83830002E+02 -0.14323E-03
 0.83879997E+02 -0.10923E-03
 0.83930000E+02 -0.72766E-04
 0.83980003E+02 -0.42772E-04
 0.84029999E+02 -0.21047E-04
 0.84080002E+02 -0.67434E-05
 0.84129997E+02  0.16683E-05
 0.84180000E+02  0.13431E-05
 0.84230003E+02 -0.52221E-05
 0.84279999E+02 -0.47859E-05
 0.84330002E+02  0.12734E-04
 0.84379997E+02  0.41308E-04
 0.84430000E+02  0.58479E-04
 0.84480003E+02  0.49607E-04
 0.84529999E+02  0.24910E-04
 0.84580002E+02  0.24989E-06
 0.84629997E+02 -0.15185E-04
 0.84680000E+02 -0.17292E-04
 0.84730003E+02 -0.12217E-04
 0.84779999E+02 -0.29167E-05
 0.84830002E+02  0.15853E-04
 0.84879997E+02  0.39275E-04
 0.84930000E+02  0.57495E-04
 0.84980003E+02  0.71232E-04
 0.85029999E+02  0.86189E-04
 0.85080002E+02  0.97069E-04
 0.85129997E+02  0.93167E-04
 0.85180000E+02  0.71793E-04
 0.85230003E+02  0.31786E-04
 0.85279999E+02 -0.19937E-04
 0.85330002E+02 -0.70491E-04
 0.85379997E+02 -0.11827E-03
 0.85430000E+02 -0.15969E-03
 0.85480003E+02 -0.18157E-03
 0.85529999E+02 -0.17111E-03
 0.85580002E+02 -0.12194E-03
 0.85629997E+02 -0.42566E-04
 0.85680000E+02  0.44596E-04
 0.85730003E+02  0.11620E-03
 0.85779999E+02  0.15362E-03
 0.85830002E+02  0.15148E-03
 0.85879997E+02  0.12235E-03
 0.85930000E+02  0.78603E-04
 0.85980003E+02  0.32284E-04
 0.86029999E+02 -0.44895E-05
 0.86080002E+02 -0.26573E-04
 0.86129997E+02 -0.32968E-04
 0.86180000E+02 -0.27606E-04
 0.86230003E+02 -0.13974E-04
 0.86279999E+02 -0.24989E-05
 0.86330002E+02  0.19937E-05
 0.86379997E+02  0.34806E-05
 0.86430000E+02 -0.65891E-06
 0.86480003E+02 -0.12977E-05
 0.86529999E+02  0.15241E-04
 0.86580002E+02  0.47367E-04
 0.86629997E+02  0.83592E-04
 0.86680000E+02  0.11126E-03
 0.86730003E+02  0.11446E-03
 0.86779999E+02  0.82508E-04
 0.86830002E+02  0.21878E-04
 0.86879997E+02 -0.54246E-04
 0.86930000E+02 -0.12620E-03
 0.86980003E+02 -0.17083E-03
 0.87029999E+02 -0.17844E-03
 0.87080002E+02 -0.15814E-03
 0.87129997E+02 -0.12619E-03
 0.87180000E+02 -0.87076E-04
 0.87230003E+02 -0.38291E-04
 0.87279999E+02  0.10266E-04
 0.87330002E+02  0.39275E-04
 0.87379997E+02  0.40623E-04
 0.87430000E+02  0.23308E-04
 0.87480003E+02 -0.58396E-06
 0.87529999E+02 -0.21429E-04
 0.87580002E+02 -0.31822E-04
 0.87629997E+02 -0.30847E-04
 0.87680000E+02 -0.24233E-04
 0.87730003E+02 -0.19971E-04
 0.87779999E+02 -0.14343E-04
 0.87830002E+02  0.81141E-05
 0.87879997E+02  0.52234E-04
 0.87930000E+02  0.10450E-03
 0.87980003E+02  0.14339E-03
 0.88029999E+02  0.15482E-03
 0.88080002E+02  0.13928E-03
 0.88129997E+02  0.10854E-03
 0.88180000E+02  0.77826E-04
 0.88230003E+02  0.54271E-04
 0.88279999E+02  0.39206E-04
 0.88330002E+02  0.31286E-04
 0.88379997E+02  0.27005E-04
 0.88430000E+02  0.19020E-04
 0.88480003E+02 -0.83347E-05
 0.88529999E+02 -0.58196E-04
 0.88580002E+02 -0.11733E-03
 0.88629997E+02 -0.17338E-03
 0.88680000E+02 -0.20845E-03
 0.88730003E+02 -0.21192E-03
 0.88779999E+02 -0.18702E-03
 0.88830002E+02 -0.13318E-03
 0.88879997E+02 -0.62577E-04
 0.88930000E+02  0.16222E-05
 0.88980003E+02  0.46750E-04
 0.89029999E+02  0.70553E-04
 0.89080002E+02  0.78025E-04
 0.89129997E+02  0.76256E-04
 0.89180000E+02  0.72009E-04
 0.89230003E+02  0.68936E-04
 0.89279999E+02  0.68864E-04
 0.89330002E+02  0.71273E-04
 0.89379997E+02  0.74012E-04
 0.89430000E+02  0.73211E-04
 0.89480003E+02  0.62051E-04
 0.89529999E+02  0.46755E-04
 0.89580002E+02  0.35416E-04
 0.89629997E+02  0.23884E-04
 0.89680000E+02  0.12041E-04
 0.89730003E+02  0.61795E-06
 0.89779999E+02 -0.10477E-04
 0.89830002E+02 -0.15280E-04
 0.89879997E+02 -0.10839E-04
 0.89930000E+02 -0.35950E-05
 0.89980003E+02 -0.66384E-06
 0.90029999E+02 -0.26758E-06
 0.90080002E+02  0.17153E-05
 0.90129997E+02  0.43355E-05
 0.90180000E+02  0.44680E-05
 0.90230003E+02 -0.44907E-05
 0.90279999E+02 -0.26071E-04
 0.90330002E+02 -0.50105E-04
 0.90379997E+02 -0.68817E-04
 0.90430000E+02 -0.82770E-04
 0.90480003E+02 -0.93323E-04
 0.90529999E+02 -0.10130E-03
 0.90580002E+02 -0.99966E-04
 0.90629997E+02 -0.84042E-04
 0.90680000E+02 -0.56037E-04
 0.90730003E+02 -0.19491E-04
 0.90779999E+02  0.20345E-04
 0.90830002E+02  0.54260E-04
 0.90879997E+02  0.73450E-04
 0.90930000E+02  0.74410E-04
 0.90980003E+02  0.59328E-04
 0.91029999E+02  0.37542E-04
 0.91080002E+02  0.22748E-04
 0.91129997E+02  0.19376E-04
 0.91180000E+02  0.18070E-04
 0.91230003E+02  0.13765E-04
 0.91279999E+02  0.11826E-04
 0.91330002E+02  0.16162E-04
 0.91379997E+02  0.26710E-04
 0.91430000E+02  0.43554E-04
 0.91480003E+02  0.60292E-04
 0.91529999E+02  0.66909E-04
 0.91580002E+02  0.63490E-04
 0.91629997E+02  0.54112E-04
 0.91680000E+02  0.37800E-04
 0.91730003E+02  0.10405E-04
 0.91779999E+02 -0.22859E-04
 0.91830002E+02 -0.46792E-04
 0.91879997E+02 -0.56258E-04
 0.91930000E+02 -0.57768E-04
 0.91980003E+02 -0.53584E-04
 0.92029999E+02 -0.44388E-04
 0.92080002E+02 -0.34801E-04
 0.92129997E+02 -0.24344E-04
 0.92180000E+02 -0.11344E-04
 0.92230003E+02  0.26756E-05
 0.92279999E+02  0.15566E-04
 0.92330002E+02  0.22740E-04
 0.92379997E+02  0.18560E-04
 0.92430000E+02  0.11761E-05
 0.92480003E+02 -0.26296E-04
 0.92529999E+02 -0.56538E-04
 0.92580002E+02 -0.79283E-04
 0.92629997E+02 -0.88944E-04
 0.92680000E+02 -0.80297E-04
 0.92730003E+02 -0.51082E-04
 0.92779999E+02 -0.14322E-04
 0.92830002E+02  0.13167E-04
 0.92879997E+02  0.24182E-04
 0.92930000E+02  0.22718E-04
 0.92980003E+02  0.16520E-04
 0.93029999E+02  0.13670E-04
 0.93080002E+02  0.20868E-04
 0.93129997E+02  0.36945E-04
 0.93180000E+02  0.57930E-04
 0.93230003E+02  0.77761E-04
 0.93279999E+02  0.89394E-04
 0.93330002E+02  0.89036E-04
 0.93379997E+02  0.76101E-04
 0.93430000E+02  0.53780E-04
 0.93480003E+02  0.24961E-04
 0.93529999E+02  0.88419E-06
 0.93580002E+02 -0.88161E-05
 0.93629997E+02 -0.12553E-04
 0.93680000E+02 -0.17031E-04
 0.93730003E+02 -0.25019E-04
 0.93779999E+02 -0.35645E-04
 0.93830002E+02 -0.42181E-04
 0.93879997E+02 -0.41764E-04
 0.93930000E+02 -0.30712E-04
 0.93980003E+02 -0.11423E-04
 0.94029999E+02  0.79272E-05
 0.94080002E+02  0.22137E-04
 0.94129997E+02  0.26389E-04
 0.94180000E+02  0.13407E-04
 0.94230003E+02 -0.21116E-04
 0.94279999E+02 -0.61618E-04
 0.94330002E+02 -0.89577E-04
 0.94379997E+02 -0.10215E-03
 0.94430000E+02 -0.95329E-04
 0.94480003E+02 -0.67971E-04
 0.94529999E+02 -0.31321E-04
 0.94580002E+02  0.21421E-05
 0.94629997E+02  0.30263E-04
 0.94680000E+02  0.56463E-04
 0.94730003E+02  0.75086E-04
 0.94779999E+02  0.83314E-04
 0.94830002E+02  0.88767E-04
 0.94879997E+02  0.93440E-04
 0.94930000E+02  0.90780E-04
 0.94980003E+02  0.74763E-04
 0.95029999E+02  0.46174E-04
 0.95080002E+02  0.99526E-05
 0.95129997E+02 -0.26619E-04
 0.95180000E+02 -0.56768E-04
 0.95230003E+02 -0.77063E-04
 0.95279999E+02 -0.86486E-04
 0.95330002E+02 -0.86750E-04
 0.95379997E+02 -0.79658E-04
 0.95430000E+02 -0.65629E-04
 0.95480003E+02 -0.45842E-04
 0.95529999E+02 -0.23288E-04
 0.95580002E+02  0.83041E-06
 0.95629997E+02  0.22202E-04
 0.95680000E+02  0.33039E-04
 0.95730003E+02  0.34451E-04
 0.95779999E+02  0.34474E-04
 0.95830002E+02  0.35055E-04
 0.95879997E+02  0.33077E-04
 0.95930000E+02  0.30683E-04
 0.95980003E+02  0.31010E-04
 0.96029999E+02  0.33209E-04
 0.96080002E+02  0.38139E-04
 0.96129997E+02  0.47952E-04
 0.96180000E+02  0.58514E-04
 0.96230003E+02  0.61074E-04
 0.96279999E+02  0.52279E-04
 0.96330002E+02  0.35545E-04
 0.96379997E+02  0.13946E-04
 0.96430000E+02 -0.10037E-04
 0.96480003E+02 -0.32778E-04
 0.96529999E+02 -0.52800E-04
 0.96580002E+02 -0.65137E-04
 0.96629997E+02 -0.63921E-04
 0.96680000E+02 -0.50762E-04
 0.96730003E+02 -0.28793E-04
 0.96779999E+02 -0.66386E-05
 0.96830002E+02  0.25440E-05
 0.96879997E+02 -0.43364E-05
 0.96930000E+02 -0.20573E-04
 0.96980003E+02 -0.34383E-04
 0.97029999E+02 -0.39955E-04
 0.97080002E+02 -0.39829E-04
 0.97129997E+02 -0.36885E-04
 0.97180000E+02 -0.37079E-04
 0.97230003E+02 -0.44239E-04
 0.97279999E+02 -0.53259E-04
 0.97330002E+02 -0.51818E-04
 0.97379997E+02 -0.36033E-04
 0.97430000E+02 -0.13031E-04
 0.97480003E+02  0.16004E-04
 0.97529999E+02  0.47480E-04
 0.97580002E+02  0.72923E-04
 0.97629997E+02  0.91642E-04
 0.97680000E+02  0.10485E-03
 0.97730003E+02  0.10894E-03
 0.97779999E+02  0.10034E-03
 0.97830002E+02  0.81515E-04
 0.97879997E+02  0.56469E-04
 0.97930000E+02  0.25815E-04
 0.97980003E+02 -0.11170E-04
 0.98029999E+02 -0.53169E-04
 0.98080002E+02 -0.91785E-04
 0.98129997E+02 -0.11679E-03
 0.98180000E+02 -0.12294E-03
 0.98230003E+02 -0.10803E-03
 0.98279999E+02 -0.74138E-04
 0.98330002E+02 -0.29473E-04
 0.98379997E+02  0.14291E-04
 0.98430000E+02  0.48295E-04
 0.98480003E+02  0.70717E-04
 0.98529999E+02  0.83368E-04
 0.98580002E+02  0.87800E-04
 0.98629997E+02  0.83125E-04
 0.98680000E+02  0.66233E-04
 0.98730003E+02  0.38748E-04
 0.98779999E+02  0.83440E-05
 0.98830002E+02 -0.16397E-04
 0.98879997E+02 -0.33684E-04
 0.98930000E+02 -0.48116E-04
 0.98980003E+02 -0.60420E-04
 0.99029999E+02 -0.69400E-04
 0.99080002E+02 -0.73095E-04
 0.99129997E+02 -0.68523E-04
 0.99180000E+02 -0.56711E-04
 0.99230003E+02 -0.44199E-04
 0.99279999E+02 -0.33301E-04
 0.99330002E+02 -0.15975E-04
 0.99379997E+02  0.85459E-05
 0.99430000E+02  0.31439E-04
 0.99480003E+02  0.47195E-04
 0.99529999E+02  0.57537E-04
 0.99580002E+02  0.65943E-04
 0.99629997E+02  0.70839E-04
 0.99680000E+02  0.69643E-04
 0.99730003E+02  0.61500E-04
 0.99779999E+02  0.50783E-04
 0.99830002E+02  0.45894E-04
 0.99879997E+02  0.47838E-04
 0.99930000E+02  0.50459E-04
 0.99980003E+02  0.51927E-04
 0.10003000E+03  0.52138E-04
 0.10008000E+03  0.46313E-04
 0.10013000E+03  0.31317E-04
 0.10018000E+03  0.49833E-05
 0.10023000E+03 -0.32410E-04
 0.10028000E+03 -0.72348E-04
 0.10033000E+03 -0.10617E-03
 0.10038000E+03 -0.12527E-03
 0.10043000E+03 -0.12416E-03
 0.10048000E+03 -0.10910E-03
 0.10053000E+03 -0.89595E-04
 0.10058000E+03 -0.70536E-04
 0.10063000E+03 -0.51703E-04
 0.10068000E+03 -0.32037E-04
 0.10073000E+03 -0.15751E-04
 0.10078000E+03 -0.64161E-05
 0.10083000E+03  0.47598E-06
 0.10088000E+03  0.50047E-05
 0.10093000E+03  0.16687E-05
 0.10098000E+03 -0.43112E-05
 0.10103000E+03 -0.20936E-05
 0.10108000E+03  0.11300E-04
 0.10113000E+03  0.31240E-04
 0.10118000E+03  0.51534E-04
 0.10123000E+03  0.65962E-04
 0.10128000E+03  0.68342E-04
 0.10133000E+03  0.58541E-04
 0.10138000E+03  0.44545E-04
 0.10143000E+03  0.31515E-04
 0.10148000E+03  0.18038E-04
 0.10153000E+03  0.38689E-05
 0.10158000E+03 -0.61863E-05
 0.10163000E+03 -0.80193E-05
 0.10168000E+03 -0.34534E-05
 0.10173000E+03  0.53628E-05
 0.10178000E+03  0.16627E-04
 0.10183000E+03  0.28332E-04
 0.10188000E+03  0.37552E-04
 0.10193000E+03  0.37189E-04
 0.10198000E+03  0.28343E-04
 0.10203000E+03  0.18965E-04
 0.10208000E+03  0.84596E-05
 0.10213000E+03 -0.49598E-05
 0.10218000E+03 -0.20287E-04
 0.10223000E+03 -0.34779E-04
 0.10228000E+03 -0.44585E-04
 0.10233000E+03 -0.52120E-04
 0.10238000E+03 -0.56729E-04
 0.10243000E+03 -0.54710E-04
 0.10248000E+03 -0.45871E-04
 0.10253000E+03 -0.30131E-04
 0.10258000E+03 -0.13449E-04
 0.10263000E+03 -0.15775E-05
 0.10268000E+03  0.62154E-05
 0.10273000E+03  0.14748E-04
 0.10278000E+03  0.28543E-04
 0.10283000E+03  0.41563E-04
 0.10288000E+03  0.46556E-04
 0.10293000E+03  0.43647E-04
 0.10298000E+03  0.33441E-04
 0.10303000E+03  0.18522E-04
 0.10308000E+03  0.21645E-05
 0.10313000E+03 -0.14815E-04
 0.10318000E+03 -0.29342E-04
 0.10323000E+03 -0.38078E-04
 0.10328000E+03 -0.37850E-04
 0.10333000E+03 -0.27791E-04
 0.10338000E+03 -0.12238E-04
 0.10343000E+03  0.47170E-05
 0.10348000E+03  0.16872E-04
 0.10353000E+03  0.20579E-04
 0.10358000E+03  0.18280E-04
 0.10363000E+03  0.13541E-04
 0.10368000E+03  0.10095E-04
 0.10373000E+03  0.86809E-05
 0.10378000E+03  0.90539E-05
 0.10383000E+03  0.87703E-05
 0.10388000E+03  0.18663E-05
 0.10393000E+03 -0.12465E-04
 0.10398000E+03 -0.26904E-04
 0.10403000E+03 -0.34485E-04
 0.10408000E+03 -0.34460E-04
 0.10413000E+03 -0.28456E-04
 0.10418000E+03 -0.14302E-04
 0.10423000E+03  0.67877E-05
 0.10428000E+03  0.26742E-04
 0.10433000E+03  0.40790E-04
 0.10438000E+03  0.48067E-04
 0.10443000E+03  0.51533E-04
 0.10448000E+03  0.54059E-04
 0.10453000E+03  0.54227E-04
 0.10458000E+03  0.48856E-04
 0.10463000E+03  0.34777E-04
 0.10468000E+03  0.10955E-04
 0.10473000E+03 -0.19467E-04
 0.10478000E+03 -0.50278E-04
 0.10483000E+03 -0.78627E-04
 0.10488000E+03 -0.10043E-03
 0.10493000E+03 -0.10946E-03
 0.10498000E+03 -0.10638E-03
 0.10503000E+03 -0.94295E-04
 0.10508000E+03 -0.73213E-04
 0.10513000E+03 -0.44211E-04
 0.10518000E+03 -0.95113E-05
 0.10523000E+03  0.28278E-04
 0.10528000E+03  0.61033E-04
 0.10533000E+03  0.78352E-04
 0.10538000E+03  0.79144E-04
 0.10543000E+03  0.70991E-04
 0.10548000E+03  0.62559E-04
 0.10553000E+03  0.61772E-04
 0.10558000E+03  0.68634E-04
 0.10563000E+03  0.75810E-04
 0.10568000E+03  0.79038E-04
 0.10573000E+03  0.75515E-04
 0.10578000E+03  0.61784E-04
 0.10583000E+03  0.37159E-04
 0.10588000E+03  0.44940E-05
 0.10593000E+03 -0.29270E-04
 0.10598000E+03 -0.56858E-04
 0.10603000E+03 -0.72505E-04
 0.10608000E+03 -0.73799E-04
 0.10613000E+03 -0.62949E-04
 0.10618000E+03 -0.42425E-04
 0.10623000E+03 -0.17553E-04
 0.10628000E+03  0.46614E-05
 0.10633000E+03  0.16122E-04
 0.10638000E+03  0.11991E-04
 0.10643000E+03 -0.35038E-05
 0.10648000E+03 -0.25046E-04
 0.10653000E+03 -0.46963E-04
 0.10658000E+03 -0.63506E-04
 0.10663000E+03 -0.72206E-04
 0.10668000E+03 -0.74835E-04
 0.10673000E+03 -0.73402E-04
 0.10678000E+03 -0.66237E-04
 0.10683000E+03 -0.53701E-04
 0.10688000E+03 -0.38092E-04
 0.10693000E+03 -0.18465E-04
 0.10698000E+03  0.65445E-05
 0.10703000E+03  0.32139E-04
 0.10708000E+03  0.52493E-04
 0.10713000E+03  0.65831E-04
 0.10718000E+03  0.74134E-04
 0.10723000E+03  0.78413E-04
 0.10728000E+03  0.74968E-04
 0.10733000E+03  0.64390E-04
 0.10738000E+03  0.48588E-04
 0.10743000E+03  0.29407E-04
 0.10748000E+03  0.12245E-04
 0.10753000E+03 -0.11920E-05
 0.10758000E+03 -0.10671E-04
 0.10763000E+03 -0.15191E-04
 0.10768000E+03 -0.14459E-04
 0.10773000E+03 -0.94662E-05
 0.10778000E+03 -0.35649E-05
 0.10783000E+03  0.15992E-05
 0.10788000E+03  0.63763E-05
 0.10793000E+03  0.10320E-04
 0.10798000E+03  0.12047E-04
 0.10803000E+03  0.11306E-04
 0.10808000E+03  0.83651E-05
 0.10813000E+03  0.54157E-05
 0.10818000E+03  0.76707E-05
 0.10823000E+03  0.14905E-04
 0.10828000E+03  0.22578E-04
 0.10833000E+03  0.25030E-04
 0.10838000E+03  0.14927E-04
 0.10843000E+03 -0.83704E-05
 0.10848000E+03 -0.34905E-04
 0.10853000E+03 -0.53725E-04
 0.10858000E+03 -0.63570E-04
 0.10863000E+03 -0.67960E-04
 0.10868000E+03 -0.68386E-04
 0.10873000E+03 -0.63468E-04
 0.10878000E+03 -0.48430E-04
 0.10883000E+03 -0.23363E-04
 0.10888000E+03  0.45360E-05
 0.10893000E+03  0.29648E-04
 0.10898000E+03  0.48845E-04
 0.10903000E+03  0.61458E-04
 0.10908000E+03  0.66820E-04
 0.10913000E+03  0.64214E-04
 0.10918000E+03  0.58193E-04
 0.10923000E+03  0.50342E-04
 0.10928000E+03  0.38637E-04
 0.10933000E+03  0.23863E-04
 0.10938000E+03  0.74863E-05
 0.10943000E+03 -0.10318E-04
 0.10948000E+03 -0.29144E-04
 0.10953000E+03 -0.45977E-04
 0.10958000E+03 -0.56697E-04
 0.10963000E+03 -0.58684E-04
 0.10968000E+03 -0.54794E-04
 0.10973000E+03 -0.51757E-04
 0.10978000E+03 -0.52802E-04
 0.10983000E+03 -0.51408E-04
 0.10988000E+03 -0.40459E-04
 0.10993000E+03 -0.20910E-04
 0.10998000E+03  0.42418E-05
 0.11003000E+03  0.31417E-04
 0.11008000E+03  0.56596E-04
 0.11013000E+03  0.74090E-04
 0.11018000E+03  0.81172E-04
 0.11023000E+03  0.77509E-04
 0.11028000E+03  0.64074E-04
 0.11033000E+03  0.44886E-04
 0.11038000E+03  0.21429E-04
 0.11043000E+03 -0.36539E-05
 0.11048000E+03 -0.26647E-04
 0.11053000E+03 -0.41668E-04
 0.11058000E+03 -0.45626E-04
 0.11063000E+03 -0.41827E-04
 0.11068000E+03 -0.32321E-04
 0.11073000E+03 -0.21922E-04
 0.11078000E+03 -0.13713E-04
 0.11083000E+03 -0.52915E-05
 0.11088000E+03  0.47031E-05
 0.11093000E+03  0.13495E-04
 0.11098000E+03  0.16013E-04
 0.11103000E+03  0.13106E-04
 0.11108000E+03  0.85554E-05
 0.11113000E+03  0.27290E-05
 0.11118000E+03 -0.40438E-05
 0.11123000E+03 -0.98692E-05
 0.11128000E+03 -0.13653E-04
 0.11133000E+03 -0.16363E-04
 0.11138000E+03 -0.17916E-04
 0.11143000E+03 -0.16939E-04
 0.11148000E+03 -0.12983E-04
 0.11153000E+03 -0.65673E-05
 0.11158000E+03 -0.34346E-06
 0.11163000E+03  0.18578E-05
 0.11168000E+03  0.44263E-06
 0.11173000E+03 -0.15591E-05
 0.11178000E+03 -0.31223E-05
 0.11183000E+03 -0.31799E-05
 0.11188000E+03 -0.23933E-05
 0.11193000E+03  0.40983E-06
 0.11198000E+03  0.83811E-05
 0.11203000E+03  0.18158E-04
 0.11208000E+03  0.25496E-04
 0.11213000E+03  0.29090E-04
 0.11218000E+03  0.28642E-04
 0.11223000E+03  0.25666E-04
 0.11228000E+03  0.20867E-04
 0.11233000E+03  0.16477E-04
 0.11238000E+03  0.13512E-04
 0.11243000E+03  0.82108E-05
 0.11248000E+03 -0.18998E-07
 0.11253000E+03 -0.86507E-05
 0.11258000E+03 -0.15970E-04
 0.11263000E+03 -0.22684E-04
 0.11268000E+03 -0.28870E-04
 0.11273000E+03 -0.29363E-04
 0.11278000E+03 -0.23709E-04
 0.11283000E+03 -0.17719E-04
 0.11288000E+03 -0.15481E-04
 0.11293000E+03 -0.17454E-04
 0.11298000E+03 -0.19018E-04
 0.11303000E+03 -0.18007E-04
 0.11308000E+03 -0.15925E-04
 0.11313000E+03 -0.10043E-04
 0.11318000E+03  0.27541E-05
 0.11323000E+03  0.19687E-04
 0.11328000E+03  0.34807E-04
 0.11333000E+03  0.44580E-04
 0.11338000E+03  0.47683E-04
 0.11343000E+03  0.45695E-04
 0.11348000E+03  0.41410E-04
 0.11353000E+03  0.34090E-04
 0.11358000E+03  0.24973E-04
 0.11363000E+03  0.16657E-04
 0.11368000E+03  0.84452E-05
 0.11373000E+03 -0.15322E-06
 0.11378000E+03 -0.97457E-05
 0.11383000E+03 -0.20253E-04
 0.11388000E+03 -0.29307E-04
 0.11393000E+03 -0.35080E-04
 0.11398000E+03 -0.38401E-04
 0.11403000E+03 -0.42007E-04
 0.11408000E+03 -0.47208E-04
 0.11413000E+03 -0.52750E-04
 0.11418000E+03 -0.54721E-04
 0.11423000E+03 -0.49118E-04
 0.11428000E+03 -0.37361E-04
 0.11433000E+03 -0.22439E-04
 0.11438000E+03 -0.75694E-05
 0.11443000E+03  0.33168E-05
 0.11448000E+03  0.12115E-04
 0.11453000E+03  0.21504E-04
 0.11458000E+03  0.30540E-04
 0.11463000E+03  0.38712E-04
 0.11468000E+03  0.47181E-04
 0.11473000E+03  0.55820E-04
 0.11478000E+03  0.62765E-04
 0.11483000E+03  0.66476E-04
 0.11488000E+03  0.62183E-04
 0.11493000E+03  0.48776E-04
 0.11498000E+03  0.31914E-04
 0.11503000E+03  0.14722E-04
 0.11508000E+03 -0.59536E-06
 0.11513000E+03 -0.12188E-04
 0.11518000E+03 -0.21195E-04
 0.11523000E+03 -0.28094E-04
 0.11528000E+03 -0.32004E-04
 0.11533000E+03 -0.33970E-04
 0.11538000E+03 -0.34799E-04
 0.11543000E+03 -0.32959E-04
 0.11548000E+03 -0.27759E-04
 0.11553000E+03 -0.19722E-04
 0.11558000E+03 -0.11790E-04
 0.11563000E+03 -0.61678E-05
 0.11568000E+03 -0.18421E-05
 0.11573000E+03  0.21537E-06
 0.11578000E+03 -0.20929E-05
 0.11583000E+03 -0.75038E-05
 0.11588000E+03 -0.12160E-04
 0.11593000E+03 -0.16064E-04
 0.11598000E+03 -0.22112E-04
 0.11603000E+03 -0.29182E-04
 0.11608000E+03 -0.31057E-04
 0.11613000E+03 -0.23140E-04
 0.11618000E+03 -0.84503E-05
 0.11623000E+03  0.71367E-05
 0.11628000E+03  0.20057E-04
 0.11633000E+03  0.29151E-04
 0.11638000E+03  0.33752E-04
 0.11643000E+03  0.33636E-04
 0.11648000E+03  0.30215E-04
 0.11653000E+03  0.24014E-04
 0.11658000E+03  0.15559E-04
 0.11663000E+03  0.76666E-05
 0.11668000E+03  0.22625E-05
 0.11673000E+03 -0.78592E-07
 0.11678000E+03 -0.10726E-05
 0.11683000E+03 -0.24217E-05
 0.11688000E+03 -0.40274E-05
 0.11693000E+03 -0.63811E-05
 0.11698000E+03 -0.70411E-05
 0.11703000E+03 -0.51585E-05
 0.11708000E+03 -0.30937E-05
 0.11713000E+03 -0.17944E-05
 0.11718000E+03 -0.19712E-05
 0.11723000E+03 -0.33316E-05
 0.11728000E+03 -0.44887E-05
 0.11733000E+03 -0.34787E-05
 0.11738000E+03 -0.34175E-07
 0.11743000E+03  0.53402E-05
 0.11748000E+03  0.14440E-04
 0.11753000E+03  0.24363E-04
 0.11758000E+03  0.29537E-04
 0.11763000E+03  0.28543E-04
 0.11768000E+03  0.21610E-04
 0.11773000E+03  0.12901E-04
 0.11778000E+03  0.56467E-05
 0.11783000E+03 -0.56166E-07
 0.11788000E+03 -0.58673E-05
 0.11793000E+03 -0.12914E-04
 0.11798000E+03 -0.18383E-04
 0.11803000E+03 -0.21920E-04
 0.11808000E+03 -0.22361E-04
 0.11813000E+03 -0.21433E-04
 0.11818000E+03 -0.24185E-04
 0.11823000E+03 -0.31129E-04
 0.11828000E+03 -0.39715E-04
 0.11833000E+03 -0.44221E-04
 0.11838000E+03 -0.40457E-04
 0.11843000E+03 -0.26063E-04
 0.11848000E+03 -0.35933E-05
 0.11853000E+03  0.19999E-04
 0.11858000E+03  0.40833E-04
 0.11863000E+03  0.56107E-04
 0.11868000E+03  0.64721E-04
 0.11873000E+03  0.64871E-04
 0.11878000E+03  0.55484E-04
 0.11883000E+03  0.38185E-04
 0.11888000E+03  0.17283E-04
 0.11893000E+03 -0.63269E-06
 0.11898000E+03 -0.14664E-04
 0.11903000E+03 -0.26258E-04
 0.11908000E+03 -0.36054E-04
 0.11913000E+03 -0.45255E-04
 0.11918000E+03 -0.56359E-04
 0.11923000E+03 -0.70238E-04
 0.11928000E+03 -0.79520E-04
 0.11933000E+03 -0.75270E-04
 0.11938000E+03 -0.55557E-04
 0.11943000E+03 -0.22927E-04
 0.11948000E+03  0.17458E-04
 0.11953000E+03  0.55546E-04
 0.11958000E+03  0.83662E-04
 0.11963000E+03  0.99633E-04
 0.11968000E+03  0.10099E-03
 0.11973000E+03  0.88134E-04
 0.11978000E+03  0.66378E-04
 0.11983000E+03  0.38923E-04
 0.11988000E+03  0.61576E-05
 0.11993000E+03 -0.28233E-04
 0.11998000E+03 -0.55622E-04
 0.12003000E+03 -0.66185E-04
 0.12008000E+03 -0.58221E-04
 0.12013000E+03 -0.39215E-04
 0.12018000E+03 -0.18793E-04
 0.12023000E+03 -0.11210E-05
 0.12028000E+03  0.14545E-04
 0.12033000E+03  0.25185E-04
 0.12038000E+03  0.29795E-04
 0.12043000E+03  0.30346E-04
 0.12048000E+03  0.27422E-04
 0.12053000E+03  0.24074E-04
 0.12058000E+03  0.21415E-04
 0.12063000E+03  0.17316E-04
 0.12068000E+03  0.89993E-05
 0.12073000E+03 -0.56963E-05
 0.12078000E+03 -0.24708E-04
 0.12083000E+03 -0.45647E-04
 0.12088000E+03 -0.66390E-04
 0.12093000E+03 -0.81821E-04
 0.12098000E+03 -0.87751E-04
 0.12103000E+03 -0.82519E-04
 0.12108000E+03 -0.65400E-04
 0.12113000E+03 -0.39555E-04
 0.12118000E+03 -0.11610E-04
 0.12123000E+03  0.14103E-04
 0.12128000E+03  0.33142E-04
 0.12133000E+03  0.43379E-04
 0.12138000E+03  0.47493E-04
 0.12143000E+03  0.47088E-04
 0.12148000E+03  0.42350E-04
 0.12153000E+03  0.32616E-04
 0.12158000E+03  0.19979E-04
 0.12163000E+03  0.94706E-05
 0.12168000E+03  0.37128E-05
 0.12173000E+03  0.86807E-06
 0.12178000E+03 -0.90774E-06
 0.12183000E+03  0.31666E-05
 0.12188000E+03  0.14678E-04
 0.12193000E+03  0.27620E-04
 0.12198000E+03  0.38707E-04
 0.12203000E+03  0.44412E-04
 0.12208000E+03  0.41877E-04
 0.12213000E+03  0.34113E-04
 0.12218000E+03  0.24180E-04
 0.12223000E+03  0.13507E-04
 0.12228000E+03  0.31226E-05
 0.12233000E+03 -0.62324E-05
 0.12238000E+03 -0.13334E-04
 0.12243000E+03 -0.16175E-04
 0.12248000E+03 -0.15138E-04
 0.12253000E+03 -0.12722E-04
 0.12258000E+03 -0.75993E-05
 0.12263000E+03 -0.83570E-06
 0.12268000E+03  0.85776E-06
 0.12273000E+03 -0.40887E-05
 0.12278000E+03 -0.12547E-04
 0.12283000E+03 -0.22343E-04
 0.12288000E+03 -0.30751E-04
 0.12293000E+03 -0.37249E-04
 0.12298000E+03 -0.44170E-04
 0.12303000E+03 -0.49676E-04
 0.12308000E+03 -0.50313E-04
 0.12313000E+03 -0.47967E-04
 0.12318000E+03 -0.43416E-04
 0.12323000E+03 -0.33776E-04
 0.12328000E+03 -0.19792E-04
 0.12333000E+03 -0.44410E-05
 0.12338000E+03  0.10945E-04
 0.12343000E+03  0.23801E-04
 0.12348000E+03  0.33243E-04
 0.12353000E+03  0.40511E-04
 0.12358000E+03  0.45518E-04
 0.12363000E+03  0.48581E-04
 0.12368000E+03  0.46040E-04
 0.12373000E+03  0.37824E-04
 0.12378000E+03  0.28824E-04
 0.12383000E+03  0.21950E-04
 0.12388000E+03  0.18591E-04
 0.12393000E+03  0.12311E-04
 0.12398000E+03  0.44224E-05
 0.12403000E+03  0.25581E-05
 0.12408000E+03 -0.43351E-06
 0.12413000E+03 -0.62453E-05
 0.12418000E+03 -0.81019E-05
 0.12423000E+03 -0.12383E-04
 0.12428000E+03 -0.16958E-04
 0.12433000E+03 -0.17505E-04
 0.12438000E+03 -0.22315E-04
 0.12443000E+03 -0.23514E-04
 0.12448000E+03 -0.18136E-04
 0.12453000E+03 -0.12105E-04
 0.12458000E+03 -0.30166E-05
 0.12463000E+03  0.32572E-05
 0.12468000E+03  0.19804E-05
 0.12473000E+03 -0.16982E-05
 0.12478000E+03 -0.84639E-06
 0.12483000E+03  0.49693E-05
 0.12488000E+03  0.10624E-04
 0.12493000E+03  0.11033E-04
 0.12498000E+03  0.78170E-05
 0.12503000E+03  0.77674E-05
 0.12508000E+03  0.10428E-04
 0.12513000E+03  0.10727E-04
 0.12518000E+03  0.94046E-05
 0.12523000E+03  0.77973E-05
 0.12528000E+03  0.49285E-05
 0.12533000E+03  0.38624E-05
 0.12538000E+03  0.16867E-05
 0.12543000E+03 -0.24529E-05
 0.12548000E+03 -0.65709E-05
 0.12553000E+03 -0.12208E-04
 0.12558000E+03 -0.14822E-04
 0.12563000E+03 -0.12275E-04
 0.12568000E+03 -0.51608E-05
 0.12573000E+03  0.32934E-05
 0.12578000E+03  0.94337E-05
 0.12583000E+03  0.10950E-04
 0.12588000E+03  0.85886E-05
 0.12593000E+03  0.43281E-05
 0.12598000E+03 -0.56713E-05
 0.12603000E+03 -0.18283E-04
 0.12608000E+03 -0.28131E-04
 0.12613000E+03 -0.34479E-04
 0.12618000E+03 -0.38329E-04
 0.12623000E+03 -0.37861E-04
 0.12628000E+03 -0.32612E-04
 0.12633000E+03 -0.24246E-04
 0.12638000E+03 -0.62474E-05
 0.12643000E+03  0.13683E-04
 0.12648000E+03  0.28257E-04
 0.12653000E+03  0.42816E-04
 0.12658000E+03  0.52128E-04
 0.12663000E+03  0.54983E-04
 0.12668000E+03  0.52787E-04
 0.12673000E+03  0.48471E-04
 0.12678000E+03  0.44307E-04
 0.12683000E+03  0.36358E-04
 0.12688000E+03  0.28695E-04
 0.12693000E+03  0.17152E-04
 0.12698000E+03 -0.23196E-05
 0.12703000E+03 -0.20804E-04
 0.12708000E+03 -0.42637E-04
 0.12713000E+03 -0.68606E-04
 0.12718000E+03 -0.84711E-04
 0.12723000E+03 -0.88435E-04
 0.12728000E+03 -0.82796E-04
 0.12733000E+03 -0.70173E-04
 0.12738000E+03 -0.57581E-04
 0.12743000E+03 -0.43602E-04
 0.12748000E+03 -0.22385E-04
 0.12753000E+03  0.27777E-05
 0.12758000E+03  0.25958E-04
 0.12763000E+03  0.41075E-04
 0.12768000E+03  0.49398E-04
 0.12773000E+03  0.56559E-04
 0.12778000E+03  0.57520E-04
 0.12783000E+03  0.51734E-04
 0.12788000E+03  0.44635E-04
 0.12793000E+03  0.37693E-04
 0.12798000E+03  0.34599E-04
 0.12803000E+03  0.34486E-04
 0.12808000E+03  0.32409E-04
 0.12813000E+03  0.28118E-04
 0.12818001E+03  0.21739E-04
 0.12823000E+03  0.16418E-04
 0.12828000E+03  0.18394E-04
 0.12833000E+03  0.22958E-04
 0.12838000E+03  0.22305E-04
 0.12843001E+03  0.20998E-04
 0.12848000E+03  0.16748E-04
 0.12853000E+03  0.27320E-05
 0.12858000E+03 -0.13706E-04
 0.12863000E+03 -0.29215E-04
 0.12868001E+03 -0.45626E-04
 0.12873000E+03 -0.57133E-04
 0.12878000E+03 -0.62967E-04
 0.12883000E+03 -0.66894E-04
 0.12888000E+03 -0.64614E-04
 0.12893001E+03 -0.57702E-04
 0.12898000E+03 -0.52957E-04
 0.12903000E+03 -0.46577E-04
 0.12908000E+03 -0.35639E-04
 0.12913000E+03 -0.28432E-04
 0.12918001E+03 -0.26204E-04
 0.12923000E+03 -0.18002E-04
 0.12928000E+03 -0.32078E-05
 0.12933000E+03  0.13879E-04
 0.12938000E+03  0.32591E-04
 0.12943001E+03  0.49878E-04
 0.12948000E+03  0.63330E-04
 0.12953000E+03  0.75222E-04
 0.12958000E+03  0.86376E-04
 0.12963000E+03  0.88160E-04
 0.12968001E+03  0.77005E-04
 0.12973000E+03  0.55770E-04
 0.12978000E+03  0.28201E-04
 0.12983000E+03  0.29552E-05
 0.12988000E+03 -0.17215E-04
 0.12993001E+03 -0.35564E-04
 0.12998000E+03 -0.47199E-04
 0.13003000E+03 -0.51160E-04
 0.13008000E+03 -0.55203E-04
 0.13013000E+03 -0.54299E-04
 0.13018001E+03 -0.44419E-04
 0.13023000E+03 -0.29416E-04
 0.13028000E+03 -0.93240E-05
 0.13033000E+03  0.12105E-04
 0.13038000E+03  0.24387E-04
 0.13043001E+03  0.25469E-04
 0.13048000E+03  0.26395E-04
 0.13053000E+03  0.22880E-04
 0.13058000E+03  0.12113E-04
 0.13063000E+03  0.42778E-05
 0.13068001E+03 -0.50387E-05
 0.13073000E+03 -0.13996E-04
 0.13078000E+03 -0.16692E-04
 0.13083000E+03 -0.19719E-04
 0.13088000E+03 -0.23339E-04
 0.13093001E+03 -0.22649E-04
 0.13098000E+03 -0.21715E-04
 0.13103000E+03 -0.22557E-04
 0.13108000E+03 -0.20908E-04
 0.13113000E+03 -0.19014E-04
 0.13118001E+03 -0.15686E-04
 0.13123000E+03 -0.67641E-05
 0.13128000E+03  0.47710E-05
 0.13133000E+03  0.15437E-04
 0.13138000E+03  0.27218E-04
 0.13143001E+03  0.39763E-04
 0.13148000E+03  0.48628E-04
 0.13153000E+03  0.53111E-04
 0.13158000E+03  0.50929E-04
 0.13163000E+03  0.39803E-04
 0.13168001E+03  0.23790E-04
 0.13173000E+03  0.10795E-04
 0.13178000E+03  0.34422E-05
 0.13183000E+03 -0.17246E-05
 0.13188000E+03 -0.45354E-05
 0.13193001E+03 -0.31996E-05
 0.13198000E+03 -0.12753E-05
 0.13203000E+03 -0.30342E-05
 0.13208000E+03 -0.82611E-05
 0.13213000E+03 -0.16035E-04
 0.13218001E+03 -0.23434E-04
 0.13223000E+03 -0.29267E-04
 0.13228000E+03 -0.37423E-04
 0.13233000E+03 -0.43174E-04
 0.13238000E+03 -0.40374E-04
 0.13243001E+03 -0.34564E-04
 0.13248000E+03 -0.26600E-04
 0.13253000E+03 -0.13945E-04
 0.13258000E+03 -0.18154E-06
 0.13263000E+03  0.13843E-04
 0.13268001E+03  0.26176E-04
 0.13273000E+03  0.34723E-04
 0.13278000E+03  0.40517E-04
 0.13283000E+03  0.40037E-04
 0.13288000E+03  0.29937E-04
 0.13293001E+03  0.14380E-04
 0.13298000E+03 -0.54452E-06
 0.13303000E+03 -0.15177E-04
 0.13308000E+03 -0.28797E-04
 0.13313000E+03 -0.32516E-04
 0.13318001E+03 -0.25122E-04
 0.13323000E+03 -0.14954E-04
 0.13328000E+03 -0.41798E-05
 0.13333000E+03  0.53318E-05
 0.13338000E+03  0.10794E-04
 0.13343001E+03  0.12107E-04
 0.13348000E+03  0.94495E-05
 0.13353000E+03  0.62195E-05
 0.13358000E+03  0.26528E-05
 0.13363000E+03 -0.12125E-05
 0.13368001E+03 -0.27234E-05
 0.13373000E+03 -0.36742E-05
 0.13378000E+03 -0.49481E-05
 0.13383000E+03 -0.48688E-05
 0.13388000E+03 -0.41203E-05
 0.13393001E+03 -0.39367E-05
 0.13398000E+03 -0.39469E-05
 0.13403000E+03 -0.31711E-05
 0.13408000E+03 -0.15831E-05
 0.13413000E+03  0.18267E-05
 0.13418001E+03  0.82748E-05
 0.13423000E+03  0.14430E-04
 0.13428000E+03  0.17080E-04
 0.13433000E+03  0.17629E-04
 0.13438000E+03  0.17788E-04
 0.13443001E+03  0.17459E-04
 0.13448000E+03  0.16247E-04
 0.13453000E+03  0.15283E-04
 0.13458000E+03  0.14582E-04
 0.13463000E+03  0.93596E-05
 0.13468001E+03  0.48328E-06
 0.13473000E+03 -0.60023E-05
 0.13478000E+03 -0.10785E-04
 0.13483000E+03 -0.15154E-04
 0.13488000E+03 -0.18109E-04
 0.13493001E+03 -0.17183E-04
 0.13498000E+03 -0.12534E-04
 0.13503000E+03 -0.90807E-05
 0.13508000E+03 -0.90187E-05
 0.13513000E+03 -0.96001E-05
 0.13518001E+03 -0.10311E-04
 0.13523000E+03 -0.14476E-04
 0.13528000E+03 -0.18562E-04
 0.13533000E+03 -0.19935E-04
 0.13538000E+03 -0.18295E-04
 0.13543001E+03 -0.15597E-04
 0.13548000E+03 -0.15577E-04
 0.13553000E+03 -0.13831E-04
 0.13558000E+03 -0.70165E-05
 0.13563000E+03  0.41934E-05
 0.13568001E+03  0.14588E-04
 0.13573000E+03  0.21413E-04
 0.13578000E+03  0.26511E-04
 0.13583000E+03  0.29761E-04
 0.13588000E+03  0.30865E-04
 0.13593001E+03  0.29984E-04
 0.13598000E+03  0.32360E-04
 0.13603000E+03  0.39170E-04
 0.13608000E+03  0.41859E-04
 0.13613000E+03  0.38163E-04
 0.13618001E+03  0.30354E-04
 0.13623000E+03  0.14983E-04
 0.13628000E+03 -0.53092E-05
 0.13633000E+03 -0.25825E-04
 0.13638000E+03 -0.45004E-04
 0.13643001E+03 -0.59664E-04
 0.13648000E+03 -0.68541E-04
 0.13653000E+03 -0.67803E-04
 0.13658000E+03 -0.59399E-04
 0.13663000E+03 -0.48576E-04
 0.13668001E+03 -0.34616E-04
 0.13673000E+03 -0.20999E-04
 0.13678000E+03 -0.10375E-04
 0.13683000E+03  0.11562E-05
 0.13688000E+03  0.12605E-04
 0.13693001E+03  0.19993E-04
 0.13698000E+03  0.25652E-04
 0.13703000E+03  0.30071E-04
 0.13708000E+03  0.29893E-04
 0.13713000E+03  0.25932E-04
 0.13718001E+03  0.23716E-04
 0.13723000E+03  0.26270E-04
 0.13728000E+03  0.28927E-04
 0.13733000E+03  0.28634E-04
 0.13738000E+03  0.30794E-04
 0.13743001E+03  0.37022E-04
 0.13748000E+03  0.41503E-04
 0.13753000E+03  0.40036E-04
 0.13758000E+03  0.31579E-04
 0.13763000E+03  0.21398E-04
 0.13768001E+03  0.15295E-04
 0.13773000E+03  0.12850E-04
 0.13778000E+03  0.82661E-05
 0.13783000E+03 -0.36990E-05
 0.13788000E+03 -0.18312E-04
 0.13793001E+03 -0.26383E-04
 0.13798000E+03 -0.24848E-04
 0.13803000E+03 -0.22607E-04
 0.13808000E+03 -0.30740E-04
 0.13813000E+03 -0.44784E-04
 0.13818001E+03 -0.51979E-04
 0.13823000E+03 -0.51162E-04
 0.13828000E+03 -0.47216E-04
 0.13833000E+03 -0.40575E-04
 0.13838000E+03 -0.31787E-04
 0.13843001E+03 -0.23219E-04
 0.13848000E+03 -0.16314E-04
 0.13853000E+03 -0.11358E-04
 0.13858000E+03 -0.11820E-04
 0.13863000E+03 -0.13319E-04
 0.13868001E+03 -0.77397E-05
 0.13873000E+03  0.12661E-05
 0.13878000E+03  0.11770E-04
 0.13883000E+03  0.22551E-04
 0.13888000E+03  0.30932E-04
 0.13893001E+03  0.38496E-04
 0.13898000E+03  0.44277E-04
 0.13903000E+03  0.46735E-04
 0.13908000E+03  0.43913E-04
 0.13913000E+03  0.35451E-04
 0.13918001E+03  0.23321E-04
 0.13923000E+03  0.73353E-05
 0.13928000E+03 -0.87965E-05
 0.13933000E+03 -0.20804E-04
 0.13938000E+03 -0.31453E-04
 0.13943001E+03 -0.38550E-04
 0.13948000E+03 -0.39410E-04
 0.13953000E+03 -0.36526E-04
 0.13958000E+03 -0.23612E-04
 0.13963000E+03 -0.34088E-05
 0.13968001E+03  0.10782E-04
 0.13973000E+03  0.16958E-04
 0.13978000E+03  0.18911E-04
 0.13983000E+03  0.19123E-04
 0.13988000E+03  0.19549E-04
 0.13993001E+03  0.22465E-04
 0.13998000E+03  0.22141E-04
 0.14003000E+03  0.12918E-04
 0.14008000E+03  0.16392E-05
 0.14013000E+03 -0.65569E-05
 0.14018001E+03 -0.91952E-05
 0.14023000E+03 -0.65101E-05
 0.14028000E+03 -0.30702E-05
 0.14033000E+03  0.18490E-05
 0.14038000E+03  0.76602E-05
 0.14043001E+03  0.11945E-04
 0.14048000E+03  0.11887E-04
 0.14053000E+03  0.54016E-05
 0.14058000E+03  0.40597E-06
 0.14063000E+03  0.51497E-05
 0.14068001E+03  0.14051E-04
 0.14073000E+03  0.14918E-04
 0.14078000E+03  0.76916E-05
 0.14083000E+03  0.14871E-05
 0.14088000E+03  0.11428E-05
 0.14093001E+03  0.52893E-05
 0.14098000E+03  0.87736E-05
 0.14103000E+03  0.60175E-05
 0.14108000E+03 -0.41943E-05
 0.14113000E+03 -0.16121E-04
 0.14118001E+03 -0.22338E-04
 0.14123000E+03 -0.21049E-04
 0.14128000E+03 -0.18187E-04
 0.14133000E+03 -0.18969E-04
 0.14138000E+03 -0.20693E-04
 0.14143001E+03 -0.18587E-04
 0.14148000E+03 -0.15588E-04
 0.14153000E+03 -0.11597E-04
 0.14158000E+03 -0.35984E-05
 0.14163000E+03  0.68640E-06
 0.14168001E+03 -0.13145E-05
 0.14173000E+03 -0.33271E-05
 0.14178000E+03 -0.37772E-05
 0.14183000E+03 -0.52620E-05
 0.14188000E+03 -0.76598E-05
 0.14193001E+03 -0.79564E-05
 0.14198000E+03 -0.31357E-05
 0.14203000E+03  0.45641E-05
 0.14208000E+03  0.91979E-05
 0.14213000E+03  0.11364E-04
 0.14218001E+03  0.97323E-05
 0.14223000E+03  0.23992E-05
 0.14228000E+03  0.10642E-05
 0.14233000E+03  0.10630E-04
 0.14238000E+03  0.16758E-04
 0.14243001E+03  0.16672E-04
 0.14248000E+03  0.18832E-04
 0.14253000E+03  0.20042E-04
 0.14258000E+03  0.16844E-04
 0.14263000E+03  0.10873E-04
 0.14268001E+03  0.42781E-05
 0.14273000E+03 -0.33489E-06
 0.14278000E+03 -0.47883E-05
 0.14283000E+03 -0.11889E-04
 0.14288000E+03 -0.21231E-04
 0.14293001E+03 -0.31640E-04
 0.14298000E+03 -0.39485E-04
 0.14303000E+03 -0.39042E-04
 0.14308000E+03 -0.31346E-04
 0.14313000E+03 -0.21116E-04
 0.14318001E+03 -0.95616E-05
 0.14323000E+03  0.46330E-05
 0.14328000E+03  0.22448E-04
 0.14333000E+03  0.37789E-04
 0.14338000E+03  0.43993E-04
 0.14343001E+03  0.41435E-04
 0.14348000E+03  0.32769E-04
 0.14353000E+03  0.24032E-04
 0.14358000E+03  0.19149E-04
 0.14363000E+03  0.15284E-04
 0.14368001E+03  0.12199E-04
 0.14373000E+03  0.80073E-05
 0.14378000E+03  0.15492E-05
 0.14383000E+03 -0.33299E-05
 0.14388000E+03 -0.79543E-05
 0.14393001E+03 -0.15688E-04
 0.14398000E+03 -0.25548E-04
 0.14403000E+03 -0.28964E-04
 0.14408000E+03 -0.24383E-04
 0.14413000E+03 -0.18404E-04
 0.14418001E+03 -0.10051E-04
 0.14423000E+03  0.45349E-06
 0.14428000E+03  0.11151E-04
 0.14433000E+03  0.18832E-04
 0.14438000E+03  0.20268E-04
 0.14443001E+03  0.15297E-04
 0.14448000E+03  0.56065E-05
 0.14453000E+03 -0.12152E-05
 0.14458000E+03 -0.56485E-05
 0.14463000E+03 -0.14966E-04
 0.14468001E+03 -0.25057E-04
 0.14473000E+03 -0.30365E-04
 0.14478000E+03 -0.30407E-04
 0.14483000E+03 -0.22971E-04
 0.14488000E+03 -0.11563E-04
 0.14493001E+03 -0.27759E-05
 0.14498000E+03  0.49385E-05
 0.14503000E+03  0.14554E-04
 0.14508000E+03  0.22066E-04
 0.14513000E+03  0.20477E-04
 0.14518001E+03  0.11901E-04
 0.14523000E+03  0.66930E-05
 0.14528000E+03  0.68159E-05
 0.14533000E+03  0.51363E-05
 0.14538000E+03  0.92498E-06
 0.14543001E+03 -0.16409E-05
 0.14548000E+03 -0.30878E-05
 0.14553000E+03 -0.23483E-05
 0.14558000E+03  0.13566E-05
 0.14563000E+03  0.54124E-05
 0.14568001E+03  0.10575E-04
 0.14573000E+03  0.17201E-04
 0.14578000E+03  0.21298E-04
 0.14583000E+03  0.21095E-04
 0.14588000E+03  0.20464E-04
 0.14593001E+03  0.19605E-04
 0.14598000E+03  0.14791E-04
 0.14603000E+03  0.57020E-05
 0.14608000E+03 -0.39834E-05
 0.14613000E+03 -0.92162E-05
 0.14618001E+03 -0.11426E-04
 0.14623000E+03 -0.16975E-04
 0.14628000E+03 -0.26239E-04
 0.14633000E+03 -0.34011E-04
 0.14638000E+03 -0.35410E-04
 0.14643001E+03 -0.30320E-04
 0.14648000E+03 -0.25721E-04
 0.14653000E+03 -0.23234E-04
 0.14658000E+03 -0.19825E-04
 0.14663000E+03 -0.17481E-04
 0.14668001E+03 -0.13476E-04
 0.14673000E+03 -0.73778E-05
 0.14678000E+03 -0.46305E-05
 0.14683000E+03 -0.38871E-05
 0.14688000E+03 -0.28553E-05
 0.14693001E+03 -0.21825E-06
 0.14698000E+03  0.52546E-05
 0.14703000E+03  0.10540E-04
 0.14708000E+03  0.16660E-04
 0.14713000E+03  0.25927E-04
 0.14718001E+03  0.32707E-04
 0.14723000E+03  0.33882E-04
 0.14728000E+03  0.31753E-04
 0.14733000E+03  0.27539E-04
 0.14738000E+03  0.19278E-04
 0.14743001E+03  0.64460E-05
 0.14748000E+03 -0.47039E-05
 0.14753000E+03 -0.12657E-04
 0.14758000E+03 -0.18874E-04
 0.14763000E+03 -0.20995E-04
 0.14768001E+03 -0.19760E-04
 0.14773000E+03 -0.17154E-04
 0.14778000E+03 -0.14386E-04
 0.14783000E+03 -0.82316E-05
 0.14788000E+03  0.28465E-05
 0.14793001E+03  0.13686E-04
 0.14798000E+03  0.21881E-04
 0.14803000E+03  0.27025E-04
 0.14808000E+03  0.31338E-04
 0.14813000E+03  0.32905E-04
 0.14818001E+03  0.27785E-04
 0.14823000E+03  0.21197E-04
 0.14828000E+03  0.15792E-04
 0.14833000E+03  0.80830E-05
 0.14838000E+03 -0.11444E-05
 0.14843001E+03 -0.49631E-05
 0.14848000E+03 -0.36772E-05
 0.14853000E+03 -0.30355E-05
 0.14858000E+03 -0.27118E-05
 0.14863000E+03 -0.36085E-05
 0.14868001E+03 -0.63560E-05
 0.14873000E+03 -0.95224E-05
 0.14878000E+03 -0.13514E-04
 0.14883000E+03 -0.13878E-04
 0.14888000E+03 -0.91212E-05
 0.14893001E+03 -0.72013E-05
 0.14898000E+03 -0.95567E-05
 0.14903000E+03 -0.13170E-04
 0.14908000E+03 -0.18721E-04
 0.14913000E+03 -0.26207E-04
 0.14918001E+03 -0.31784E-04
 0.14923000E+03 -0.31950E-04
 0.14928000E+03 -0.31626E-04
 0.14933000E+03 -0.33183E-04
 0.14938000E+03 -0.33583E-04
 0.14943001E+03 -0.29325E-04
 0.14948000E+03 -0.19255E-04
 0.14953000E+03 -0.97296E-05
 0.14958000E+03 -0.30856E-05
 0.14963000E+03  0.41441E-05
 0.14968001E+03  0.15403E-04
 0.14973000E+03  0.28379E-04
 0.14978000E+03  0.36750E-04
 0.14983000E+03  0.42066E-04
 0.14988000E+03  0.46564E-04
 0.14993001E+03  0.48680E-04
 0.14998000E+03  0.49205E-04
