-0.20000458E-01 -0.37411E-06
 0.29999543E-01 -0.93480E-06
 0.79999544E-01 -0.19441E-05
 0.12999955E+00 -0.18333E-05
 0.17999955E+00 -0.70339E-07
 0.22999954E+00  0.20244E-05
 0.27999955E+00  0.23270E-05
 0.32999954E+00  0.10419E-05
 0.37999955E+00  0.19859E-06
 0.42999956E+00  0.15251E-06
 0.47999954E+00  0.52535E-06
 0.52999955E+00  0.88654E-06
 0.57999957E+00  0.99314E-06
 0.62999958E+00  0.57506E-06
 0.67999953E+00 -0.46849E-06
 0.72999954E+00 -0.52562E-06
 0.77999955E+00  0.28653E-06
 0.82999957E+00  0.10284E-05
 0.87999958E+00  0.13187E-05
 0.92999953E+00  0.11247E-05
 0.97999954E+00  0.42903E-06
 0.10299996E+01 -0.14079E-05
 0.10799996E+01 -0.20527E-05
 0.11299995E+01 -0.93148E-06
 0.11799996E+01  0.84949E-07
 0.12299995E+01  0.98877E-06
 0.12799996E+01  0.53413E-06
 0.13299996E+01 -0.54633E-06
 0.13799995E+01 -0.85091E-06
 0.14299996E+01 -0.13216E-05
 0.14799995E+01 -0.14595E-05
 0.15299996E+01 -0.10710E-05
 0.15799996E+01 -0.42090E-06
 0.16299995E+01  0.29541E-06
 0.16799996E+01 -0.21064E-06
 0.17299995E+01 -0.18934E-05
 0.17799996E+01 -0.23149E-05
 0.18299996E+01 -0.11423E-05
 0.18799995E+01 -0.79127E-07
 0.19299996E+01  0.48468E-06
 0.19799995E+01  0.39590E-06
 0.20299995E+01 -0.31801E-06
 0.20799997E+01 -0.83046E-06
 0.21299996E+01 -0.70154E-07
 0.21799996E+01  0.84572E-06
 0.22299995E+01  0.92382E-06
 0.22799995E+01 -0.21683E-07
 0.23299997E+01 -0.11279E-05
 0.23799996E+01 -0.86007E-06
 0.24299996E+01  0.34205E-06
 0.24799995E+01  0.19954E-05
 0.25299995E+01  0.14203E-05
 0.25799997E+01 -0.19736E-06
 0.26299996E+01 -0.80295E-07
 0.26799996E+01  0.52312E-06
 0.27299995E+01  0.20024E-05
 0.27799995E+01  0.31288E-05
 0.28299997E+01  0.26645E-05
 0.28799996E+01  0.14430E-05
 0.29299996E+01  0.95231E-06
 0.29799995E+01  0.15060E-05
 0.30299995E+01  0.13267E-05
 0.30799997E+01  0.97357E-06
 0.31299996E+01  0.75898E-06
 0.31799996E+01  0.11902E-06
 0.32299995E+01  0.16031E-06
 0.32799995E+01  0.40749E-07
 0.33299997E+01 -0.90756E-06
 0.33799996E+01 -0.10892E-05
 0.34299996E+01 -0.10014E-05
 0.34799995E+01 -0.15448E-05
 0.35299995E+01 -0.15954E-05
 0.35799997E+01 -0.18318E-05
 0.36299996E+01 -0.27078E-05
 0.36799996E+01 -0.26677E-05
 0.37299995E+01 -0.14613E-05
 0.37799995E+01  0.31492E-06
 0.38299997E+01  0.62186E-06
 0.38799996E+01 -0.67851E-06
 0.39299996E+01 -0.88387E-06
 0.39799995E+01 -0.23051E-06
 0.40299997E+01  0.30870E-06
 0.40799994E+01  0.72901E-06
 0.41299996E+01  0.27498E-06
 0.41799998E+01  0.90480E-07
 0.42299995E+01  0.83483E-06
 0.42799997E+01  0.43780E-06
 0.43299994E+01 -0.68886E-06
 0.43799996E+01 -0.52125E-06
 0.44299998E+01  0.34020E-06
 0.44799995E+01  0.63371E-06
 0.45299997E+01 -0.41885E-07
 0.45799994E+01 -0.72858E-06
 0.46299996E+01 -0.38523E-06
 0.46799998E+01  0.11869E-06
 0.47299995E+01  0.41628E-07
 0.47799997E+01 -0.79777E-06
 0.48299994E+01 -0.91599E-06
 0.48799996E+01 -0.53859E-07
 0.49299998E+01  0.18285E-06
 0.49799995E+01  0.24462E-06
 0.50299997E+01 -0.13309E-07
 0.50799994E+01 -0.10151E-06
 0.51299996E+01  0.67896E-06
 0.51799998E+01  0.20324E-05
 0.52299995E+01  0.26558E-05
 0.52799997E+01  0.18811E-05
 0.53299994E+01  0.93643E-06
 0.53799996E+01  0.45241E-07
 0.54299998E+01 -0.34137E-06
 0.54799995E+01 -0.72497E-06
 0.55299997E+01 -0.10686E-05
 0.55799994E+01 -0.11322E-05
 0.56299996E+01 -0.77827E-06
 0.56799998E+01 -0.14585E-06
 0.57299995E+01 -0.45814E-06
 0.57799997E+01 -0.77552E-06
 0.58299994E+01 -0.20507E-07
 0.58799996E+01  0.11384E-05
 0.59299998E+01  0.96486E-06
 0.59799995E+01  0.13538E-06
 0.60299997E+01 -0.36802E-06
 0.60799994E+01 -0.97560E-07
 0.61299996E+01  0.45253E-06
 0.61799998E+01 -0.65487E-07
 0.62299995E+01  0.36905E-06
 0.62799997E+01  0.14518E-05
 0.63299994E+01  0.88887E-06
 0.63799996E+01 -0.50281E-06
 0.64299998E+01 -0.95229E-06
 0.64799995E+01 -0.49425E-06
 0.65299997E+01  0.53613E-06
 0.65799994E+01  0.13528E-05
 0.66299996E+01  0.43115E-06
 0.66799998E+01 -0.10710E-05
 0.67299995E+01 -0.15225E-05
 0.67799997E+01 -0.82022E-06
 0.68299994E+01  0.10385E-05
 0.68799996E+01  0.25937E-05
 0.69299998E+01  0.19518E-05
 0.69799995E+01  0.30600E-07
 0.70299997E+01 -0.12212E-05
 0.70799994E+01 -0.19203E-05
 0.71299996E+01 -0.21901E-05
 0.71799998E+01 -0.82052E-06
 0.72299995E+01  0.36661E-06
 0.72799997E+01 -0.51778E-06
 0.73299994E+01 -0.15015E-05
 0.73799996E+01 -0.13220E-05
 0.74299998E+01 -0.65340E-06
 0.74799995E+01 -0.67085E-06
 0.75299997E+01 -0.12481E-05
 0.75799994E+01 -0.11868E-05
 0.76299996E+01 -0.61870E-06
 0.76799998E+01  0.50423E-08
 0.77299995E+01  0.38554E-06
 0.77799997E+01  0.39766E-06
 0.78299994E+01  0.87744E-06
 0.78799996E+01  0.15245E-05
 0.79299998E+01  0.17632E-05
 0.79799995E+01  0.18409E-05
 0.80299997E+01  0.99880E-06
 0.80799999E+01  0.94603E-09
 0.81300001E+01 -0.51813E-08
 0.81799994E+01  0.16394E-06
 0.82299995E+01  0.16355E-06
 0.82799997E+01  0.43311E-07
 0.83299999E+01 -0.34508E-06
 0.83800001E+01 -0.25866E-06
 0.84299994E+01  0.75209E-06
 0.84799995E+01  0.10022E-05
 0.85299997E+01  0.60170E-06
 0.85799999E+01  0.97746E-06
 0.86300001E+01  0.17503E-05
 0.86799994E+01  0.16007E-05
 0.87299995E+01 -0.11544E-06
 0.87799997E+01 -0.17091E-05
 0.88299999E+01 -0.18807E-05
 0.88800001E+01 -0.55704E-06
 0.89299994E+01  0.57466E-06
 0.89799995E+01  0.35007E-06
 0.90299997E+01 -0.59277E-06
 0.90799999E+01 -0.17455E-05
 0.91300001E+01 -0.13694E-05
 0.91799994E+01 -0.12904E-06
 0.92299995E+01 -0.23859E-06
 0.92799997E+01 -0.10165E-05
 0.93299999E+01 -0.10359E-05
 0.93800001E+01 -0.83988E-06
 0.94299994E+01  0.48615E-07
 0.94799995E+01  0.12760E-05
 0.95299997E+01  0.24586E-06
 0.95799999E+01 -0.11462E-05
 0.96300001E+01 -0.97415E-06
 0.96799994E+01  0.16894E-06
 0.97299995E+01  0.10125E-05
 0.97799997E+01  0.16077E-05
 0.98299999E+01  0.19612E-05
 0.98800001E+01  0.26970E-06
 0.99299994E+01 -0.74431E-06
 0.99799995E+01 -0.97302E-07
 0.10030000E+02  0.10750E-05
 0.10080000E+02  0.16987E-05
 0.10130000E+02  0.50615E-06
 0.10179999E+02 -0.56247E-06
 0.10230000E+02 -0.15380E-05
 0.10280000E+02 -0.19527E-05
 0.10330000E+02 -0.84902E-06
 0.10380000E+02  0.98477E-06
 0.10429999E+02  0.22066E-05
 0.10480000E+02  0.10479E-05
 0.10530000E+02 -0.15500E-05
 0.10580000E+02 -0.29549E-05
 0.10630000E+02 -0.19241E-05
 0.10679999E+02  0.67570E-06
 0.10730000E+02  0.28330E-05
 0.10780000E+02  0.25087E-05
 0.10830000E+02  0.11383E-05
 0.10880000E+02  0.10458E-06
 0.10929999E+02 -0.10225E-05
 0.10980000E+02 -0.13921E-05
 0.11030000E+02 -0.12371E-05
 0.11080000E+02 -0.17546E-06
 0.11130000E+02  0.60043E-06
 0.11179999E+02 -0.29339E-06
 0.11230000E+02 -0.18286E-05
 0.11280000E+02 -0.27230E-05
 0.11330000E+02 -0.18028E-05
 0.11380000E+02 -0.21143E-06
 0.11429999E+02  0.80506E-06
 0.11480000E+02  0.94976E-06
 0.11530000E+02  0.60066E-06
 0.11580000E+02  0.68136E-06
 0.11630000E+02  0.13558E-05
 0.11679999E+02  0.21929E-05
 0.11730000E+02  0.25038E-05
 0.11780000E+02  0.18677E-05
 0.11830000E+02  0.10781E-05
 0.11880000E+02  0.71472E-06
 0.11929999E+02  0.23845E-06
 0.11980000E+02  0.18696E-07
 0.12030000E+02  0.10032E-06
 0.12080000E+02  0.41750E-07
 0.12130000E+02 -0.86593E-06
 0.12179999E+02 -0.18992E-05
 0.12230000E+02 -0.25142E-05
 0.12280000E+02 -0.31093E-05
 0.12330000E+02 -0.22469E-05
 0.12380000E+02 -0.77805E-06
 0.12429999E+02  0.44696E-06
 0.12480000E+02  0.13167E-05
 0.12530000E+02  0.95982E-06
 0.12580000E+02  0.37433E-06
 0.12630000E+02  0.26419E-06
 0.12679999E+02  0.93303E-06
 0.12730000E+02  0.21227E-05
 0.12780000E+02  0.19720E-05
 0.12830000E+02  0.30557E-06
 0.12880000E+02 -0.10023E-05
 0.12929999E+02 -0.15117E-05
 0.12980000E+02 -0.12549E-05
 0.13030000E+02 -0.14820E-06
 0.13080000E+02  0.37855E-06
 0.13130000E+02 -0.18118E-06
 0.13179999E+02 -0.11348E-05
 0.13230000E+02 -0.16290E-05
 0.13280000E+02 -0.11779E-05
 0.13330000E+02 -0.42679E-06
 0.13380000E+02  0.22238E-07
 0.13429999E+02 -0.11139E-06
 0.13480000E+02 -0.24755E-06
 0.13530000E+02 -0.78943E-06
 0.13580000E+02 -0.14495E-05
 0.13630000E+02 -0.33987E-06
 0.13679999E+02  0.22698E-05
 0.13730000E+02  0.41499E-05
 0.13780000E+02  0.33043E-05
 0.13830000E+02  0.70008E-06
 0.13880000E+02 -0.15611E-05
 0.13929999E+02 -0.14186E-05
 0.13980000E+02  0.12789E-05
 0.14030000E+02  0.31901E-05
 0.14080000E+02  0.23738E-05
 0.14130000E+02 -0.13490E-06
 0.14179999E+02 -0.21788E-05
 0.14230000E+02 -0.25623E-05
 0.14280000E+02 -0.12983E-05
 0.14330000E+02  0.71393E-06
 0.14380000E+02  0.19551E-05
 0.14429999E+02  0.14533E-05
 0.14480000E+02 -0.58236E-06
 0.14530000E+02 -0.22407E-05
 0.14580000E+02 -0.21805E-05
 0.14630000E+02 -0.91700E-06
 0.14679999E+02  0.49848E-06
 0.14730000E+02  0.13276E-05
 0.14780000E+02  0.11786E-05
 0.14830000E+02  0.57351E-07
 0.14880000E+02 -0.17089E-05
 0.14929999E+02 -0.31374E-05
 0.14980000E+02 -0.26864E-05
 0.15030000E+02 -0.87682E-06
 0.15080000E+02  0.13549E-05
 0.15130000E+02  0.22046E-05
 0.15179999E+02  0.81853E-06
 0.15230000E+02 -0.65926E-06
 0.15280000E+02 -0.17263E-05
 0.15330000E+02 -0.90965E-06
 0.15380000E+02  0.11596E-05
 0.15429999E+02  0.20897E-05
 0.15480000E+02  0.20140E-05
 0.15530000E+02  0.73282E-06
 0.15580000E+02 -0.40293E-06
 0.15630000E+02 -0.57031E-06
 0.15679999E+02 -0.24830E-06
 0.15730000E+02  0.44704E-06
 0.15780000E+02  0.17693E-05
 0.15830000E+02  0.34030E-05
 0.15880000E+02  0.26017E-05
 0.15929999E+02 -0.37941E-06
 0.15980000E+02 -0.26532E-05
 0.16030001E+02 -0.27138E-05
 0.16080000E+02 -0.51011E-06
 0.16129999E+02  0.17109E-05
 0.16180000E+02  0.14749E-05
 0.16230000E+02 -0.13873E-05
 0.16280001E+02 -0.36437E-05
 0.16330000E+02 -0.33462E-05
 0.16379999E+02 -0.11609E-05
 0.16430000E+02  0.11551E-05
 0.16480000E+02  0.10622E-05
 0.16530001E+02 -0.64362E-06
 0.16580000E+02 -0.20420E-05
 0.16629999E+02 -0.23845E-05
 0.16680000E+02 -0.87678E-06
 0.16730000E+02  0.11362E-05
 0.16780001E+02  0.24113E-05
 0.16830000E+02  0.32579E-05
 0.16879999E+02  0.24854E-05
 0.16930000E+02  0.91829E-06
 0.16980000E+02 -0.21594E-06
 0.17030001E+02 -0.62063E-06
 0.17080000E+02  0.24297E-06
 0.17129999E+02  0.12510E-05
 0.17180000E+02  0.17790E-05
 0.17230000E+02  0.48484E-06
 0.17280001E+02 -0.17947E-05
 0.17330000E+02 -0.24670E-05
 0.17379999E+02 -0.10391E-05
 0.17430000E+02  0.10921E-05
 0.17480000E+02  0.10826E-05
 0.17530001E+02 -0.69970E-06
 0.17580000E+02 -0.20760E-05
 0.17629999E+02 -0.20321E-05
 0.17680000E+02 -0.78089E-06
 0.17730000E+02  0.81829E-06
 0.17780001E+02  0.23280E-05
 0.17830000E+02  0.21695E-05
 0.17879999E+02  0.67235E-06
 0.17930000E+02  0.58142E-08
 0.17980000E+02  0.50841E-06
 0.18030001E+02  0.13577E-05
 0.18080000E+02  0.16645E-05
 0.18129999E+02  0.10155E-05
 0.18180000E+02 -0.35469E-06
 0.18230000E+02 -0.12241E-05
 0.18280001E+02 -0.16148E-05
 0.18330000E+02 -0.18429E-05
 0.18379999E+02 -0.61791E-06
 0.18430000E+02  0.77154E-06
 0.18480000E+02  0.43530E-06
 0.18530001E+02 -0.10557E-05
 0.18580000E+02 -0.19430E-05
 0.18629999E+02 -0.11931E-05
 0.18680000E+02 -0.11931E-05
 0.18730000E+02 -0.12213E-05
 0.18780001E+02 -0.68810E-07
 0.18830000E+02 -0.99175E-07
 0.18879999E+02 -0.53729E-06
 0.18930000E+02 -0.60247E-06
 0.18980000E+02 -0.14695E-06
 0.19030001E+02  0.53297E-06
 0.19080000E+02  0.10335E-05
 0.19129999E+02  0.14931E-05
 0.19180000E+02  0.11676E-05
 0.19230000E+02  0.96113E-06
 0.19280001E+02  0.10956E-05
 0.19330000E+02  0.12417E-05
 0.19379999E+02  0.10303E-05
 0.19430000E+02 -0.11057E-06
 0.19480000E+02 -0.15582E-05
 0.19530001E+02 -0.43147E-05
 0.19580000E+02 -0.82270E-05
 0.19629999E+02 -0.11025E-04
 0.19680000E+02 -0.11000E-04
 0.19730000E+02 -0.65359E-05
 0.19780001E+02  0.29417E-05
 0.19830000E+02  0.15762E-04
 0.19879999E+02  0.24434E-04
 0.19930000E+02  0.22940E-04
 0.19980000E+02  0.39483E-05
 0.20030001E+02 -0.35386E-04
 0.20080000E+02 -0.50433E-04
 0.20129999E+02 -0.13444E-04
 0.20180000E+02  0.10620E-04
 0.20230000E+02 -0.65434E-05
 0.20280001E+02 -0.17642E-04
 0.20330000E+02 -0.22482E-04
 0.20379999E+02 -0.64325E-05
 0.20430000E+02  0.60515E-04
 0.20480000E+02  0.95066E-04
 0.20530001E+02  0.44721E-04
 0.20580000E+02 -0.21220E-04
 0.20629999E+02 -0.49267E-04
 0.20680000E+02 -0.30395E-04
 0.20730000E+02  0.11078E-04
 0.20780001E+02  0.46474E-05
 0.20830000E+02 -0.43758E-04
 0.20879999E+02 -0.24556E-04
 0.20930000E+02  0.43155E-04
 0.20980000E+02  0.56051E-04
 0.21030001E+02  0.43487E-04
 0.21080000E+02  0.44721E-04
 0.21129999E+02  0.23651E-04
 0.21180000E+02  0.42566E-05
 0.21230000E+02  0.94976E-05
 0.21280001E+02 -0.16185E-04
 0.21330000E+02 -0.46500E-04
 0.21379999E+02 -0.34240E-04
 0.21430000E+02 -0.26173E-04
 0.21480000E+02 -0.15046E-04
 0.21530001E+02 -0.20686E-04
 0.21580000E+02 -0.49527E-04
 0.21629999E+02 -0.32007E-04
 0.21680000E+02 -0.51619E-05
 0.21730000E+02  0.37382E-04
 0.21780001E+02  0.32638E-04
 0.21830000E+02 -0.47376E-04
 0.21879999E+02 -0.17965E-04
 0.21930000E+02  0.64225E-04
 0.21980000E+02  0.58233E-04
 0.22030001E+02  0.36399E-04
 0.22080000E+02  0.14812E-04
 0.22129999E+02 -0.39010E-04
 0.22180000E+02 -0.44003E-04
 0.22230000E+02 -0.30078E-04
 0.22280001E+02 -0.54973E-04
 0.22330000E+02 -0.32807E-04
 0.22379999E+02 -0.45352E-05
 0.22430000E+02 -0.33386E-04
 0.22480000E+02 -0.14956E-04
 0.22530001E+02  0.34838E-04
 0.22580000E+02  0.21069E-04
 0.22629999E+02  0.48828E-04
 0.22680000E+02  0.12557E-03
 0.22730000E+02  0.10740E-03
 0.22780001E+02 -0.63287E-05
 0.22830000E+02 -0.96129E-04
 0.22879999E+02 -0.59663E-04
 0.22930000E+02  0.59268E-05
 0.22980000E+02 -0.41739E-06
 0.23030001E+02 -0.64868E-05
 0.23080000E+02  0.16910E-04
 0.23129999E+02  0.19010E-04
 0.23180000E+02 -0.31210E-04
 0.23230000E+02 -0.40780E-04
 0.23280001E+02  0.19099E-04
 0.23330000E+02  0.59601E-04
 0.23379999E+02  0.35818E-04
 0.23430000E+02 -0.73791E-04
 0.23480000E+02 -0.11204E-03
 0.23530001E+02 -0.30706E-04
 0.23580000E+02 -0.19587E-05
 0.23629999E+02 -0.18737E-04
 0.23680000E+02 -0.24136E-04
 0.23730000E+02  0.21725E-04
 0.23780001E+02  0.87455E-04
 0.23830000E+02  0.78900E-04
 0.23879999E+02  0.67050E-04
 0.23930000E+02  0.79700E-04
 0.23980000E+02  0.51531E-04
 0.24030001E+02 -0.80669E-05
 0.24080000E+02 -0.54565E-04
 0.24129999E+02 -0.10130E-03
 0.24180000E+02 -0.12813E-03
 0.24230000E+02 -0.55836E-04
 0.24280001E+02  0.50473E-04
 0.24330000E+02  0.11598E-03
 0.24379999E+02  0.11545E-03
 0.24430000E+02  0.38981E-04
 0.24480000E+02 -0.26895E-04
 0.24530001E+02 -0.47835E-04
 0.24580000E+02 -0.14198E-04
 0.24629999E+02  0.82040E-05
 0.24680000E+02 -0.99743E-04
 0.24730000E+02 -0.17221E-03
 0.24780001E+02 -0.13202E-03
 0.24830000E+02 -0.10256E-03
 0.24879999E+02 -0.18455E-04
 0.24930000E+02  0.57244E-04
 0.24980000E+02  0.26305E-04
 0.25030001E+02  0.45846E-04
 0.25080000E+02  0.19375E-03
 0.25129999E+02  0.27862E-03
 0.25180000E+02  0.16243E-03
 0.25230000E+02  0.17483E-04
 0.25280001E+02 -0.23874E-04
 0.25330000E+02 -0.36446E-05
 0.25379999E+02 -0.75510E-05
 0.25430000E+02 -0.78291E-04
 0.25480000E+02 -0.12596E-03
 0.25530001E+02 -0.14849E-03
 0.25580000E+02 -0.17308E-03
 0.25629999E+02 -0.10119E-03
 0.25680000E+02  0.78239E-05
 0.25730000E+02  0.29336E-04
 0.25780001E+02  0.63044E-04
 0.25830000E+02  0.10116E-03
 0.25879999E+02  0.38472E-04
 0.25930000E+02 -0.11829E-04
 0.25980000E+02 -0.21146E-04
 0.26030001E+02 -0.26994E-04
 0.26080000E+02  0.19502E-04
 0.26129999E+02  0.42667E-04
 0.26180000E+02  0.87990E-05
 0.26230000E+02 -0.41738E-05
 0.26280001E+02 -0.68568E-05
 0.26330000E+02  0.20631E-05
 0.26379999E+02  0.80756E-04
 0.26430000E+02  0.16504E-03
 0.26480000E+02  0.15351E-03
 0.26530001E+02  0.83836E-04
 0.26580000E+02 -0.23973E-05
 0.26629999E+02 -0.70533E-04
 0.26680000E+02 -0.82623E-04
 0.26730000E+02 -0.93553E-04
 0.26780001E+02 -0.12156E-03
 0.26830000E+02 -0.11610E-03
 0.26879999E+02 -0.89325E-04
 0.26930000E+02 -0.12772E-03
 0.26980000E+02 -0.14278E-03
 0.27030001E+02 -0.17396E-04
 0.27080000E+02  0.10692E-03
 0.27129999E+02  0.18598E-03
 0.27180000E+02  0.24015E-03
 0.27230000E+02  0.22874E-03
 0.27280001E+02  0.20736E-03
 0.27330000E+02  0.16471E-03
 0.27379999E+02  0.55687E-04
 0.27430000E+02 -0.82988E-04
 0.27480000E+02 -0.19139E-03
 0.27530001E+02 -0.23624E-03
 0.27580000E+02 -0.20277E-03
 0.27629999E+02 -0.14353E-03
 0.27680000E+02 -0.11089E-03
 0.27730000E+02 -0.71966E-04
 0.27780001E+02 -0.52330E-04
 0.27830000E+02 -0.38053E-04
 0.27879999E+02  0.18149E-04
 0.27930000E+02  0.64410E-04
 0.27980000E+02  0.45188E-04
 0.28030001E+02 -0.27489E-04
 0.28080000E+02 -0.45257E-04
 0.28129999E+02  0.18025E-04
 0.28180000E+02  0.70824E-04
 0.28230000E+02  0.80413E-04
 0.28280001E+02  0.43471E-04
 0.28330000E+02  0.21943E-04
 0.28379999E+02  0.82322E-04
 0.28430000E+02  0.15773E-03
 0.28480000E+02  0.15558E-03
 0.28530001E+02  0.64226E-04
 0.28580000E+02 -0.11125E-04
 0.28629999E+02 -0.13998E-04
 0.28680000E+02 -0.57909E-04
 0.28730000E+02 -0.14642E-03
 0.28780001E+02 -0.13641E-03
 0.28830000E+02 -0.36466E-04
 0.28879999E+02 -0.66950E-05
 0.28930000E+02 -0.94877E-04
 0.28980000E+02 -0.15287E-03
 0.29030001E+02 -0.60292E-04
 0.29080000E+02  0.81222E-04
 0.29129999E+02  0.11329E-03
 0.29180000E+02  0.73332E-04
 0.29230000E+02  0.83725E-04
 0.29280001E+02  0.12087E-03
 0.29330000E+02  0.11834E-03
 0.29379999E+02  0.91968E-04
 0.29430000E+02  0.28857E-05
 0.29480000E+02 -0.11091E-03
 0.29530001E+02 -0.14368E-03
 0.29580000E+02 -0.12803E-03
 0.29629999E+02 -0.58870E-04
 0.29680000E+02  0.39933E-04
 0.29730000E+02  0.52412E-04
 0.29780001E+02 -0.45602E-04
 0.29830000E+02 -0.13665E-03
 0.29879999E+02 -0.11051E-03
 0.29930000E+02 -0.49393E-04
 0.29980000E+02 -0.14809E-04
 0.30030001E+02  0.26309E-04
 0.30080000E+02  0.26058E-04
 0.30129999E+02  0.43165E-04
 0.30180000E+02  0.13758E-03
 0.30230000E+02  0.16780E-03
 0.30280001E+02  0.11510E-03
 0.30330000E+02  0.14936E-04
 0.30379999E+02 -0.89634E-04
 0.30430000E+02 -0.49408E-04
 0.30480000E+02  0.44949E-04
 0.30530001E+02  0.21441E-04
 0.30580000E+02  0.72157E-05
 0.30629999E+02  0.10858E-03
 0.30680000E+02  0.12438E-03
 0.30730000E+02 -0.30995E-04
 0.30780001E+02 -0.15864E-03
 0.30830000E+02 -0.16081E-03
 0.30879999E+02 -0.11292E-03
 0.30930000E+02 -0.66029E-04
 0.30980000E+02 -0.26085E-04
 0.31030001E+02  0.24179E-05
 0.31080000E+02  0.32452E-05
 0.31129999E+02 -0.19999E-04
 0.31180000E+02  0.29409E-04
 0.31230000E+02  0.12862E-03
 0.31280001E+02  0.14486E-03
 0.31330000E+02  0.82207E-04
 0.31379999E+02  0.37809E-04
 0.31430000E+02  0.33788E-04
 0.31480000E+02 -0.24762E-04
 0.31530001E+02 -0.11605E-03
 0.31580000E+02 -0.15091E-03
 0.31629999E+02 -0.12050E-03
 0.31680000E+02 -0.70324E-04
 0.31730000E+02 -0.56743E-04
 0.31780001E+02 -0.49146E-04
 0.31830000E+02 -0.26618E-04
 0.31879999E+02  0.23550E-04
 0.31930000E+02  0.84922E-04
 0.31980000E+02  0.64838E-04
 0.32029999E+02  0.26980E-04
 0.32080002E+02  0.88643E-04
 0.32130001E+02  0.14890E-03
 0.32180000E+02  0.12645E-03
 0.32230000E+02  0.95158E-04
 0.32279999E+02  0.88644E-04
 0.32330002E+02  0.95489E-04
 0.32380001E+02  0.60744E-04
 0.32430000E+02 -0.66397E-04
 0.32480000E+02 -0.19609E-03
 0.32529999E+02 -0.20002E-03
 0.32580002E+02 -0.12003E-03
 0.32630001E+02 -0.11606E-03
 0.32680000E+02 -0.18840E-03
 0.32730000E+02 -0.22050E-03
 0.32779999E+02 -0.20904E-03
 0.32830002E+02 -0.18040E-03
 0.32880001E+02 -0.12192E-03
 0.32930000E+02 -0.62891E-04
 0.32980000E+02  0.29027E-05
 0.33029999E+02  0.10064E-03
 0.33080002E+02  0.21090E-03
 0.33130001E+02  0.32870E-03
 0.33180000E+02  0.40954E-03
 0.33230000E+02  0.40533E-03
 0.33279999E+02  0.36451E-03
 0.33330002E+02  0.36492E-03
 0.33380001E+02  0.36281E-03
 0.33430000E+02  0.30933E-03
 0.33480000E+02  0.26075E-03
 0.33529999E+02  0.18092E-03
 0.33580002E+02  0.62174E-04
 0.33630001E+02  0.24737E-04
 0.33680000E+02  0.70706E-04
 0.33730000E+02  0.87152E-04
 0.33779999E+02  0.30817E-04
 0.33830002E+02 -0.59490E-04
 0.33880001E+02 -0.10952E-03
 0.33930000E+02 -0.10401E-03
 0.33980000E+02 -0.17322E-03
 0.34029999E+02 -0.30546E-03
 0.34080002E+02 -0.35987E-03
 0.34130001E+02 -0.35866E-03
 0.34180000E+02 -0.35473E-03
 0.34230000E+02 -0.38662E-03
 0.34279999E+02 -0.45208E-03
 0.34330002E+02 -0.50708E-03
 0.34380001E+02 -0.58065E-03
 0.34430000E+02 -0.71291E-03
 0.34480000E+02 -0.87090E-03
 0.34529999E+02 -0.97856E-03
 0.34580002E+02 -0.97609E-03
 0.34630001E+02 -0.81391E-03
 0.34680000E+02 -0.49848E-03
 0.34730000E+02 -0.10563E-03
 0.34779999E+02  0.26998E-03
 0.34830002E+02  0.61562E-03
 0.34880001E+02  0.97141E-03
 0.34930000E+02  0.13176E-02
 0.34980000E+02  0.15560E-02
 0.35029999E+02  0.14802E-02
 0.35080002E+02  0.10484E-02
 0.35130001E+02  0.59419E-03
 0.35180000E+02  0.39098E-03
 0.35230000E+02  0.35999E-03
 0.35279999E+02  0.32497E-03
 0.35330002E+02  0.19545E-03
 0.35380001E+02 -0.26466E-04
 0.35430000E+02 -0.25039E-03
 0.35480000E+02 -0.25670E-03
 0.35529999E+02 -0.34995E-04
 0.35580002E+02  0.81106E-04
 0.35630001E+02 -0.83876E-04
 0.35680000E+02 -0.45357E-03
 0.35730000E+02 -0.75815E-03
 0.35779999E+02 -0.68244E-03
 0.35830002E+02 -0.22618E-03
 0.35880001E+02  0.21580E-03
 0.35930000E+02  0.30916E-03
 0.35980000E+02  0.21034E-03
 0.36029999E+02  0.17665E-03
 0.36080002E+02  0.35723E-03
 0.36130001E+02  0.70312E-03
 0.36180000E+02  0.83134E-03
 0.36230000E+02  0.52263E-03
 0.36279999E+02 -0.13619E-03
 0.36330002E+02 -0.73539E-03
 0.36380001E+02 -0.76048E-03
 0.36430000E+02 -0.37462E-03
 0.36480000E+02 -0.22680E-03
 0.36529999E+02 -0.61167E-03
 0.36580002E+02 -0.11276E-02
 0.36630001E+02 -0.11924E-02
 0.36680000E+02 -0.75708E-03
 0.36730000E+02 -0.20437E-03
 0.36779999E+02  0.91849E-04
 0.36830002E+02  0.69262E-04
 0.36880001E+02 -0.95261E-04
 0.36930000E+02 -0.25485E-03
 0.36980000E+02 -0.20939E-03
 0.37029999E+02  0.13338E-03
 0.37080002E+02  0.53517E-03
 0.37130001E+02  0.70252E-03
 0.37180000E+02  0.53968E-03
 0.37230000E+02  0.32592E-03
 0.37279999E+02  0.36101E-03
 0.37330002E+02  0.52160E-03
 0.37380001E+02  0.54196E-03
 0.37430000E+02  0.30575E-03
 0.37480000E+02 -0.15724E-03
 0.37529999E+02 -0.58270E-03
 0.37580002E+02 -0.57441E-03
 0.37630001E+02 -0.27178E-03
 0.37680000E+02 -0.98776E-04
 0.37730000E+02 -0.80533E-04
 0.37779999E+02 -0.70837E-04
 0.37830002E+02  0.44279E-04
 0.37880001E+02  0.21092E-03
 0.37930000E+02  0.34259E-03
 0.37980000E+02  0.46939E-03
 0.38029999E+02  0.50800E-03
 0.38080002E+02  0.36612E-03
 0.38130001E+02  0.13974E-03
 0.38180000E+02 -0.30309E-04
 0.38230000E+02 -0.57700E-04
 0.38279999E+02  0.92873E-04
 0.38330002E+02  0.29626E-03
 0.38380001E+02  0.32410E-03
 0.38430000E+02  0.82199E-04
 0.38480000E+02 -0.19136E-03
 0.38529999E+02 -0.24389E-03
 0.38580002E+02 -0.17199E-03
 0.38630001E+02 -0.13429E-03
 0.38680000E+02 -0.19525E-03
 0.38730000E+02 -0.28757E-03
 0.38779999E+02 -0.29470E-03
 0.38830002E+02 -0.23908E-03
 0.38880001E+02 -0.13188E-03
 0.38930000E+02  0.34252E-05
 0.38980000E+02  0.98269E-04
 0.39029999E+02  0.81554E-04
 0.39080002E+02 -0.74122E-04
 0.39130001E+02 -0.20105E-03
 0.39180000E+02 -0.15655E-03
 0.39230000E+02 -0.25867E-05
 0.39279999E+02  0.87132E-04
 0.39330002E+02 -0.32686E-04
 0.39380001E+02 -0.25535E-03
 0.39430000E+02 -0.28910E-03
 0.39480000E+02 -0.37158E-04
 0.39529999E+02  0.21293E-03
 0.39580002E+02  0.25246E-03
 0.39630001E+02  0.18711E-03
 0.39680000E+02  0.81292E-04
 0.39730000E+02  0.14964E-04
 0.39779999E+02  0.24084E-04
 0.39830002E+02  0.24423E-04
 0.39880001E+02 -0.59836E-04
 0.39930000E+02 -0.32873E-03
 0.39980000E+02 -0.60330E-03
 0.40029999E+02 -0.58522E-03
 0.40080002E+02 -0.37450E-03
 0.40130001E+02 -0.17916E-03
 0.40180000E+02  0.32268E-04
 0.40230000E+02  0.23812E-03
 0.40279999E+02  0.29181E-03
 0.40330002E+02  0.20902E-03
 0.40380001E+02  0.16451E-03
 0.40430000E+02  0.26437E-03
 0.40480000E+02  0.42784E-03
 0.40529999E+02  0.54608E-03
 0.40580002E+02  0.58127E-03
 0.40630001E+02  0.53681E-03
 0.40680000E+02  0.45757E-03
 0.40730000E+02  0.33142E-03
 0.40779999E+02  0.10544E-03
 0.40830002E+02 -0.13865E-03
 0.40880001E+02 -0.26748E-03
 0.40930000E+02 -0.24597E-03
 0.40980000E+02 -0.17254E-03
 0.41029999E+02 -0.14516E-03
 0.41080002E+02 -0.12048E-03
 0.41130001E+02 -0.89473E-04
 0.41180000E+02 -0.65583E-04
 0.41230000E+02 -0.67104E-04
 0.41279999E+02 -0.12788E-03
 0.41330002E+02 -0.16401E-03
 0.41380001E+02 -0.15681E-03
 0.41430000E+02 -0.22566E-03
 0.41480000E+02 -0.32857E-03
 0.41529999E+02 -0.35126E-03
 0.41580002E+02 -0.29523E-03
 0.41630001E+02 -0.12433E-03
 0.41680000E+02  0.75809E-04
 0.41730000E+02  0.12423E-03
 0.41779999E+02  0.91670E-04
 0.41830002E+02  0.12048E-03
 0.41880001E+02  0.96084E-04
 0.41930000E+02 -0.80105E-04
 0.41980000E+02 -0.29144E-03
 0.42029999E+02 -0.39686E-03
 0.42080002E+02 -0.30611E-03
 0.42130001E+02 -0.14263E-03
 0.42180000E+02 -0.79811E-04
 0.42230000E+02 -0.98514E-04
 0.42279999E+02 -0.11351E-03
 0.42330002E+02 -0.62918E-04
 0.42380001E+02  0.73868E-04
 0.42430000E+02  0.23618E-03
 0.42480000E+02  0.39068E-03
 0.42529999E+02  0.62549E-03
 0.42580002E+02  0.82378E-03
 0.42630001E+02  0.78493E-03
 0.42680000E+02  0.58716E-03
 0.42730000E+02  0.44018E-03
 0.42779999E+02  0.44698E-03
 0.42830002E+02  0.49561E-03
 0.42880001E+02  0.47102E-03
 0.42930000E+02  0.32682E-03
 0.42980000E+02  0.57060E-04
 0.43029999E+02 -0.19726E-03
 0.43080002E+02 -0.32797E-03
 0.43130001E+02 -0.37195E-03
 0.43180000E+02 -0.36859E-03
 0.43230000E+02 -0.32651E-03
 0.43279999E+02 -0.31646E-03
 0.43330002E+02 -0.40753E-03
 0.43380001E+02 -0.55572E-03
 0.43430000E+02 -0.69627E-03
 0.43480000E+02 -0.80230E-03
 0.43529999E+02 -0.81262E-03
 0.43580002E+02 -0.68543E-03
 0.43630001E+02 -0.44020E-03
 0.43680000E+02 -0.67193E-04
 0.43730000E+02  0.27791E-03
 0.43779999E+02  0.32219E-03
 0.43830002E+02  0.16056E-03
 0.43880001E+02  0.12288E-03
 0.43930000E+02  0.30802E-03
 0.43980000E+02  0.54168E-03
 0.44029999E+02  0.61018E-03
 0.44080002E+02  0.43955E-03
 0.44130001E+02  0.14058E-03
 0.44180000E+02 -0.16109E-04
 0.44230000E+02  0.67846E-04
 0.44279999E+02  0.15481E-03
 0.44330002E+02  0.96134E-04
 0.44380001E+02 -0.25215E-04
 0.44430000E+02 -0.14906E-03
 0.44480000E+02 -0.26084E-03
 0.44529999E+02 -0.29340E-03
 0.44580002E+02 -0.24219E-03
 0.44630001E+02 -0.14504E-03
 0.44680000E+02  0.43803E-04
 0.44730000E+02  0.26756E-03
 0.44779999E+02  0.39218E-03
 0.44830002E+02  0.40285E-03
 0.44880001E+02  0.36699E-03
 0.44930000E+02  0.27948E-03
 0.44980000E+02  0.90044E-04
 0.45029999E+02 -0.15077E-03
 0.45080002E+02 -0.37635E-03
 0.45130001E+02 -0.50058E-03
 0.45180000E+02 -0.40260E-03
 0.45230000E+02 -0.19622E-03
 0.45279999E+02 -0.16586E-03
 0.45330002E+02 -0.24084E-03
 0.45380001E+02 -0.96166E-04
 0.45430000E+02  0.29931E-03
 0.45480000E+02  0.62255E-03
 0.45529999E+02  0.58992E-03
 0.45580002E+02  0.32666E-03
 0.45630001E+02  0.13220E-03
 0.45680000E+02  0.13047E-03
 0.45730000E+02  0.21684E-03
 0.45779999E+02  0.18714E-03
 0.45830002E+02  0.48659E-05
 0.45880001E+02 -0.21404E-03
 0.45930000E+02 -0.38708E-03
 0.45980000E+02 -0.43758E-03
 0.46029999E+02 -0.30663E-03
 0.46080002E+02 -0.10549E-03
 0.46130001E+02 -0.46039E-04
 0.46180000E+02 -0.21384E-03
 0.46230000E+02 -0.42541E-03
 0.46279999E+02 -0.44537E-03
 0.46330002E+02 -0.27686E-03
 0.46380001E+02 -0.56036E-04
 0.46430000E+02  0.87023E-04
 0.46480000E+02  0.11894E-03
 0.46529999E+02  0.13253E-03
 0.46580002E+02  0.16621E-03
 0.46630001E+02  0.14715E-03
 0.46680000E+02  0.46025E-04
 0.46730000E+02 -0.40281E-04
 0.46779999E+02 -0.30926E-04
 0.46830002E+02 -0.39979E-05
 0.46880001E+02  0.37464E-04
 0.46930000E+02  0.15203E-03
 0.46980000E+02  0.19604E-03
 0.47029999E+02  0.92173E-04
 0.47080002E+02 -0.54163E-04
 0.47130001E+02 -0.18527E-03
 0.47180000E+02 -0.27740E-03
 0.47230000E+02 -0.25980E-03
 0.47279999E+02 -0.11150E-03
 0.47330002E+02  0.93565E-04
 0.47380001E+02  0.25068E-03
 0.47430000E+02  0.30204E-03
 0.47480000E+02  0.30484E-03
 0.47529999E+02  0.29859E-03
 0.47580002E+02  0.31156E-03
 0.47630001E+02  0.37659E-03
 0.47680000E+02  0.38535E-03
 0.47730000E+02  0.24779E-03
 0.47779999E+02  0.33901E-04
 0.47830002E+02 -0.18413E-03
 0.47880001E+02 -0.38537E-03
 0.47930000E+02 -0.47923E-03
 0.47980000E+02 -0.43516E-03
 0.48029999E+02 -0.30786E-03
 0.48080002E+02 -0.92224E-04
 0.48130001E+02  0.13538E-03
 0.48180000E+02  0.26943E-03
 0.48230000E+02  0.32751E-03
 0.48279999E+02  0.36907E-03
 0.48330002E+02  0.38935E-03
 0.48380001E+02  0.31375E-03
 0.48430000E+02  0.13248E-03
 0.48480000E+02 -0.84940E-04
 0.48529999E+02 -0.23622E-03
 0.48580002E+02 -0.32493E-03
 0.48630001E+02 -0.45573E-03
 0.48680000E+02 -0.54404E-03
 0.48730000E+02 -0.46286E-03
 0.48779999E+02 -0.24897E-03
 0.48830002E+02 -0.82399E-05
 0.48880001E+02  0.13809E-03
 0.48930000E+02  0.11592E-03
 0.48980000E+02 -0.16934E-04
 0.49029999E+02 -0.84100E-04
 0.49080002E+02 -0.25583E-04
 0.49130001E+02  0.20691E-04
 0.49180000E+02 -0.33249E-04
 0.49230000E+02 -0.97343E-04
 0.49279999E+02 -0.85358E-04
 0.49330002E+02 -0.47501E-04
 0.49380001E+02  0.20622E-04
 0.49430000E+02  0.16859E-03
 0.49480000E+02  0.29811E-03
 0.49529999E+02  0.27070E-03
 0.49580002E+02  0.80633E-04
 0.49630001E+02 -0.14722E-03
 0.49680000E+02 -0.29603E-03
 0.49730000E+02 -0.31129E-03
 0.49779999E+02 -0.23425E-03
 0.49830002E+02 -0.15471E-03
 0.49880001E+02 -0.68654E-04
 0.49930000E+02  0.41732E-04
 0.49980000E+02  0.17798E-03
 0.50029999E+02  0.35002E-03
 0.50080002E+02  0.54107E-03
 0.50130001E+02  0.68860E-03
 0.50180000E+02  0.67342E-03
 0.50230000E+02  0.50041E-03
 0.50279999E+02  0.35442E-03
 0.50330002E+02  0.35049E-03
 0.50380001E+02  0.43466E-03
 0.50430000E+02  0.48654E-03
 0.50480000E+02  0.39106E-03
 0.50529999E+02  0.94072E-04
 0.50580002E+02 -0.32446E-03
 0.50630001E+02 -0.66707E-03
 0.50680000E+02 -0.82111E-03
 0.50730000E+02 -0.81734E-03
 0.50779999E+02 -0.72155E-03
 0.50830002E+02 -0.68158E-03
 0.50880001E+02 -0.75182E-03
 0.50930000E+02 -0.75768E-03
 0.50980000E+02 -0.59723E-03
 0.51029999E+02 -0.33630E-03
 0.51080002E+02 -0.10010E-03
 0.51130001E+02  0.46492E-04
 0.51180000E+02  0.16530E-03
 0.51230000E+02  0.27508E-03
 0.51279999E+02  0.33686E-03
 0.51330002E+02  0.37002E-03
 0.51380001E+02  0.39891E-03
 0.51430000E+02  0.38460E-03
 0.51480000E+02  0.33354E-03
 0.51529999E+02  0.28637E-03
 0.51580002E+02  0.19415E-03
 0.51630001E+02  0.86053E-04
 0.51680000E+02  0.76650E-04
 0.51730000E+02  0.14951E-03
 0.51779999E+02  0.20105E-03
 0.51830002E+02  0.17501E-03
 0.51880001E+02  0.94476E-04
 0.51930000E+02  0.41925E-04
 0.51980000E+02  0.19468E-04
 0.52029999E+02 -0.70645E-04
 0.52080002E+02 -0.21321E-03
 0.52130001E+02 -0.30255E-03
 0.52180000E+02 -0.30783E-03
 0.52230000E+02 -0.23695E-03
 0.52279999E+02 -0.68513E-04
 0.52330002E+02  0.16521E-03
 0.52380001E+02  0.32300E-03
 0.52430000E+02  0.33386E-03
 0.52480000E+02  0.28022E-03
 0.52529999E+02  0.19321E-03
 0.52580002E+02  0.24271E-04
 0.52630001E+02 -0.19050E-03
 0.52680000E+02 -0.33846E-03
 0.52730000E+02 -0.36414E-03
 0.52779999E+02 -0.33582E-03
 0.52830002E+02 -0.33704E-03
 0.52880001E+02 -0.38247E-03
 0.52930000E+02 -0.40969E-03
 0.52980000E+02 -0.30685E-03
 0.53029999E+02 -0.90665E-04
 0.53080002E+02  0.12088E-03
 0.53130001E+02  0.30854E-03
 0.53180000E+02  0.48930E-03
 0.53230000E+02  0.61023E-03
 0.53279999E+02  0.62371E-03
 0.53330002E+02  0.55324E-03
 0.53380001E+02  0.42452E-03
 0.53430000E+02  0.23337E-03
 0.53480000E+02  0.16756E-04
 0.53529999E+02 -0.16766E-03
 0.53580002E+02 -0.30308E-03
 0.53630001E+02 -0.39864E-03
 0.53680000E+02 -0.44564E-03
 0.53730000E+02 -0.43226E-03
 0.53779999E+02 -0.37274E-03
 0.53830002E+02 -0.24401E-03
 0.53880001E+02 -0.54213E-04
 0.53930000E+02  0.10778E-03
 0.53980000E+02  0.20187E-03
 0.54029999E+02  0.21114E-03
 0.54080002E+02  0.12057E-03
 0.54130001E+02 -0.23860E-04
 0.54180000E+02 -0.14756E-03
 0.54230000E+02 -0.20884E-03
 0.54279999E+02 -0.21097E-03
 0.54330002E+02 -0.16679E-03
 0.54380001E+02 -0.67263E-04
 0.54430000E+02  0.92489E-04
 0.54480000E+02  0.25422E-03
 0.54529999E+02  0.37149E-03
 0.54580002E+02  0.44565E-03
 0.54630001E+02  0.46296E-03
 0.54680000E+02  0.42236E-03
 0.54730000E+02  0.32926E-03
 0.54779999E+02  0.18985E-03
 0.54830002E+02  0.20395E-04
 0.54880001E+02 -0.16364E-03
 0.54930000E+02 -0.30554E-03
 0.54980000E+02 -0.37073E-03
 0.55029999E+02 -0.37518E-03
 0.55080002E+02 -0.33625E-03
 0.55130001E+02 -0.29118E-03
 0.55180000E+02 -0.24561E-03
 0.55230000E+02 -0.17929E-03
 0.55279999E+02 -0.68066E-04
 0.55330002E+02  0.89897E-04
 0.55380001E+02  0.20946E-03
 0.55430000E+02  0.21915E-03
 0.55480000E+02  0.16055E-03
 0.55529999E+02  0.15001E-03
 0.55580002E+02  0.23977E-03
 0.55630001E+02  0.35319E-03
 0.55680000E+02  0.39625E-03
 0.55730000E+02  0.32732E-03
 0.55779999E+02  0.16272E-03
 0.55830002E+02 -0.37366E-04
 0.55880001E+02 -0.23657E-03
 0.55930000E+02 -0.40656E-03
 0.55980000E+02 -0.50471E-03
 0.56029999E+02 -0.51214E-03
 0.56080002E+02 -0.42595E-03
 0.56130001E+02 -0.27592E-03
 0.56180000E+02 -0.99488E-04
 0.56230000E+02  0.66539E-04
 0.56279999E+02  0.19111E-03
 0.56330002E+02  0.28963E-03
 0.56380001E+02  0.35748E-03
 0.56430000E+02  0.35106E-03
 0.56480000E+02  0.24007E-03
 0.56529999E+02  0.64863E-04
 0.56580002E+02 -0.72413E-04
 0.56630001E+02 -0.13230E-03
 0.56680000E+02 -0.19221E-03
 0.56730000E+02 -0.32453E-03
 0.56779999E+02 -0.47795E-03
 0.56830002E+02 -0.53171E-03
 0.56880001E+02 -0.41814E-03
 0.56930000E+02 -0.20926E-03
 0.56980000E+02 -0.33709E-04
 0.57029999E+02  0.58300E-04
 0.57080002E+02  0.10062E-03
 0.57130001E+02  0.16191E-03
 0.57180000E+02  0.24621E-03
 0.57230000E+02  0.30224E-03
 0.57279999E+02  0.30543E-03
 0.57330002E+02  0.27622E-03
 0.57380001E+02  0.25172E-03
 0.57430000E+02  0.21974E-03
 0.57480000E+02  0.15790E-03
 0.57529999E+02  0.94057E-04
 0.57580002E+02  0.57664E-04
 0.57630001E+02  0.35832E-04
 0.57680000E+02  0.16197E-04
 0.57730000E+02  0.76329E-05
 0.57779999E+02 -0.11565E-04
 0.57830002E+02 -0.31939E-04
 0.57880001E+02 -0.18128E-04
 0.57930000E+02 -0.25121E-04
 0.57980000E+02 -0.91260E-04
 0.58029999E+02 -0.16945E-03
 0.58080002E+02 -0.20948E-03
 0.58130001E+02 -0.18208E-03
 0.58180000E+02 -0.82048E-04
 0.58230000E+02  0.50615E-04
 0.58279999E+02  0.15637E-03
 0.58330002E+02  0.22885E-03
 0.58380001E+02  0.30529E-03
 0.58430000E+02  0.42653E-03
 0.58480000E+02  0.55888E-03
 0.58529999E+02  0.60367E-03
 0.58580002E+02  0.51705E-03
 0.58630001E+02  0.32468E-03
 0.58680000E+02  0.88477E-04
 0.58730000E+02 -0.14817E-03
 0.58779999E+02 -0.35375E-03
 0.58830002E+02 -0.50856E-03
 0.58880001E+02 -0.64170E-03
 0.58930000E+02 -0.77090E-03
 0.58980000E+02 -0.89303E-03
 0.59029999E+02 -0.98191E-03
 0.59080002E+02 -0.97890E-03
 0.59130001E+02 -0.85989E-03
 0.59180000E+02 -0.65009E-03
 0.59230000E+02 -0.37693E-03
 0.59279999E+02 -0.60831E-04
 0.59330002E+02  0.25080E-03
 0.59380001E+02  0.50478E-03
 0.59430000E+02  0.68869E-03
 0.59480000E+02  0.83865E-03
 0.59529999E+02  0.98128E-03
 0.59580002E+02  0.10968E-02
 0.59630001E+02  0.11468E-02
 0.59680000E+02  0.10748E-02
 0.59730000E+02  0.85158E-03
 0.59779999E+02  0.51180E-03
 0.59830002E+02  0.12569E-03
 0.59880001E+02 -0.25360E-03
 0.59930000E+02 -0.59885E-03
 0.59980000E+02 -0.86511E-03
 0.60029999E+02 -0.10118E-02
 0.60080002E+02 -0.10274E-02
 0.60130001E+02 -0.94574E-03
 0.60180000E+02 -0.81660E-03
 0.60230000E+02 -0.64155E-03
 0.60279999E+02 -0.42114E-03
 0.60330002E+02 -0.17810E-03
 0.60380001E+02  0.60393E-04
 0.60430000E+02  0.26892E-03
 0.60480000E+02  0.43858E-03
 0.60529999E+02  0.58931E-03
 0.60580002E+02  0.74733E-03
 0.60630001E+02  0.85526E-03
 0.60680000E+02  0.83239E-03
 0.60730000E+02  0.67750E-03
 0.60779999E+02  0.44799E-03
 0.60830002E+02  0.22458E-03
 0.60880001E+02  0.48289E-04
 0.60930000E+02 -0.70107E-04
 0.60980000E+02 -0.13559E-03
 0.61029999E+02 -0.18214E-03
 0.61080002E+02 -0.23256E-03
 0.61130001E+02 -0.29498E-03
 0.61180000E+02 -0.37549E-03
 0.61230000E+02 -0.45762E-03
 0.61279999E+02 -0.50240E-03
 0.61330002E+02 -0.49422E-03
 0.61380001E+02 -0.43284E-03
 0.61430000E+02 -0.34032E-03
 0.61480000E+02 -0.24280E-03
 0.61529999E+02 -0.10601E-03
 0.61580002E+02  0.79166E-04
 0.61630001E+02  0.26403E-03
 0.61680000E+02  0.41303E-03
 0.61730000E+02  0.50999E-03
 0.61779999E+02  0.53716E-03
 0.61830002E+02  0.47537E-03
 0.61880001E+02  0.33482E-03
 0.61930000E+02  0.16359E-03
 0.61980000E+02  0.16327E-04
 0.62029999E+02 -0.97087E-04
 0.62080002E+02 -0.19806E-03
 0.62130001E+02 -0.27783E-03
 0.62180000E+02 -0.31052E-03
 0.62230000E+02 -0.29371E-03
 0.62279999E+02 -0.24807E-03
 0.62330002E+02 -0.19347E-03
 0.62380001E+02 -0.13622E-03
 0.62430000E+02 -0.86752E-04
 0.62480000E+02 -0.57443E-04
 0.62529999E+02 -0.43715E-04
 0.62580002E+02 -0.30069E-04
 0.62630001E+02 -0.30741E-05
 0.62680000E+02  0.42884E-04
 0.62730000E+02  0.11546E-03
 0.62779999E+02  0.20755E-03
 0.62830002E+02  0.28360E-03
 0.62880001E+02  0.31673E-03
 0.62930000E+02  0.31482E-03
 0.62980000E+02  0.28671E-03
 0.63029999E+02  0.22423E-03
 0.63080002E+02  0.13012E-03
 0.63130001E+02  0.19768E-04
 0.63180000E+02 -0.76029E-04
 0.63230000E+02 -0.14561E-03
 0.63279999E+02 -0.20161E-03
 0.63330002E+02 -0.23246E-03
 0.63380001E+02 -0.23956E-03
 0.63430000E+02 -0.23994E-03
 0.63480000E+02 -0.25273E-03
 0.63529999E+02 -0.30252E-03
 0.63580002E+02 -0.36016E-03
 0.63630001E+02 -0.37873E-03
 0.63680000E+02 -0.34549E-03
 0.63730000E+02 -0.24724E-03
 0.63779999E+02 -0.87103E-04
 0.63830002E+02  0.88867E-04
 0.63880001E+02  0.22805E-03
 0.63930000E+02  0.31923E-03
 0.63980000E+02  0.38728E-03
 0.64029999E+02  0.45462E-03
 0.64080002E+02  0.51837E-03
 0.64129997E+02  0.55751E-03
 0.64180000E+02  0.56109E-03
 0.64230003E+02  0.53659E-03
 0.64279999E+02  0.47743E-03
 0.64330002E+02  0.34730E-03
 0.64379997E+02  0.14338E-03
 0.64430000E+02 -0.86405E-04
 0.64480003E+02 -0.29756E-03
 0.64529999E+02 -0.46869E-03
 0.64580002E+02 -0.60218E-03
 0.64629997E+02 -0.68728E-03
 0.64680000E+02 -0.69418E-03
 0.64730003E+02 -0.63041E-03
 0.64779999E+02 -0.53600E-03
 0.64830002E+02 -0.43488E-03
 0.64879997E+02 -0.32304E-03
 0.64930000E+02 -0.18444E-03
 0.64980003E+02 -0.13630E-04
 0.65029999E+02  0.17598E-03
 0.65080002E+02  0.35690E-03
 0.65129997E+02  0.49125E-03
 0.65180000E+02  0.55696E-03
 0.65230003E+02  0.55636E-03
 0.65279999E+02  0.50093E-03
 0.65330002E+02  0.40839E-03
 0.65379997E+02  0.30955E-03
 0.65430000E+02  0.23602E-03
 0.65480003E+02  0.18836E-03
 0.65529999E+02  0.14258E-03
 0.65580002E+02  0.68819E-04
 0.65629997E+02 -0.36875E-04
 0.65680000E+02 -0.13229E-03
 0.65730003E+02 -0.18738E-03
 0.65779999E+02 -0.22072E-03
 0.65830002E+02 -0.24629E-03
 0.65879997E+02 -0.25065E-03
 0.65930000E+02 -0.22718E-03
 0.65980003E+02 -0.17141E-03
 0.66029999E+02 -0.88237E-04
 0.66080002E+02 -0.10457E-04
 0.66129997E+02  0.38907E-04
 0.66180000E+02  0.51758E-04
 0.66230003E+02  0.27040E-04
 0.66279999E+02 -0.28508E-04
 0.66330002E+02 -0.12287E-03
 0.66379997E+02 -0.24213E-03
 0.66430000E+02 -0.34287E-03
 0.66480003E+02 -0.40873E-03
 0.66529999E+02 -0.44447E-03
 0.66580002E+02 -0.43705E-03
 0.66629997E+02 -0.36333E-03
 0.66680000E+02 -0.22043E-03
 0.66730003E+02 -0.29687E-04
 0.66779999E+02  0.16069E-03
 0.66830002E+02  0.29805E-03
 0.66879997E+02  0.37252E-03
 0.66930000E+02  0.41877E-03
 0.66980003E+02  0.47656E-03
 0.67029999E+02  0.55179E-03
 0.67080002E+02  0.61350E-03
 0.67129997E+02  0.61230E-03
 0.67180000E+02  0.52838E-03
 0.67230003E+02  0.40400E-03
 0.67279999E+02  0.29309E-03
 0.67330002E+02  0.21299E-03
 0.67379997E+02  0.14434E-03
 0.67430000E+02  0.58712E-04
 0.67480003E+02 -0.68231E-04
 0.67529999E+02 -0.25578E-03
 0.67580002E+02 -0.48188E-03
 0.67629997E+02 -0.68461E-03
 0.67680000E+02 -0.82560E-03
 0.67730003E+02 -0.89962E-03
 0.67779999E+02 -0.89200E-03
 0.67830002E+02 -0.79718E-03
 0.67879997E+02 -0.63109E-03
 0.67930000E+02 -0.41147E-03
 0.67980003E+02 -0.15272E-03
 0.68029999E+02  0.13731E-03
 0.68080002E+02  0.42295E-03
 0.68129997E+02  0.64427E-03
 0.68180000E+02  0.76343E-03
 0.68230003E+02  0.79025E-03
 0.68279999E+02  0.76487E-03
 0.68330002E+02  0.70720E-03
 0.68379997E+02  0.60248E-03
 0.68430000E+02  0.43325E-03
 0.68480003E+02  0.22681E-03
 0.68529999E+02  0.36585E-04
 0.68580002E+02 -0.10545E-03
 0.68629997E+02 -0.19801E-03
 0.68680000E+02 -0.26565E-03
 0.68730003E+02 -0.33315E-03
 0.68779999E+02 -0.40136E-03
 0.68830002E+02 -0.44703E-03
 0.68879997E+02 -0.45446E-03
 0.68930000E+02 -0.43794E-03
 0.68980003E+02 -0.41646E-03
 0.69029999E+02 -0.37506E-03
 0.69080002E+02 -0.28174E-03
 0.69129997E+02 -0.14037E-03
 0.69180000E+02  0.19822E-04
 0.69230003E+02  0.17149E-03
 0.69279999E+02  0.28553E-03
 0.69330002E+02  0.34956E-03
 0.69379997E+02  0.37577E-03
 0.69430000E+02  0.37977E-03
 0.69480003E+02  0.37258E-03
 0.69529999E+02  0.34623E-03
 0.69580002E+02  0.28630E-03
 0.69629997E+02  0.19082E-03
 0.69680000E+02  0.65445E-04
 0.69730003E+02 -0.52182E-04
 0.69779999E+02 -0.12369E-03
 0.69830002E+02 -0.15125E-03
 0.69879997E+02 -0.14632E-03
 0.69930000E+02 -0.12016E-03
 0.69980003E+02 -0.85068E-04
 0.70029999E+02 -0.44577E-04
 0.70080002E+02 -0.36253E-05
 0.70129997E+02  0.21077E-04
 0.70180000E+02  0.19327E-04
 0.70230003E+02  0.21846E-06
 0.70279999E+02 -0.35330E-04
 0.70330002E+02 -0.85528E-04
 0.70379997E+02 -0.11843E-03
 0.70430000E+02 -0.11732E-03
 0.70480003E+02 -0.10174E-03
 0.70529999E+02 -0.88013E-04
 0.70580002E+02 -0.84721E-04
 0.70629997E+02 -0.87957E-04
 0.70680000E+02 -0.69630E-04
 0.70730003E+02 -0.11234E-04
 0.70779999E+02  0.67147E-04
 0.70830002E+02  0.13342E-03
 0.70879997E+02  0.17159E-03
 0.70930000E+02  0.17881E-03
 0.70980003E+02  0.15560E-03
 0.71029999E+02  0.10120E-03
 0.71080002E+02  0.13780E-04
 0.71129997E+02 -0.99231E-04
 0.71180000E+02 -0.21904E-03
 0.71230003E+02 -0.32926E-03
 0.71279999E+02 -0.41127E-03
 0.71330002E+02 -0.44455E-03
 0.71379997E+02 -0.40962E-03
 0.71430000E+02 -0.30004E-03
 0.71480003E+02 -0.14433E-03
 0.71529999E+02  0.21897E-04
 0.71580002E+02  0.18386E-03
 0.71629997E+02  0.32507E-03
 0.71680000E+02  0.41871E-03
 0.71730003E+02  0.45396E-03
 0.71779999E+02  0.44224E-03
 0.71830002E+02  0.39968E-03
 0.71879997E+02  0.32917E-03
 0.71930000E+02  0.22577E-03
 0.71980003E+02  0.97798E-04
 0.72029999E+02 -0.37079E-04
 0.72080002E+02 -0.15830E-03
 0.72129997E+02 -0.24096E-03
 0.72180000E+02 -0.26182E-03
 0.72230003E+02 -0.21022E-03
 0.72279999E+02 -0.10186E-03
 0.72330002E+02  0.28303E-04
 0.72379997E+02  0.14775E-03
 0.72430000E+02  0.22154E-03
 0.72480003E+02  0.21321E-03
 0.72529999E+02  0.11462E-03
 0.72580002E+02 -0.36485E-04
 0.72629997E+02 -0.17718E-03
 0.72680000E+02 -0.26222E-03
 0.72730003E+02 -0.28085E-03
 0.72779999E+02 -0.24803E-03
 0.72830002E+02 -0.18955E-03
 0.72879997E+02 -0.12218E-03
 0.72930000E+02 -0.50979E-04
 0.72980003E+02  0.17635E-04
 0.73029999E+02  0.79926E-04
 0.73080002E+02  0.13508E-03
 0.73129997E+02  0.17633E-03
 0.73180000E+02  0.19875E-03
 0.73230003E+02  0.20397E-03
 0.73279999E+02  0.20056E-03
 0.73330002E+02  0.18970E-03
 0.73379997E+02  0.15112E-03
 0.73430000E+02  0.81222E-04
 0.73480003E+02  0.17802E-04
 0.73529999E+02 -0.10523E-04
 0.73580002E+02 -0.12842E-04
 0.73629997E+02 -0.13913E-04
 0.73680000E+02 -0.34960E-04
 0.73730003E+02 -0.74303E-04
 0.73779999E+02 -0.11740E-03
 0.73830002E+02 -0.15611E-03
 0.73879997E+02 -0.18043E-03
 0.73930000E+02 -0.18584E-03
 0.73980003E+02 -0.18188E-03
 0.74029999E+02 -0.17939E-03
 0.74080002E+02 -0.18103E-03
 0.74129997E+02 -0.18292E-03
 0.74180000E+02 -0.17285E-03
 0.74230003E+02 -0.13278E-03
 0.74279999E+02 -0.63797E-04
 0.74330002E+02  0.15290E-04
 0.74379997E+02  0.86156E-04
 0.74430000E+02  0.13071E-03
 0.74480003E+02  0.14871E-03
 0.74529999E+02  0.15450E-03
 0.74580002E+02  0.14657E-03
 0.74629997E+02  0.12013E-03
 0.74680000E+02  0.91634E-04
 0.74730003E+02  0.87142E-04
 0.74779999E+02  0.11211E-03
 0.74830002E+02  0.14690E-03
 0.74879997E+02  0.17137E-03
 0.74930000E+02  0.17077E-03
 0.74980003E+02  0.13490E-03
 0.75029999E+02  0.65431E-04
 0.75080002E+02 -0.24544E-04
 0.75129997E+02 -0.11824E-03
 0.75180000E+02 -0.20109E-03
 0.75230003E+02 -0.24930E-03
 0.75279999E+02 -0.23376E-03
 0.75330002E+02 -0.15791E-03
 0.75379997E+02 -0.62085E-04
 0.75430000E+02  0.21642E-04
 0.75480003E+02  0.77606E-04
 0.75529999E+02  0.97405E-04
 0.75580002E+02  0.88437E-04
 0.75629997E+02  0.64017E-04
 0.75680000E+02  0.40832E-04
 0.75730003E+02  0.34550E-04
 0.75779999E+02  0.48551E-04
 0.75830002E+02  0.79831E-04
 0.75879997E+02  0.11764E-03
 0.75930000E+02  0.13872E-03
 0.75980003E+02  0.12499E-03
 0.76029999E+02  0.76755E-04
 0.76080002E+02  0.92531E-05
 0.76129997E+02 -0.58170E-04
 0.76180000E+02 -0.11510E-03
 0.76230003E+02 -0.15840E-03
 0.76279999E+02 -0.18524E-03
 0.76330002E+02 -0.18914E-03
 0.76379997E+02 -0.16506E-03
 0.76430000E+02 -0.11879E-03
 0.76480003E+02 -0.60630E-04
 0.76529999E+02 -0.59341E-05
 0.76580002E+02  0.24096E-04
 0.76629997E+02  0.26285E-04
 0.76680000E+02  0.16249E-04
 0.76730003E+02  0.48402E-06
 0.76779999E+02 -0.25031E-04
 0.76830002E+02 -0.49299E-04
 0.76879997E+02 -0.54315E-04
 0.76930000E+02 -0.41646E-04
 0.76980003E+02 -0.19398E-04
 0.77029999E+02  0.12950E-04
 0.77080002E+02  0.57437E-04
 0.77129997E+02  0.10603E-03
 0.77180000E+02  0.14112E-03
 0.77230003E+02  0.15255E-03
 0.77279999E+02  0.14583E-03
 0.77330002E+02  0.13175E-03
 0.77379997E+02  0.11268E-03
 0.77430000E+02  0.88347E-04
 0.77480003E+02  0.57187E-04
 0.77529999E+02  0.15025E-04
 0.77580002E+02 -0.29461E-04
 0.77629997E+02 -0.64309E-04
 0.77680000E+02 -0.88478E-04
 0.77730003E+02 -0.10400E-03
 0.77779999E+02 -0.11628E-03
 0.77830002E+02 -0.12765E-03
 0.77879997E+02 -0.12731E-03
 0.77930000E+02 -0.11559E-03
 0.77980003E+02 -0.11143E-03
 0.78029999E+02 -0.11911E-03
 0.78080002E+02 -0.11819E-03
 0.78129997E+02 -0.90673E-04
 0.78180000E+02 -0.38023E-04
 0.78230003E+02  0.34404E-04
 0.78279999E+02  0.11357E-03
 0.78330002E+02  0.17442E-03
 0.78379997E+02  0.20828E-03
 0.78430000E+02  0.21619E-03
 0.78480003E+02  0.20172E-03
 0.78529999E+02  0.18660E-03
 0.78580002E+02  0.17706E-03
 0.78629997E+02  0.14250E-03
 0.78680000E+02  0.65603E-04
 0.78730003E+02 -0.23703E-04
 0.78779999E+02 -0.87907E-04
 0.78830002E+02 -0.11778E-03
 0.78879997E+02 -0.11884E-03
 0.78930000E+02 -0.10636E-03
 0.78980003E+02 -0.98805E-04
 0.79029999E+02 -0.97940E-04
 0.79080002E+02 -0.92814E-04
 0.79129997E+02 -0.76804E-04
 0.79180000E+02 -0.55847E-04
 0.79230003E+02 -0.38231E-04
 0.79279999E+02 -0.20614E-04
 0.79330002E+02  0.38476E-05
 0.79379997E+02  0.33746E-04
 0.79430000E+02  0.63425E-04
 0.79480003E+02  0.76416E-04
 0.79529999E+02  0.57472E-04
 0.79580002E+02  0.21658E-04
 0.79629997E+02 -0.10136E-04
 0.79680000E+02 -0.34784E-04
 0.79730003E+02 -0.51378E-04
 0.79779999E+02 -0.59783E-04
 0.79830002E+02 -0.63594E-04
 0.79879997E+02 -0.67150E-04
 0.79930000E+02 -0.74087E-04
 0.79980003E+02 -0.82458E-04
 0.80029999E+02 -0.84857E-04
 0.80080002E+02 -0.70910E-04
 0.80129997E+02 -0.43204E-04
 0.80180000E+02 -0.15204E-04
 0.80230003E+02  0.17607E-04
 0.80279999E+02  0.62006E-04
 0.80330002E+02  0.10688E-03
 0.80379997E+02  0.14218E-03
 0.80430000E+02  0.16322E-03
 0.80480003E+02  0.16192E-03
 0.80529999E+02  0.13212E-03
 0.80580002E+02  0.80030E-04
 0.80629997E+02  0.19373E-04
 0.80680000E+02 -0.40682E-04
 0.80730003E+02 -0.91959E-04
 0.80779999E+02 -0.12504E-03
 0.80830002E+02 -0.13646E-03
 0.80879997E+02 -0.12731E-03
 0.80930000E+02 -0.94706E-04
 0.80980003E+02 -0.41594E-04
 0.81029999E+02  0.13457E-04
 0.81080002E+02  0.52972E-04
 0.81129997E+02  0.72233E-04
 0.81180000E+02  0.77211E-04
 0.81230003E+02  0.70286E-04
 0.81279999E+02  0.48688E-04
 0.81330002E+02  0.24164E-04
 0.81379997E+02  0.11763E-04
 0.81430000E+02  0.11698E-04
 0.81480003E+02  0.14959E-04
 0.81529999E+02  0.11870E-04
 0.81580002E+02 -0.56341E-06
 0.81629997E+02 -0.16361E-04
 0.81680000E+02 -0.21237E-04
 0.81730003E+02 -0.80409E-05
 0.81779999E+02  0.14013E-04
 0.81830002E+02  0.31302E-04
 0.81879997E+02  0.32654E-04
 0.81930000E+02  0.17449E-04
 0.81980003E+02 -0.61302E-05
 0.82029999E+02 -0.22702E-04
 0.82080002E+02 -0.10658E-04
 0.82129997E+02  0.31457E-04
 0.82180000E+02  0.74640E-04
 0.82230003E+02  0.89076E-04
 0.82279999E+02  0.72640E-04
 0.82330002E+02  0.39071E-04
 0.82379997E+02 -0.58383E-05
 0.82430000E+02 -0.58436E-04
 0.82480003E+02 -0.10819E-03
 0.82529999E+02 -0.14142E-03
 0.82580002E+02 -0.14474E-03
 0.82629997E+02 -0.11196E-03
 0.82680000E+02 -0.57370E-04
 0.82730003E+02 -0.53410E-05
 0.82779999E+02  0.36770E-04
 0.82830002E+02  0.64549E-04
 0.82879997E+02  0.66543E-04
 0.82930000E+02  0.45699E-04
 0.82980003E+02  0.21314E-04
 0.83029999E+02  0.92765E-05
 0.83080002E+02  0.81657E-05
 0.83129997E+02  0.83112E-05
 0.83180000E+02  0.43336E-05
 0.83230003E+02 -0.26531E-05
 0.83279999E+02 -0.13512E-04
 0.83330002E+02 -0.24490E-04
 0.83379997E+02 -0.25238E-04
 0.83430000E+02 -0.16618E-04
 0.83480003E+02 -0.16021E-05
 0.83529999E+02  0.13193E-04
 0.83580002E+02  0.91864E-05
 0.83629997E+02 -0.19914E-04
 0.83680000E+02 -0.56700E-04
 0.83730003E+02 -0.81294E-04
 0.83779999E+02 -0.86836E-04
 0.83830002E+02 -0.73095E-04
 0.83879997E+02 -0.44189E-04
 0.83930000E+02 -0.82973E-05
 0.83980003E+02  0.25469E-04
 0.84029999E+02  0.47491E-04
 0.84080002E+02  0.57703E-04
 0.84129997E+02  0.69132E-04
 0.84180000E+02  0.92041E-04
 0.84230003E+02  0.12218E-03
 0.84279999E+02  0.14560E-03
 0.84330002E+02  0.15212E-03
 0.84379997E+02  0.14158E-03
 0.84430000E+02  0.11550E-03
 0.84480003E+02  0.70674E-04
 0.84529999E+02  0.59853E-05
 0.84580002E+02 -0.70750E-04
 0.84629997E+02 -0.14672E-03
 0.84680000E+02 -0.20789E-03
 0.84730003E+02 -0.23899E-03
 0.84779999E+02 -0.22889E-03
 0.84830002E+02 -0.18217E-03
 0.84879997E+02 -0.11887E-03
 0.84930000E+02 -0.58682E-04
 0.84980003E+02 -0.11799E-04
 0.85029999E+02  0.19064E-04
 0.85080002E+02  0.34938E-04
 0.85129997E+02  0.40621E-04
 0.85180000E+02  0.40059E-04
 0.85230003E+02  0.35445E-04
 0.85279999E+02  0.30875E-04
 0.85330002E+02  0.28318E-04
 0.85379997E+02  0.29178E-04
 0.85430000E+02  0.35862E-04
 0.85480003E+02  0.48630E-04
 0.85529999E+02  0.65294E-04
 0.85580002E+02  0.81333E-04
 0.85629997E+02  0.90698E-04
 0.85680000E+02  0.89342E-04
 0.85730003E+02  0.81547E-04
 0.85779999E+02  0.74493E-04
 0.85830002E+02  0.69407E-04
 0.85879997E+02  0.67138E-04
 0.85930000E+02  0.72371E-04
 0.85980003E+02  0.87461E-04
 0.86029999E+02  0.10413E-03
 0.86080002E+02  0.10971E-03
 0.86129997E+02  0.97586E-04
 0.86180000E+02  0.67410E-04
 0.86230003E+02  0.26079E-04
 0.86279999E+02 -0.16353E-04
 0.86330002E+02 -0.54597E-04
 0.86379997E+02 -0.87280E-04
 0.86430000E+02 -0.11313E-03
 0.86480003E+02 -0.12974E-03
 0.86529999E+02 -0.13666E-03
 0.86580002E+02 -0.13459E-03
 0.86629997E+02 -0.12377E-03
 0.86680000E+02 -0.11790E-03
 0.86730003E+02 -0.13189E-03
 0.86779999E+02 -0.15836E-03
 0.86830002E+02 -0.18421E-03
 0.86879997E+02 -0.19892E-03
 0.86930000E+02 -0.18892E-03
 0.86980003E+02 -0.15074E-03
 0.87029999E+02 -0.90236E-04
 0.87080002E+02 -0.12478E-04
 0.87129997E+02  0.72203E-04
 0.87180000E+02  0.14703E-03
 0.87230003E+02  0.19671E-03
 0.87279999E+02  0.21536E-03
 0.87330002E+02  0.20646E-03
 0.87379997E+02  0.17891E-03
 0.87430000E+02  0.14702E-03
 0.87480003E+02  0.12453E-03
 0.87529999E+02  0.11087E-03
 0.87580002E+02  0.92874E-04
 0.87629997E+02  0.65436E-04
 0.87680000E+02  0.35691E-04
 0.87730003E+02  0.90187E-05
 0.87779999E+02 -0.17158E-04
 0.87830002E+02 -0.49365E-04
 0.87879997E+02 -0.85774E-04
 0.87930000E+02 -0.11034E-03
 0.87980003E+02 -0.11422E-03
 0.88029999E+02 -0.10585E-03
 0.88080002E+02 -0.92567E-04
 0.88129997E+02 -0.76661E-04
 0.88180000E+02 -0.59391E-04
 0.88230003E+02 -0.38346E-04
 0.88279999E+02 -0.94455E-05
 0.88330002E+02  0.24414E-04
 0.88379997E+02  0.52051E-04
 0.88430000E+02  0.64547E-04
 0.88480003E+02  0.54834E-04
 0.88529999E+02  0.23888E-04
 0.88580002E+02 -0.13541E-04
 0.88629997E+02 -0.36817E-04
 0.88680000E+02 -0.30105E-04
 0.88730003E+02  0.23665E-05
 0.88779999E+02  0.42234E-04
 0.88830002E+02  0.72816E-04
 0.88879997E+02  0.89580E-04
 0.88930000E+02  0.98187E-04
 0.88980003E+02  0.10225E-03
 0.89029999E+02  0.10193E-03
 0.89080002E+02  0.95338E-04
 0.89129997E+02  0.78739E-04
 0.89180000E+02  0.48982E-04
 0.89230003E+02  0.72160E-05
 0.89279999E+02 -0.42259E-04
 0.89330002E+02 -0.95726E-04
 0.89379997E+02 -0.14993E-03
 0.89430000E+02 -0.19439E-03
 0.89480003E+02 -0.21685E-03
 0.89529999E+02 -0.21737E-03
 0.89580002E+02 -0.19863E-03
 0.89629997E+02 -0.16057E-03
 0.89680000E+02 -0.10244E-03
 0.89730003E+02 -0.25392E-04
 0.89779999E+02  0.56432E-04
 0.89830002E+02  0.12141E-03
 0.89879997E+02  0.15761E-03
 0.89930000E+02  0.16702E-03
 0.89980003E+02  0.15160E-03
 0.90029999E+02  0.11564E-03
 0.90080002E+02  0.73547E-04
 0.90129997E+02  0.36174E-04
 0.90180000E+02  0.85703E-05
 0.90230003E+02 -0.36942E-05
 0.90279999E+02  0.64028E-05
 0.90330002E+02  0.34791E-04
 0.90379997E+02  0.62475E-04
 0.90430000E+02  0.75535E-04
 0.90480003E+02  0.68226E-04
 0.90529999E+02  0.42011E-04
 0.90580002E+02  0.11862E-04
 0.90629997E+02 -0.10626E-04
 0.90680000E+02 -0.30387E-04
 0.90730003E+02 -0.49938E-04
 0.90779999E+02 -0.66110E-04
 0.90830002E+02 -0.80556E-04
 0.90879997E+02 -0.92039E-04
 0.90930000E+02 -0.94580E-04
 0.90980003E+02 -0.85182E-04
 0.91029999E+02 -0.68782E-04
 0.91080002E+02 -0.49697E-04
 0.91129997E+02 -0.28219E-04
 0.91180000E+02 -0.78581E-05
 0.91230003E+02  0.10566E-04
 0.91279999E+02  0.30732E-04
 0.91330002E+02  0.50016E-04
 0.91379997E+02  0.59755E-04
 0.91430000E+02  0.60767E-04
 0.91480003E+02  0.60828E-04
 0.91529999E+02  0.64440E-04
 0.91580002E+02  0.67645E-04
 0.91629997E+02  0.59365E-04
 0.91680000E+02  0.40230E-04
 0.91730003E+02  0.16287E-04
 0.91779999E+02 -0.10949E-04
 0.91830002E+02 -0.38696E-04
 0.91879997E+02 -0.64594E-04
 0.91930000E+02 -0.85908E-04
 0.91980003E+02 -0.10043E-03
 0.92029999E+02 -0.10276E-03
 0.92080002E+02 -0.88233E-04
 0.92129997E+02 -0.58602E-04
 0.92180000E+02 -0.22912E-04
 0.92230003E+02  0.56613E-05
 0.92279999E+02  0.20922E-04
 0.92330002E+02  0.20335E-04
 0.92379997E+02  0.24096E-05
 0.92430000E+02 -0.29895E-04
 0.92480003E+02 -0.62917E-04
 0.92529999E+02 -0.79117E-04
 0.92580002E+02 -0.73158E-04
 0.92629997E+02 -0.44866E-04
 0.92680000E+02  0.75664E-05
 0.92730003E+02  0.80938E-04
 0.92779999E+02  0.16163E-03
 0.92830002E+02  0.23107E-03
 0.92879997E+02  0.27495E-03
 0.92930000E+02  0.28217E-03
 0.92980003E+02  0.24807E-03
 0.93029999E+02  0.18095E-03
 0.93080002E+02  0.97556E-04
 0.93129997E+02  0.14395E-04
 0.93180000E+02 -0.59590E-04
 0.93230003E+02 -0.12385E-03
 0.93279999E+02 -0.17960E-03
 0.93330002E+02 -0.21847E-03
 0.93379997E+02 -0.22848E-03
 0.93430000E+02 -0.20890E-03
 0.93480003E+02 -0.17123E-03
 0.93529999E+02 -0.13118E-03
 0.93580002E+02 -0.93274E-04
 0.93629997E+02 -0.54334E-04
 0.93680000E+02 -0.13319E-04
 0.93730003E+02  0.27677E-04
 0.93779999E+02  0.61135E-04
 0.93830002E+02  0.77932E-04
 0.93879997E+02  0.75493E-04
 0.93930000E+02  0.61106E-04
 0.93980003E+02  0.45185E-04
 0.94029999E+02  0.31373E-04
 0.94080002E+02  0.14062E-04
 0.94129997E+02 -0.98754E-05
 0.94180000E+02 -0.34028E-04
 0.94230003E+02 -0.44707E-04
 0.94279999E+02 -0.32906E-04
 0.94330002E+02 -0.26027E-05
 0.94379997E+02  0.38589E-04
 0.94430000E+02  0.81372E-04
 0.94480003E+02  0.11793E-03
 0.94529999E+02  0.14315E-03
 0.94580002E+02  0.14877E-03
 0.94629997E+02  0.12876E-03
 0.94680000E+02  0.86278E-04
 0.94730003E+02  0.33358E-04
 0.94779999E+02 -0.15272E-04
 0.94830002E+02 -0.52217E-04
 0.94879997E+02 -0.77546E-04
 0.94930000E+02 -0.94168E-04
 0.94980003E+02 -0.10927E-03
 0.95029999E+02 -0.12489E-03
 0.95080002E+02 -0.13584E-03
 0.95129997E+02 -0.13847E-03
 0.95180000E+02 -0.12673E-03
 0.95230003E+02 -0.96837E-04
 0.95279999E+02 -0.53260E-04
 0.95330002E+02 -0.38121E-05
 0.95379997E+02  0.41832E-04
 0.95430000E+02  0.74779E-04
 0.95480003E+02  0.94472E-04
 0.95529999E+02  0.10364E-03
 0.95580002E+02  0.98864E-04
 0.95629997E+02  0.76788E-04
 0.95680000E+02  0.40633E-04
 0.95730003E+02 -0.30135E-05
 0.95779999E+02 -0.50505E-04
 0.95830002E+02 -0.93678E-04
 0.95879997E+02 -0.12113E-03
 0.95930000E+02 -0.12948E-03
 0.95980003E+02 -0.11602E-03
 0.96029999E+02 -0.81240E-04
 0.96080002E+02 -0.31845E-04
 0.96129997E+02  0.25486E-04
 0.96180000E+02  0.80675E-04
 0.96230003E+02  0.12382E-03
 0.96279999E+02  0.15072E-03
 0.96330002E+02  0.16368E-03
 0.96379997E+02  0.16774E-03
 0.96430000E+02  0.16253E-03
 0.96480003E+02  0.14230E-03
 0.96529999E+02  0.10254E-03
 0.96580002E+02  0.50708E-04
 0.96629997E+02  0.35526E-05
 0.96680000E+02 -0.31992E-04
 0.96730003E+02 -0.60584E-04
 0.96779999E+02 -0.83493E-04
 0.96830002E+02 -0.99380E-04
 0.96879997E+02 -0.10913E-03
 0.96930000E+02 -0.11167E-03
 0.96980003E+02 -0.10404E-03
 0.97029999E+02 -0.84702E-04
 0.97080002E+02 -0.57705E-04
 0.97129997E+02 -0.30722E-04
 0.97180000E+02 -0.85298E-05
 0.97230003E+02  0.80447E-05
 0.97279999E+02  0.18412E-04
 0.97330002E+02  0.20878E-04
 0.97379997E+02  0.16689E-04
 0.97430000E+02  0.79735E-05
 0.97480003E+02 -0.44563E-05
 0.97529999E+02 -0.13540E-04
 0.97580002E+02 -0.13653E-04
 0.97629997E+02 -0.87280E-05
 0.97680000E+02 -0.34567E-05
 0.97730003E+02  0.32054E-06
 0.97779999E+02  0.57316E-06
 0.97830002E+02 -0.55142E-05
 0.97879997E+02 -0.15719E-04
 0.97930000E+02 -0.22373E-04
 0.97980003E+02 -0.20659E-04
 0.98029999E+02 -0.11312E-04
 0.98080002E+02  0.36928E-05
 0.98129997E+02  0.19377E-04
 0.98180000E+02  0.32991E-04
 0.98230003E+02  0.47324E-04
 0.98279999E+02  0.61231E-04
 0.98330002E+02  0.71528E-04
 0.98379997E+02  0.73480E-04
 0.98430000E+02  0.64400E-04
 0.98480003E+02  0.51288E-04
 0.98529999E+02  0.41214E-04
 0.98580002E+02  0.34620E-04
 0.98629997E+02  0.31426E-04
 0.98680000E+02  0.30594E-04
 0.98730003E+02  0.26604E-04
 0.98779999E+02  0.13194E-04
 0.98830002E+02 -0.92123E-05
 0.98879997E+02 -0.36091E-04
 0.98930000E+02 -0.66553E-04
 0.98980003E+02 -0.98180E-04
 0.99029999E+02 -0.12762E-03
 0.99080002E+02 -0.15304E-03
 0.99129997E+02 -0.16886E-03
 0.99180000E+02 -0.16805E-03
 0.99230003E+02 -0.14783E-03
 0.99279999E+02 -0.11380E-03
 0.99330002E+02 -0.72615E-04
 0.99379997E+02 -0.23298E-04
 0.99430000E+02  0.34770E-04
 0.99480003E+02  0.92396E-04
 0.99529999E+02  0.13676E-03
 0.99580002E+02  0.16335E-03
 0.99629997E+02  0.17237E-03
 0.99680000E+02  0.16335E-03
 0.99730003E+02  0.13912E-03
 0.99779999E+02  0.10523E-03
 0.99830002E+02  0.69463E-04
 0.99879997E+02  0.39702E-04
 0.99930000E+02  0.19667E-04
 0.99980003E+02  0.54785E-05
 0.10003000E+03 -0.10417E-04
 0.10008000E+03 -0.27729E-04
 0.10013000E+03 -0.42524E-04
 0.10018000E+03 -0.54452E-04
 0.10023000E+03 -0.65689E-04
 0.10028000E+03 -0.76934E-04
 0.10033000E+03 -0.83132E-04
 0.10038000E+03 -0.79249E-04
 0.10043000E+03 -0.62724E-04
 0.10048000E+03 -0.35506E-04
 0.10053000E+03 -0.63991E-05
 0.10058000E+03  0.20629E-04
 0.10063000E+03  0.46396E-04
 0.10068000E+03  0.68449E-04
 0.10073000E+03  0.85992E-04
 0.10078000E+03  0.97841E-04
 0.10083000E+03  0.10274E-03
 0.10088000E+03  0.99893E-04
 0.10093000E+03  0.85016E-04
 0.10098000E+03  0.58751E-04
 0.10103000E+03  0.28041E-04
 0.10108000E+03 -0.13492E-05
 0.10113000E+03 -0.28052E-04
 0.10118000E+03 -0.50749E-04
 0.10123000E+03 -0.66769E-04
 0.10128000E+03 -0.78037E-04
 0.10133000E+03 -0.88104E-04
 0.10138000E+03 -0.98644E-04
 0.10143000E+03 -0.10682E-03
 0.10148000E+03 -0.10623E-03
 0.10153000E+03 -0.96869E-04
 0.10158000E+03 -0.85244E-04
 0.10163000E+03 -0.77493E-04
 0.10168000E+03 -0.74651E-04
 0.10173000E+03 -0.74782E-04
 0.10178000E+03 -0.75862E-04
 0.10183000E+03 -0.73138E-04
 0.10188000E+03 -0.61168E-04
 0.10193000E+03 -0.36033E-04
 0.10198000E+03 -0.19662E-05
 0.10203000E+03  0.33485E-04
 0.10208000E+03  0.72002E-04
 0.10213000E+03  0.11356E-03
 0.10218000E+03  0.15195E-03
 0.10223000E+03  0.18204E-03
 0.10228000E+03  0.19855E-03
 0.10233000E+03  0.19589E-03
 0.10238000E+03  0.17252E-03
 0.10243000E+03  0.13321E-03
 0.10248000E+03  0.85009E-04
 0.10253000E+03  0.33741E-04
 0.10258000E+03 -0.15531E-04
 0.10263000E+03 -0.56397E-04
 0.10268000E+03 -0.82951E-04
 0.10273000E+03 -0.92723E-04
 0.10278000E+03 -0.87891E-04
 0.10283000E+03 -0.73171E-04
 0.10288000E+03 -0.52011E-04
 0.10293000E+03 -0.29028E-04
 0.10298000E+03 -0.93768E-05
 0.10303000E+03  0.89090E-06
 0.10308000E+03 -0.31736E-05
 0.10313000E+03 -0.18373E-04
 0.10318000E+03 -0.33618E-04
 0.10323000E+03 -0.38581E-04
 0.10328000E+03 -0.31782E-04
 0.10333000E+03 -0.19006E-04
 0.10338000E+03 -0.67193E-05
 0.10343000E+03  0.27410E-05
 0.10348000E+03  0.87018E-05
 0.10353000E+03  0.81578E-05
 0.10358000E+03  0.10534E-05
 0.10363000E+03 -0.83830E-05
 0.10368000E+03 -0.19811E-04
 0.10373000E+03 -0.33548E-04
 0.10378000E+03 -0.45335E-04
 0.10383000E+03 -0.50777E-04
 0.10388000E+03 -0.49403E-04
 0.10393000E+03 -0.44379E-04
 0.10398000E+03 -0.35870E-04
 0.10403000E+03 -0.19458E-04
 0.10408000E+03  0.72358E-05
 0.10413000E+03  0.37917E-04
 0.10418000E+03  0.60741E-04
 0.10423000E+03  0.71700E-04
 0.10428000E+03  0.73163E-04
 0.10433000E+03  0.67700E-04
 0.10438000E+03  0.59414E-04
 0.10443000E+03  0.48691E-04
 0.10448000E+03  0.35508E-04
 0.10453000E+03  0.23694E-04
 0.10458000E+03  0.17510E-04
 0.10463000E+03  0.18755E-04
 0.10468000E+03  0.26109E-04
 0.10473000E+03  0.34782E-04
 0.10478000E+03  0.35841E-04
 0.10483000E+03  0.26040E-04
 0.10488000E+03  0.88219E-05
 0.10493000E+03 -0.97847E-05
 0.10498000E+03 -0.19948E-04
 0.10503000E+03 -0.18441E-04
 0.10508000E+03 -0.11240E-04
 0.10513000E+03 -0.39682E-05
 0.10518000E+03  0.24981E-06
 0.10523000E+03  0.14861E-05
 0.10528000E+03  0.68921E-06
 0.10533000E+03 -0.35807E-05
 0.10538000E+03 -0.13133E-04
 0.10543000E+03 -0.30482E-04
 0.10548000E+03 -0.54955E-04
 0.10553000E+03 -0.81170E-04
 0.10558000E+03 -0.10208E-03
 0.10563000E+03 -0.11019E-03
 0.10568000E+03 -0.10341E-03
 0.10573000E+03 -0.85001E-04
 0.10578000E+03 -0.60199E-04
 0.10583000E+03 -0.33291E-04
 0.10588000E+03 -0.62494E-05
 0.10593000E+03  0.17904E-04
 0.10598000E+03  0.34852E-04
 0.10603000E+03  0.41258E-04
 0.10608000E+03  0.40668E-04
 0.10613000E+03  0.38915E-04
 0.10618000E+03  0.37119E-04
 0.10623000E+03  0.38410E-04
 0.10628000E+03  0.44983E-04
 0.10633000E+03  0.52660E-04
 0.10638000E+03  0.56454E-04
 0.10643000E+03  0.53459E-04
 0.10648000E+03  0.43529E-04
 0.10653000E+03  0.29201E-04
 0.10658000E+03  0.12922E-04
 0.10663000E+03 -0.38187E-05
 0.10668000E+03 -0.20378E-04
 0.10673000E+03 -0.35884E-04
 0.10678000E+03 -0.46877E-04
 0.10683000E+03 -0.49389E-04
 0.10688000E+03 -0.41101E-04
 0.10693000E+03 -0.21596E-04
 0.10698000E+03  0.47314E-05
 0.10703000E+03  0.30238E-04
 0.10708000E+03  0.48798E-04
 0.10713000E+03  0.57115E-04
 0.10718000E+03  0.52261E-04
 0.10723000E+03  0.33706E-04
 0.10728000E+03  0.68245E-05
 0.10733000E+03 -0.20213E-04
 0.10738000E+03 -0.38395E-04
 0.10743000E+03 -0.41492E-04
 0.10748000E+03 -0.31668E-04
 0.10753000E+03 -0.16033E-04
 0.10758000E+03  0.59870E-06
 0.10763000E+03  0.16603E-04
 0.10768000E+03  0.30497E-04
 0.10773000E+03  0.38225E-04
 0.10778000E+03  0.35431E-04
 0.10783000E+03  0.23039E-04
 0.10788000E+03  0.69875E-05
 0.10793000E+03 -0.87541E-05
 0.10798000E+03 -0.23340E-04
 0.10803000E+03 -0.36172E-04
 0.10808000E+03 -0.45126E-04
 0.10813000E+03 -0.47981E-04
 0.10818000E+03 -0.49909E-04
 0.10823000E+03 -0.54011E-04
 0.10828000E+03 -0.54035E-04
 0.10833000E+03 -0.44349E-04
 0.10838000E+03 -0.23343E-04
 0.10843000E+03  0.47645E-05
 0.10848000E+03  0.33233E-04
 0.10853000E+03  0.56587E-04
 0.10858000E+03  0.70471E-04
 0.10863000E+03  0.72346E-04
 0.10868000E+03  0.63566E-04
 0.10873000E+03  0.50326E-04
 0.10878000E+03  0.37786E-04
 0.10883000E+03  0.29804E-04
 0.10888000E+03  0.25587E-04
 0.10893000E+03  0.20094E-04
 0.10898000E+03  0.12023E-04
 0.10903000E+03  0.19885E-06
 0.10908000E+03 -0.12870E-04
 0.10913000E+03 -0.22828E-04
 0.10918000E+03 -0.28867E-04
 0.10923000E+03 -0.30065E-04
 0.10928000E+03 -0.30218E-04
 0.10933000E+03 -0.32833E-04
 0.10938000E+03 -0.35658E-04
 0.10943000E+03 -0.37263E-04
 0.10948000E+03 -0.39762E-04
 0.10953000E+03 -0.45047E-04
 0.10958000E+03 -0.51464E-04
 0.10963000E+03 -0.55677E-04
 0.10968000E+03 -0.53946E-04
 0.10973000E+03 -0.43609E-04
 0.10978000E+03 -0.25825E-04
 0.10983000E+03 -0.44975E-05
 0.10988000E+03  0.18297E-04
 0.10993000E+03  0.40261E-04
 0.10998000E+03  0.59043E-04
 0.11003000E+03  0.73278E-04
 0.11008000E+03  0.81908E-04
 0.11013000E+03  0.87102E-04
 0.11018000E+03  0.85029E-04
 0.11023000E+03  0.69100E-04
 0.11028000E+03  0.41149E-04
 0.11033000E+03  0.72991E-05
 0.11038000E+03 -0.26813E-04
 0.11043000E+03 -0.57307E-04
 0.11048000E+03 -0.80338E-04
 0.11053000E+03 -0.93397E-04
 0.11058000E+03 -0.95600E-04
 0.11063000E+03 -0.86571E-04
 0.11068000E+03 -0.64588E-04
 0.11073000E+03 -0.31392E-04
 0.11078000E+03  0.24556E-05
 0.11083000E+03  0.30263E-04
 0.11088000E+03  0.54150E-04
 0.11093000E+03  0.76263E-04
 0.11098000E+03  0.95268E-04
 0.11103000E+03  0.10619E-03
 0.11108000E+03  0.10375E-03
 0.11113000E+03  0.87024E-04
 0.11118000E+03  0.60762E-04
 0.11123000E+03  0.31829E-04
 0.11128000E+03  0.45864E-05
 0.11133000E+03 -0.16809E-04
 0.11138000E+03 -0.29221E-04
 0.11143000E+03 -0.36131E-04
 0.11148000E+03 -0.42407E-04
 0.11153000E+03 -0.48817E-04
 0.11158000E+03 -0.55483E-04
 0.11163000E+03 -0.60886E-04
 0.11168000E+03 -0.60048E-04
 0.11173000E+03 -0.49440E-04
 0.11178000E+03 -0.29146E-04
 0.11183000E+03 -0.26324E-05
 0.11188000E+03  0.23681E-04
 0.11193000E+03  0.43860E-04
 0.11198000E+03  0.55035E-04
 0.11203000E+03  0.56492E-04
 0.11208000E+03  0.47057E-04
 0.11213000E+03  0.26937E-04
 0.11218000E+03 -0.15773E-06
 0.11223000E+03 -0.27181E-04
 0.11228000E+03 -0.46880E-04
 0.11233000E+03 -0.58554E-04
 0.11238000E+03 -0.65434E-04
 0.11243000E+03 -0.70828E-04
 0.11248000E+03 -0.76136E-04
 0.11253000E+03 -0.79734E-04
 0.11258000E+03 -0.80960E-04
 0.11263000E+03 -0.74989E-04
 0.11268000E+03 -0.57879E-04
 0.11273000E+03 -0.35959E-04
 0.11278000E+03 -0.14901E-04
 0.11283000E+03  0.47641E-05
 0.11288000E+03  0.24805E-04
 0.11293000E+03  0.46189E-04
 0.11298000E+03  0.67376E-04
 0.11303000E+03  0.87277E-04
 0.11308000E+03  0.10352E-03
 0.11313000E+03  0.11565E-03
 0.11318000E+03  0.12443E-03
 0.11323000E+03  0.12846E-03
 0.11328000E+03  0.12836E-03
 0.11333000E+03  0.12204E-03
 0.11338000E+03  0.10320E-03
 0.11343000E+03  0.69727E-04
 0.11348000E+03  0.26054E-04
 0.11353000E+03 -0.20036E-04
 0.11358000E+03 -0.61222E-04
 0.11363000E+03 -0.93398E-04
 0.11368000E+03 -0.11552E-03
 0.11373000E+03 -0.12842E-03
 0.11378000E+03 -0.13332E-03
 0.11383000E+03 -0.12828E-03
 0.11388000E+03 -0.11124E-03
 0.11393000E+03 -0.83897E-04
 0.11398000E+03 -0.51172E-04
 0.11403000E+03 -0.20567E-04
 0.11408000E+03  0.53255E-05
 0.11413000E+03  0.26308E-04
 0.11418000E+03  0.40268E-04
 0.11423000E+03  0.46706E-04
 0.11428000E+03  0.43710E-04
 0.11433000E+03  0.32990E-04
 0.11438000E+03  0.18786E-04
 0.11443000E+03  0.38858E-05
 0.11448000E+03 -0.71052E-05
 0.11453000E+03 -0.12753E-04
 0.11458000E+03 -0.12768E-04
 0.11463000E+03 -0.72755E-05
 0.11468000E+03  0.15160E-05
 0.11473000E+03  0.13969E-04
 0.11478000E+03  0.29507E-04
 0.11483000E+03  0.45832E-04
 0.11488000E+03  0.61026E-04
 0.11493000E+03  0.71902E-04
 0.11498000E+03  0.75972E-04
 0.11503000E+03  0.73256E-04
 0.11508000E+03  0.66011E-04
 0.11513000E+03  0.53942E-04
 0.11518000E+03  0.36992E-04
 0.11523000E+03  0.18201E-04
 0.11528000E+03 -0.18585E-05
 0.11533000E+03 -0.21767E-04
 0.11538000E+03 -0.41089E-04
 0.11543000E+03 -0.60437E-04
 0.11548000E+03 -0.78113E-04
 0.11553000E+03 -0.92827E-04
 0.11558000E+03 -0.10442E-03
 0.11563000E+03 -0.11403E-03
 0.11568000E+03 -0.11792E-03
 0.11573000E+03 -0.11151E-03
 0.11578000E+03 -0.96546E-04
 0.11583000E+03 -0.76128E-04
 0.11588000E+03 -0.51680E-04
 0.11593000E+03 -0.24869E-04
 0.11598000E+03  0.22161E-05
 0.11603000E+03  0.29249E-04
 0.11608000E+03  0.54999E-04
 0.11613000E+03  0.76995E-04
 0.11618000E+03  0.92445E-04
 0.11623000E+03  0.99893E-04
 0.11628000E+03  0.10055E-03
 0.11633000E+03  0.96233E-04
 0.11638000E+03  0.88837E-04
 0.11643000E+03  0.77307E-04
 0.11648000E+03  0.60540E-04
 0.11653000E+03  0.41931E-04
 0.11658000E+03  0.24289E-04
 0.11663000E+03  0.73297E-05
 0.11668000E+03 -0.59658E-05
 0.11673000E+03 -0.10589E-04
 0.11678000E+03 -0.81929E-05
 0.11683000E+03 -0.51726E-05
 0.11688000E+03 -0.55228E-05
 0.11693000E+03 -0.10572E-04
 0.11698000E+03 -0.21978E-04
 0.11703000E+03 -0.39931E-04
 0.11708000E+03 -0.60914E-04
 0.11713000E+03 -0.78818E-04
 0.11718000E+03 -0.86966E-04
 0.11723000E+03 -0.82851E-04
 0.11728000E+03 -0.67657E-04
 0.11733000E+03 -0.42009E-04
 0.11738000E+03 -0.88352E-05
 0.11743000E+03  0.27907E-04
 0.11748000E+03  0.65224E-04
 0.11753000E+03  0.96034E-04
 0.11758000E+03  0.11176E-03
 0.11763000E+03  0.10937E-03
 0.11768000E+03  0.92520E-04
 0.11773000E+03  0.67135E-04
 0.11778000E+03  0.39039E-04
 0.11783000E+03  0.12941E-04
 0.11788000E+03 -0.81821E-05
 0.11793000E+03 -0.23050E-04
 0.11798000E+03 -0.33882E-04
 0.11803000E+03 -0.42888E-04
 0.11808000E+03 -0.48647E-04
 0.11813000E+03 -0.50172E-04
 0.11818000E+03 -0.49930E-04
 0.11823000E+03 -0.51339E-04
 0.11828000E+03 -0.55441E-04
 0.11833000E+03 -0.58672E-04
 0.11838000E+03 -0.55948E-04
 0.11843000E+03 -0.46181E-04
 0.11848000E+03 -0.32484E-04
 0.11853000E+03 -0.17662E-04
 0.11858000E+03 -0.33339E-05
 0.11863000E+03  0.10313E-04
 0.11868000E+03  0.24495E-04
 0.11873000E+03  0.37233E-04
 0.11878000E+03  0.44669E-04
 0.11883000E+03  0.43370E-04
 0.11888000E+03  0.31893E-04
 0.11893000E+03  0.13786E-04
 0.11898000E+03 -0.58745E-05
 0.11903000E+03 -0.25467E-04
 0.11908000E+03 -0.44650E-04
 0.11913000E+03 -0.60306E-04
 0.11918000E+03 -0.66526E-04
 0.11923000E+03 -0.59523E-04
 0.11928000E+03 -0.41516E-04
 0.11933000E+03 -0.15839E-04
 0.11938000E+03  0.15265E-04
 0.11943000E+03  0.47795E-04
 0.11948000E+03  0.76664E-04
 0.11953000E+03  0.96589E-04
 0.11958000E+03  0.10349E-03
 0.11963000E+03  0.96929E-04
 0.11968000E+03  0.80745E-04
 0.11973000E+03  0.58711E-04
 0.11978000E+03  0.29870E-04
 0.11983000E+03 -0.43049E-05
 0.11988000E+03 -0.37547E-04
 0.11993000E+03 -0.64146E-04
 0.11998000E+03 -0.81512E-04
 0.12003000E+03 -0.89527E-04
 0.12008000E+03 -0.85242E-04
 0.12013000E+03 -0.68368E-04
 0.12018000E+03 -0.43006E-04
 0.12023000E+03 -0.13773E-04
 0.12028000E+03  0.14585E-04
 0.12033000E+03  0.39211E-04
 0.12038000E+03  0.57040E-04
 0.12043000E+03  0.67241E-04
 0.12048000E+03  0.70470E-04
 0.12053000E+03  0.64892E-04
 0.12058000E+03  0.50852E-04
 0.12063000E+03  0.31402E-04
 0.12068000E+03  0.84282E-05
 0.12073000E+03 -0.16292E-04
 0.12078000E+03 -0.38881E-04
 0.12083000E+03 -0.55370E-04
 0.12088000E+03 -0.62242E-04
 0.12093000E+03 -0.56319E-04
 0.12098000E+03 -0.39436E-04
 0.12103000E+03 -0.15250E-04
 0.12108000E+03  0.10565E-04
 0.12113000E+03  0.31729E-04
 0.12118000E+03  0.48932E-04
 0.12123000E+03  0.62180E-04
 0.12128000E+03  0.69656E-04
 0.12133000E+03  0.69441E-04
 0.12138000E+03  0.59289E-04
 0.12143000E+03  0.40991E-04
 0.12148000E+03  0.17615E-04
 0.12153000E+03 -0.10362E-04
 0.12158000E+03 -0.44165E-04
 0.12163000E+03 -0.80359E-04
 0.12168000E+03 -0.11049E-03
 0.12173000E+03 -0.12553E-03
 0.12178000E+03 -0.12266E-03
 0.12183000E+03 -0.10784E-03
 0.12188000E+03 -0.85479E-04
 0.12193000E+03 -0.56505E-04
 0.12198000E+03 -0.23467E-04
 0.12203000E+03  0.10088E-04
 0.12208000E+03  0.41220E-04
 0.12213000E+03  0.68899E-04
 0.12218000E+03  0.93014E-04
 0.12223000E+03  0.11165E-03
 0.12228000E+03  0.12061E-03
 0.12233000E+03  0.11667E-03
 0.12238000E+03  0.10105E-03
 0.12243000E+03  0.78776E-04
 0.12248000E+03  0.54112E-04
 0.12253000E+03  0.26221E-04
 0.12258000E+03 -0.58828E-05
 0.12263000E+03 -0.37765E-04
 0.12268000E+03 -0.65421E-04
 0.12273000E+03 -0.87902E-04
 0.12278000E+03 -0.10398E-03
 0.12283000E+03 -0.11059E-03
 0.12288000E+03 -0.10424E-03
 0.12293000E+03 -0.84915E-04
 0.12298000E+03 -0.56943E-04
 0.12303000E+03 -0.26878E-04
 0.12308000E+03  0.10831E-05
 0.12313000E+03  0.23802E-04
 0.12318000E+03  0.38187E-04
 0.12323000E+03  0.44980E-04
 0.12328000E+03  0.46278E-04
 0.12333000E+03  0.44079E-04
 0.12338000E+03  0.38925E-04
 0.12343000E+03  0.31204E-04
 0.12348000E+03  0.22093E-04
 0.12353000E+03  0.11407E-04
 0.12358000E+03  0.21449E-05
 0.12363000E+03 -0.19204E-05
 0.12368000E+03 -0.10125E-05
 0.12373000E+03  0.21410E-05
 0.12378000E+03  0.60636E-05
 0.12383000E+03  0.12480E-04
 0.12388000E+03  0.20315E-04
 0.12393000E+03  0.29111E-04
 0.12398000E+03  0.40419E-04
 0.12403000E+03  0.51132E-04
 0.12408000E+03  0.58572E-04
 0.12413000E+03  0.59408E-04
 0.12418000E+03  0.50751E-04
 0.12423000E+03  0.35476E-04
 0.12428000E+03  0.13693E-04
 0.12433000E+03 -0.11409E-04
 0.12438000E+03 -0.33222E-04
 0.12443000E+03 -0.54992E-04
 0.12448000E+03 -0.75812E-04
 0.12453000E+03 -0.88654E-04
 0.12458000E+03 -0.94578E-04
 0.12463000E+03 -0.92704E-04
 0.12468000E+03 -0.80179E-04
 0.12473000E+03 -0.60295E-04
 0.12478000E+03 -0.34875E-04
 0.12483000E+03 -0.86539E-05
 0.12488000E+03  0.12996E-04
 0.12493000E+03  0.29331E-04
 0.12498000E+03  0.35224E-04
 0.12503000E+03  0.32902E-04
 0.12508000E+03  0.29748E-04
 0.12513000E+03  0.21342E-04
 0.12518000E+03  0.84679E-05
 0.12523000E+03  0.11856E-05
 0.12528000E+03 -0.29075E-05
 0.12533000E+03 -0.71941E-05
 0.12538000E+03 -0.74764E-05
 0.12543000E+03 -0.63766E-05
 0.12548000E+03 -0.37465E-05
 0.12553000E+03  0.33662E-05
 0.12558000E+03  0.12437E-04
 0.12563000E+03  0.21595E-04
 0.12568000E+03  0.31591E-04
 0.12573000E+03  0.42138E-04
 0.12578000E+03  0.47427E-04
 0.12583000E+03  0.44863E-04
 0.12588000E+03  0.38272E-04
 0.12593000E+03  0.30310E-04
 0.12598000E+03  0.19985E-04
 0.12603000E+03  0.55735E-05
 0.12608000E+03 -0.96216E-05
 0.12613000E+03 -0.21001E-04
 0.12618000E+03 -0.29468E-04
 0.12623000E+03 -0.34571E-04
 0.12628000E+03 -0.33607E-04
 0.12633000E+03 -0.29555E-04
 0.12638000E+03 -0.24041E-04
 0.12643000E+03 -0.19362E-04
 0.12648000E+03 -0.21201E-04
 0.12653000E+03 -0.26934E-04
 0.12658000E+03 -0.28019E-04
 0.12663000E+03 -0.23305E-04
 0.12668000E+03 -0.17998E-04
 0.12673000E+03 -0.10341E-04
 0.12678000E+03  0.51430E-05
 0.12683000E+03  0.24262E-04
 0.12688000E+03  0.39832E-04
 0.12693000E+03  0.50932E-04
 0.12698000E+03  0.53145E-04
 0.12703000E+03  0.44763E-04
 0.12708000E+03  0.32483E-04
 0.12713000E+03  0.16548E-04
 0.12718000E+03 -0.22607E-05
 0.12723000E+03 -0.15578E-04
 0.12728000E+03 -0.22827E-04
 0.12733000E+03 -0.29053E-04
 0.12738000E+03 -0.28432E-04
 0.12743000E+03 -0.17285E-04
 0.12748000E+03 -0.46249E-05
 0.12753000E+03  0.30274E-05
 0.12758000E+03  0.41572E-05
 0.12763000E+03  0.91211E-06
 0.12768000E+03 -0.42800E-05
 0.12773000E+03 -0.11468E-04
 0.12778000E+03 -0.15804E-04
 0.12783000E+03 -0.13091E-04
 0.12788000E+03 -0.47803E-05
 0.12793000E+03  0.47972E-05
 0.12798000E+03  0.11496E-04
 0.12803000E+03  0.16810E-04
 0.12808000E+03  0.19869E-04
 0.12813000E+03  0.14123E-04
 0.12818001E+03  0.17961E-05
 0.12823000E+03 -0.83156E-05
 0.12828000E+03 -0.15581E-04
 0.12833000E+03 -0.21304E-04
 0.12838000E+03 -0.23239E-04
 0.12843001E+03 -0.20271E-04
 0.12848000E+03 -0.12137E-04
 0.12853000E+03 -0.61719E-05
 0.12858000E+03 -0.80504E-05
 0.12863000E+03 -0.95698E-05
 0.12868001E+03 -0.56992E-05
 0.12873000E+03  0.30020E-06
 0.12878000E+03  0.63621E-05
 0.12883000E+03  0.96360E-05
 0.12888000E+03  0.98592E-05
 0.12893001E+03  0.13003E-04
 0.12898000E+03  0.20988E-04
 0.12903000E+03  0.26247E-04
 0.12908000E+03  0.24819E-04
 0.12913000E+03  0.22396E-04
 0.12918001E+03  0.21529E-04
 0.12923000E+03  0.23681E-04
 0.12928000E+03  0.29783E-04
 0.12933000E+03  0.34442E-04
 0.12938000E+03  0.37086E-04
 0.12943001E+03  0.41166E-04
 0.12948000E+03  0.44449E-04
 0.12953000E+03  0.38658E-04
 0.12958000E+03  0.21588E-04
 0.12963000E+03  0.74537E-06
 0.12968001E+03 -0.19306E-04
 0.12973000E+03 -0.37198E-04
 0.12978000E+03 -0.51873E-04
 0.12983000E+03 -0.62091E-04
 0.12988000E+03 -0.63818E-04
 0.12993001E+03 -0.55194E-04
 0.12998000E+03 -0.41620E-04
 0.13003000E+03 -0.27506E-04
 0.13008000E+03 -0.12885E-04
 0.13013000E+03 -0.14226E-05
 0.13018001E+03  0.41797E-05
 0.13023000E+03  0.68310E-05
 0.13028000E+03  0.60039E-05
 0.13033000E+03  0.24849E-05
 0.13038000E+03  0.12446E-06
 0.13043001E+03 -0.36461E-05
 0.13048000E+03 -0.11300E-04
 0.13053000E+03 -0.21138E-04
 0.13058000E+03 -0.29785E-04
 0.13063000E+03 -0.34356E-04
 0.13068001E+03 -0.34532E-04
 0.13073000E+03 -0.32262E-04
 0.13078000E+03 -0.25662E-04
 0.13083000E+03 -0.12126E-04
 0.13088000E+03  0.10462E-05
 0.13093001E+03  0.11266E-04
 0.13098000E+03  0.23937E-04
 0.13103000E+03  0.37024E-04
 0.13108000E+03  0.44238E-04
 0.13113000E+03  0.44375E-04
 0.13118001E+03  0.41641E-04
 0.13123000E+03  0.35952E-04
 0.13128000E+03  0.25352E-04
 0.13133000E+03  0.13019E-04
 0.13138000E+03 -0.73220E-06
 0.13143001E+03 -0.14307E-04
 0.13148000E+03 -0.22039E-04
 0.13153000E+03 -0.25260E-04
 0.13158000E+03 -0.28199E-04
 0.13163000E+03 -0.29690E-04
 0.13168001E+03 -0.25809E-04
 0.13173000E+03 -0.17183E-04
 0.13178000E+03 -0.64689E-05
 0.13183000E+03  0.62882E-05
 0.13188000E+03  0.17438E-04
 0.13193001E+03  0.26864E-04
 0.13198000E+03  0.39188E-04
 0.13203000E+03  0.50990E-04
 0.13208000E+03  0.55374E-04
 0.13213000E+03  0.52086E-04
 0.13218001E+03  0.44073E-04
 0.13223000E+03  0.30378E-04
 0.13228000E+03  0.12476E-04
 0.13233000E+03 -0.50295E-05
 0.13238000E+03 -0.18741E-04
 0.13243001E+03 -0.25692E-04
 0.13248000E+03 -0.25711E-04
 0.13253000E+03 -0.18938E-04
 0.13258000E+03 -0.11367E-04
 0.13263000E+03 -0.64742E-05
 0.13268001E+03  0.78717E-06
 0.13273000E+03  0.63678E-05
 0.13278000E+03  0.64037E-05
 0.13283000E+03  0.22172E-05
 0.13288000E+03 -0.70378E-05
 0.13293001E+03 -0.17720E-04
 0.13298000E+03 -0.24236E-04
 0.13303000E+03 -0.26305E-04
 0.13308000E+03 -0.28636E-04
 0.13313000E+03 -0.31508E-04
 0.13318001E+03 -0.31722E-04
 0.13323000E+03 -0.31538E-04
 0.13328000E+03 -0.34125E-04
 0.13333000E+03 -0.37608E-04
 0.13338000E+03 -0.35025E-04
 0.13343001E+03 -0.24684E-04
 0.13348000E+03 -0.14091E-04
 0.13353000E+03 -0.40168E-05
 0.13358000E+03  0.11033E-04
 0.13363000E+03  0.25783E-04
 0.13368001E+03  0.33672E-04
 0.13373000E+03  0.36548E-04
 0.13378000E+03  0.36346E-04
 0.13383000E+03  0.35329E-04
 0.13388000E+03  0.33451E-04
 0.13393001E+03  0.30416E-04
 0.13398000E+03  0.27161E-04
 0.13403000E+03  0.21677E-04
 0.13408000E+03  0.15570E-04
 0.13413000E+03  0.14710E-04
 0.13418001E+03  0.15261E-04
 0.13423000E+03  0.10130E-04
 0.13428000E+03  0.37878E-05
 0.13433000E+03 -0.13495E-05
 0.13438000E+03 -0.86588E-05
 0.13443001E+03 -0.18747E-04
 0.13448000E+03 -0.26830E-04
 0.13453000E+03 -0.28487E-04
 0.13458000E+03 -0.25712E-04
 0.13463000E+03 -0.21123E-04
 0.13468001E+03 -0.14507E-04
 0.13473000E+03 -0.46968E-05
 0.13478000E+03  0.40749E-05
 0.13483000E+03  0.10072E-04
 0.13488000E+03  0.15650E-04
 0.13493001E+03  0.20484E-04
 0.13498000E+03  0.25894E-04
 0.13503000E+03  0.30710E-04
 0.13508000E+03  0.31024E-04
 0.13513000E+03  0.27000E-04
 0.13518001E+03  0.22636E-04
 0.13523000E+03  0.16770E-04
 0.13528000E+03  0.88640E-05
 0.13533000E+03  0.21071E-05
 0.13538000E+03 -0.42652E-05
 0.13543001E+03 -0.10438E-04
 0.13548000E+03 -0.15952E-04
 0.13553000E+03 -0.20548E-04
 0.13558000E+03 -0.24825E-04
 0.13563000E+03 -0.26605E-04
 0.13568001E+03 -0.25198E-04
 0.13573000E+03 -0.27260E-04
 0.13578000E+03 -0.31395E-04
 0.13583000E+03 -0.31594E-04
 0.13588000E+03 -0.29462E-04
 0.13593001E+03 -0.27364E-04
 0.13598000E+03 -0.24211E-04
 0.13603000E+03 -0.18365E-04
 0.13608000E+03 -0.12931E-04
 0.13613000E+03 -0.11789E-04
 0.13618001E+03 -0.12451E-04
 0.13623000E+03 -0.13275E-04
 0.13628000E+03 -0.14842E-04
 0.13633000E+03 -0.14500E-04
 0.13638000E+03 -0.86691E-05
 0.13643001E+03  0.86738E-06
 0.13648000E+03  0.98611E-05
 0.13653000E+03  0.21313E-04
 0.13658000E+03  0.35886E-04
 0.13663000E+03  0.47070E-04
 0.13668001E+03  0.51881E-04
 0.13673000E+03  0.51304E-04
 0.13678000E+03  0.45010E-04
 0.13683000E+03  0.32522E-04
 0.13688000E+03  0.18836E-04
 0.13693001E+03  0.87832E-05
 0.13698000E+03  0.20210E-05
 0.13703000E+03 -0.18297E-05
 0.13708000E+03 -0.19966E-05
 0.13713000E+03  0.92513E-07
 0.13718001E+03  0.22006E-06
 0.13723000E+03 -0.16909E-05
 0.13728000E+03 -0.24199E-05
 0.13733000E+03 -0.23490E-05
 0.13738000E+03 -0.19517E-05
 0.13743001E+03 -0.17128E-05
 0.13748000E+03 -0.29310E-05
 0.13753000E+03 -0.24338E-05
 0.13758000E+03  0.36591E-05
 0.13763000E+03  0.11158E-04
 0.13768001E+03  0.11503E-04
 0.13773000E+03  0.20660E-05
 0.13778000E+03 -0.13227E-04
 0.13783000E+03 -0.25466E-04
 0.13788000E+03 -0.29640E-04
 0.13793001E+03 -0.33177E-04
 0.13798000E+03 -0.38710E-04
 0.13803000E+03 -0.40906E-04
 0.13808000E+03 -0.40119E-04
 0.13813000E+03 -0.36415E-04
 0.13818001E+03 -0.26835E-04
 0.13823000E+03 -0.13903E-04
 0.13828000E+03 -0.35138E-05
 0.13833000E+03  0.38567E-05
 0.13838000E+03  0.10005E-04
 0.13843001E+03  0.19523E-04
 0.13848000E+03  0.31155E-04
 0.13853000E+03  0.32617E-04
 0.13858000E+03  0.21026E-04
 0.13863000E+03  0.64982E-05
 0.13868001E+03  0.87065E-06
 0.13873000E+03  0.34155E-05
 0.13878000E+03  0.68999E-05
 0.13883000E+03  0.85780E-05
 0.13888000E+03  0.98833E-05
 0.13893001E+03  0.17025E-04
 0.13898000E+03  0.26854E-04
 0.13903000E+03  0.35042E-04
 0.13908000E+03  0.43792E-04
 0.13913000E+03  0.48528E-04
 0.13918001E+03  0.44119E-04
 0.13923000E+03  0.31686E-04
 0.13928000E+03  0.15881E-04
 0.13933000E+03  0.45133E-05
 0.13938000E+03 -0.23144E-06
 0.13943001E+03 -0.63964E-05
 0.13948000E+03 -0.14560E-04
 0.13953000E+03 -0.17433E-04
 0.13958000E+03 -0.16077E-04
 0.13963000E+03 -0.14357E-04
 0.13968001E+03 -0.11466E-04
 0.13973000E+03 -0.75768E-05
 0.13978000E+03 -0.62267E-05
 0.13983000E+03 -0.59487E-05
 0.13988000E+03 -0.41957E-05
 0.13993001E+03 -0.62424E-05
 0.13998000E+03 -0.14644E-04
 0.14003000E+03 -0.23151E-04
 0.14008000E+03 -0.24906E-04
 0.14013000E+03 -0.23150E-04
 0.14018001E+03 -0.23182E-04
 0.14023000E+03 -0.20353E-04
 0.14028000E+03 -0.14910E-04
 0.14033000E+03 -0.12466E-04
 0.14038000E+03 -0.11759E-04
 0.14043001E+03 -0.10798E-04
 0.14048000E+03 -0.14979E-04
 0.14053000E+03 -0.24494E-04
 0.14058000E+03 -0.25634E-04
 0.14063000E+03 -0.16940E-04
 0.14068001E+03 -0.96685E-05
 0.14073000E+03 -0.93591E-05
 0.14078000E+03 -0.15760E-04
 0.14083000E+03 -0.22181E-04
 0.14088000E+03 -0.22458E-04
 0.14093001E+03 -0.17138E-04
 0.14098000E+03 -0.14914E-04
 0.14103000E+03 -0.17435E-04
 0.14108000E+03 -0.15217E-04
 0.14113000E+03 -0.39256E-05
 0.14118001E+03  0.13592E-04
 0.14123000E+03  0.26171E-04
 0.14128000E+03  0.31664E-04
 0.14133000E+03  0.40737E-04
 0.14138000E+03  0.49837E-04
 0.14143001E+03  0.48418E-04
 0.14148000E+03  0.42037E-04
 0.14153000E+03  0.40427E-04
 0.14158000E+03  0.42593E-04
 0.14163000E+03  0.44401E-04
 0.14168001E+03  0.42317E-04
 0.14173000E+03  0.35058E-04
 0.14178000E+03  0.26197E-04
 0.14183000E+03  0.20067E-04
 0.14188000E+03  0.17000E-04
 0.14193001E+03  0.13561E-04
 0.14198000E+03  0.77347E-05
 0.14203000E+03  0.10453E-05
 0.14208000E+03 -0.54664E-05
 0.14213000E+03 -0.11253E-04
 0.14218001E+03 -0.16401E-04
 0.14223000E+03 -0.20100E-04
 0.14228000E+03 -0.20652E-04
 0.14233000E+03 -0.21502E-04
 0.14238000E+03 -0.24382E-04
 0.14243001E+03 -0.26422E-04
 0.14248000E+03 -0.24038E-04
 0.14253000E+03 -0.18308E-04
 0.14258000E+03 -0.16398E-04
 0.14263000E+03 -0.20504E-04
 0.14268001E+03 -0.28778E-04
 0.14273000E+03 -0.37911E-04
 0.14278000E+03 -0.43808E-04
 0.14283000E+03 -0.48437E-04
 0.14288000E+03 -0.57932E-04
 0.14293001E+03 -0.68599E-04
 0.14298000E+03 -0.65131E-04
 0.14303000E+03 -0.43424E-04
 0.14308000E+03 -0.15077E-04
 0.14313000E+03  0.12854E-04
 0.14318001E+03  0.42980E-04
 0.14323000E+03  0.72504E-04
 0.14328000E+03  0.92849E-04
 0.14333000E+03  0.10225E-03
 0.14338000E+03  0.10526E-03
 0.14343001E+03  0.10149E-03
 0.14348000E+03  0.87211E-04
 0.14353000E+03  0.67723E-04
 0.14358000E+03  0.45366E-04
 0.14363000E+03  0.18852E-04
 0.14368001E+03 -0.59684E-05
 0.14373000E+03 -0.21634E-04
 0.14378000E+03 -0.30683E-04
 0.14383000E+03 -0.43713E-04
 0.14388000E+03 -0.57312E-04
 0.14393001E+03 -0.61783E-04
 0.14398000E+03 -0.58648E-04
 0.14403000E+03 -0.54831E-04
 0.14408000E+03 -0.50344E-04
 0.14413000E+03 -0.41036E-04
 0.14418001E+03 -0.28642E-04
 0.14423000E+03 -0.17839E-04
 0.14428000E+03 -0.10391E-04
 0.14433000E+03 -0.45048E-05
 0.14438000E+03  0.14074E-06
 0.14443001E+03  0.38979E-05
 0.14448000E+03  0.62659E-05
 0.14453000E+03  0.43289E-05
 0.14458000E+03 -0.15685E-06
 0.14463000E+03 -0.29598E-05
 0.14468001E+03 -0.29345E-05
 0.14473000E+03 -0.14043E-05
 0.14478000E+03 -0.18152E-05
 0.14483000E+03 -0.30018E-05
 0.14488000E+03 -0.87671E-06
 0.14493001E+03  0.26948E-05
 0.14498000E+03  0.42116E-05
 0.14503000E+03  0.50677E-05
 0.14508000E+03  0.11528E-04
 0.14513000E+03  0.21795E-04
 0.14518001E+03  0.28567E-04
 0.14523000E+03  0.35296E-04
 0.14528000E+03  0.44693E-04
 0.14533000E+03  0.49992E-04
 0.14538000E+03  0.45594E-04
 0.14543001E+03  0.35390E-04
 0.14548000E+03  0.26204E-04
 0.14553000E+03  0.16009E-04
 0.14558000E+03  0.60660E-06
 0.14563000E+03 -0.19538E-04
 0.14568001E+03 -0.38796E-04
 0.14573000E+03 -0.49608E-04
 0.14578000E+03 -0.49953E-04
 0.14583000E+03 -0.46594E-04
 0.14588000E+03 -0.46036E-04
 0.14593001E+03 -0.41702E-04
 0.14598000E+03 -0.28914E-04
 0.14603000E+03 -0.13946E-04
 0.14608000E+03 -0.14198E-05
 0.14613000E+03  0.72533E-05
 0.14618001E+03  0.10900E-04
 0.14623000E+03  0.99619E-05
 0.14628000E+03  0.82041E-05
 0.14633000E+03  0.87222E-05
 0.14638000E+03  0.10210E-04
 0.14643001E+03  0.10897E-04
 0.14648000E+03  0.11205E-04
 0.14653000E+03  0.11466E-04
 0.14658000E+03  0.12628E-04
 0.14663000E+03  0.15508E-04
 0.14668001E+03  0.17951E-04
 0.14673000E+03  0.16108E-04
 0.14678000E+03  0.11027E-04
 0.14683000E+03  0.72817E-05
 0.14688000E+03  0.53756E-05
 0.14693001E+03  0.54652E-05
 0.14698000E+03  0.89841E-05
 0.14703000E+03  0.14629E-04
 0.14708000E+03  0.17045E-04
 0.14713000E+03  0.15373E-04
 0.14718001E+03  0.13269E-04
 0.14723000E+03  0.12857E-04
 0.14728000E+03  0.14608E-04
 0.14733000E+03  0.12910E-04
 0.14738000E+03  0.48431E-05
 0.14743001E+03 -0.66232E-05
 0.14748000E+03 -0.18129E-04
 0.14753000E+03 -0.28161E-04
 0.14758000E+03 -0.37013E-04
 0.14763000E+03 -0.43013E-04
 0.14768001E+03 -0.48303E-04
 0.14773000E+03 -0.52661E-04
 0.14778000E+03 -0.50194E-04
 0.14783000E+03 -0.40695E-04
 0.14788000E+03 -0.26664E-04
 0.14793001E+03 -0.11244E-04
 0.14798000E+03  0.14278E-05
 0.14803000E+03  0.99890E-05
 0.14808000E+03  0.16363E-04
 0.14813000E+03  0.22934E-04
 0.14818001E+03  0.29877E-04
 0.14823000E+03  0.33918E-04
 0.14828000E+03  0.35140E-04
 0.14833000E+03  0.39955E-04
 0.14838000E+03  0.44021E-04
 0.14843001E+03  0.38558E-04
 0.14848000E+03  0.27149E-04
 0.14853000E+03  0.16287E-04
 0.14858000E+03  0.67980E-05
 0.14863000E+03 -0.14571E-06
 0.14868001E+03 -0.14445E-05
 0.14873000E+03 -0.43583E-06
 0.14878000E+03 -0.55371E-06
 0.14883000E+03 -0.13527E-05
 0.14888000E+03 -0.36056E-05
 0.14893001E+03 -0.82487E-05
 0.14898000E+03 -0.15950E-04
 0.14903000E+03 -0.24229E-04
 0.14908000E+03 -0.31150E-04
 0.14913000E+03 -0.39173E-04
 0.14918001E+03 -0.47671E-04
 0.14923000E+03 -0.53097E-04
 0.14928000E+03 -0.56382E-04
 0.14933000E+03 -0.55835E-04
 0.14938000E+03 -0.44915E-04
 0.14943001E+03 -0.26004E-04
 0.14948000E+03 -0.70795E-05
 0.14953000E+03  0.95207E-05
 0.14958000E+03  0.24118E-04
 0.14963000E+03  0.36765E-04
 0.14968001E+03  0.47829E-04
 0.14973000E+03  0.55444E-04
 0.14978000E+03  0.58632E-04
 0.14983000E+03  0.58266E-04
 0.14988000E+03  0.53733E-04
 0.14993001E+03  0.45033E-04
 0.14998000E+03  0.33650E-04
