-0.69961548E-02  0.25954E+05
 0.43003846E-01  0.25949E+05
 0.93003847E-01  0.25943E+05
 0.14300385E+00  0.25972E+05
 0.19300385E+00  0.25960E+05
 0.24300385E+00  0.25964E+05
 0.29300386E+00  0.25962E+05
 0.34300384E+00  0.25962E+05
 0.39300385E+00  0.25956E+05
 0.44300386E+00  0.25943E+05
 0.49300385E+00  0.25954E+05
 0.54300386E+00  0.25968E+05
 0.59300387E+00  0.25972E+05
 0.64300388E+00  0.25951E+05
 0.69300383E+00  0.25970E+05
 0.74300385E+00  0.25966E+05
 0.79300386E+00  0.25939E+05
 0.84300387E+00  0.25947E+05
 0.89300388E+00  0.25961E+05
 0.94300383E+00  0.25977E+05
 0.99300385E+00  0.25970E+05
 0.10430039E+01  0.25947E+05
 0.10930039E+01  0.25967E+05
 0.11430038E+01  0.25954E+05
 0.11930039E+01  0.25965E+05
 0.12430038E+01  0.25967E+05
 0.12930039E+01  0.25951E+05
 0.13430039E+01  0.25945E+05
 0.13930038E+01  0.25958E+05
 0.14430039E+01  0.25950E+05
 0.14930038E+01  0.25958E+05
 0.15430039E+01  0.25973E+05
 0.15930039E+01  0.25953E+05
 0.16430038E+01  0.25940E+05
 0.16930039E+01  0.25964E+05
 0.17430038E+01  0.25959E+05
 0.17930039E+01  0.25956E+05
 0.18430039E+01  0.25927E+05
 0.18930038E+01  0.25952E+05
 0.19430039E+01  0.25969E+05
 0.19930038E+01  0.25986E+05
 0.20430038E+01  0.25966E+05
 0.20930040E+01  0.25936E+05
 0.21430039E+01  0.25955E+05
 0.21930039E+01  0.25959E+05
 0.22430038E+01  0.25973E+05
 0.22930038E+01  0.25963E+05
 0.23430040E+01  0.25968E+05
 0.23930039E+01  0.25937E+05
 0.24430039E+01  0.25941E+05
 0.24930038E+01  0.25977E+05
 0.25430038E+01  0.25968E+05
 0.25930040E+01  0.25955E+05
 0.26430039E+01  0.25935E+05
 0.26930039E+01  0.25958E+05
 0.27430038E+01  0.25989E+05
 0.27930038E+01  0.25972E+05
 0.28430040E+01  0.25943E+05
 0.28930039E+01  0.25936E+05
 0.29430039E+01  0.25968E+05
 0.29930038E+01  0.25981E+05
 0.30430038E+01  0.25964E+05
 0.30930040E+01  0.25947E+05
 0.31430039E+01  0.25956E+05
 0.31930039E+01  0.25956E+05
 0.32430038E+01  0.25963E+05
 0.32930038E+01  0.25978E+05
 0.33430040E+01  0.25986E+05
 0.33930039E+01  0.25950E+05
 0.34430039E+01  0.25938E+05
 0.34930038E+01  0.25944E+05
 0.35430038E+01  0.25973E+05
 0.35930040E+01  0.25962E+05
 0.36430039E+01  0.25958E+05
 0.36930039E+01  0.25953E+05
 0.37430038E+01  0.25970E+05
 0.37930038E+01  0.25970E+05
 0.38430040E+01  0.25954E+05
 0.38930039E+01  0.25941E+05
 0.39430039E+01  0.25961E+05
 0.39930038E+01  0.25961E+05
 0.40430040E+01  0.25944E+05
 0.40930037E+01  0.25962E+05
 0.41430039E+01  0.25966E+05
 0.41930041E+01  0.25970E+05
 0.42430038E+01  0.25966E+05
 0.42930040E+01  0.25965E+05
 0.43430037E+01  0.25948E+05
 0.43930039E+01  0.25938E+05
 0.44430041E+01  0.25962E+05
 0.44930038E+01  0.25961E+05
 0.45430040E+01  0.25980E+05
 0.45930037E+01  0.25972E+05
 0.46430039E+01  0.25932E+05
 0.46930041E+01  0.25952E+05
 0.47430038E+01  0.25960E+05
 0.47930040E+01  0.25965E+05
 0.48430037E+01  0.25961E+05
 0.48930039E+01  0.25965E+05
 0.49430041E+01  0.25947E+05
 0.49930038E+01  0.25958E+05
 0.50430040E+01  0.25942E+05
 0.50930037E+01  0.25954E+05
 0.51430039E+01  0.25969E+05
 0.51930041E+01  0.25979E+05
 0.52430038E+01  0.25967E+05
 0.52930040E+01  0.25965E+05
 0.53430037E+01  0.25976E+05
 0.53930039E+01  0.25948E+05
 0.54430041E+01  0.25947E+05
 0.54930038E+01  0.25954E+05
 0.55430040E+01  0.25976E+05
 0.55930037E+01  0.25964E+05
 0.56430039E+01  0.25967E+05
 0.56930041E+01  0.25974E+05
 0.57430038E+01  0.25955E+05
 0.57930040E+01  0.25969E+05
 0.58430037E+01  0.25932E+05
 0.58930039E+01  0.25965E+05
 0.59430041E+01  0.25982E+05
 0.59930038E+01  0.25962E+05
 0.60430040E+01  0.25955E+05
 0.60930037E+01  0.25963E+05
 0.61430039E+01  0.25966E+05
 0.61930041E+01  0.25965E+05
 0.62430038E+01  0.25961E+05
 0.62930040E+01  0.25979E+05
 0.63430037E+01  0.25974E+05
 0.63930039E+01  0.25937E+05
 0.64430041E+01  0.25960E+05
 0.64930038E+01  0.25957E+05
 0.65430040E+01  0.25964E+05
 0.65930037E+01  0.25947E+05
 0.66430039E+01  0.25937E+05
 0.66930041E+01  0.25972E+05
 0.67430038E+01  0.25983E+05
 0.67930040E+01  0.25957E+05
 0.68430037E+01  0.25935E+05
 0.68930039E+01  0.25967E+05
 0.69430041E+01  0.25957E+05
 0.69930038E+01  0.25941E+05
 0.70430040E+01  0.25951E+05
 0.70930037E+01  0.25988E+05
 0.71430039E+01  0.25964E+05
 0.71930041E+01  0.25971E+05
 0.72430038E+01  0.25957E+05
 0.72930040E+01  0.25944E+05
 0.73430037E+01  0.25952E+05
 0.73930039E+01  0.25960E+05
 0.74430041E+01  0.25950E+05
 0.74930038E+01  0.25961E+05
 0.75430040E+01  0.25968E+05
 0.75930037E+01  0.25971E+05
 0.76430039E+01  0.25941E+05
 0.76930041E+01  0.25962E+05
 0.77430038E+01  0.25966E+05
 0.77930040E+01  0.25953E+05
 0.78430037E+01  0.25961E+05
 0.78930039E+01  0.25977E+05
 0.79430041E+01  0.25970E+05
 0.79930038E+01  0.25949E+05
 0.80430040E+01  0.25954E+05
 0.80930042E+01  0.25958E+05
 0.81430044E+01  0.25978E+05
 0.81930037E+01  0.25962E+05
 0.82430038E+01  0.25947E+05
 0.82930040E+01  0.25961E+05
 0.83430042E+01  0.25965E+05
 0.83930044E+01  0.25954E+05
 0.84430037E+01  0.25936E+05
 0.84930038E+01  0.25964E+05
 0.85430040E+01  0.25979E+05
 0.85930042E+01  0.25970E+05
 0.86430044E+01  0.25952E+05
 0.86930037E+01  0.25962E+05
 0.87430038E+01  0.25947E+05
 0.87930040E+01  0.25963E+05
 0.88430042E+01  0.25971E+05
 0.88930044E+01  0.25985E+05
 0.89430037E+01  0.25949E+05
 0.89930038E+01  0.25944E+05
 0.90430040E+01  0.25950E+05
 0.90930042E+01  0.25939E+05
 0.91430044E+01  0.25963E+05
 0.91930037E+01  0.25974E+05
 0.92430038E+01  0.25977E+05
 0.92930040E+01  0.25940E+05
 0.93430042E+01  0.25967E+05
 0.93930044E+01  0.25967E+05
 0.94430037E+01  0.25960E+05
 0.94930038E+01  0.25981E+05
 0.95430040E+01  0.25980E+05
 0.95930042E+01  0.25933E+05
 0.96430044E+01  0.25938E+05
 0.96930037E+01  0.25975E+05
 0.97430038E+01  0.25956E+05
 0.97930040E+01  0.25967E+05
 0.98430042E+01  0.25959E+05
 0.98930044E+01  0.25941E+05
 0.99430037E+01  0.25973E+05
 0.99930038E+01  0.25980E+05
 0.10043004E+02  0.25954E+05
 0.10093004E+02  0.25956E+05
 0.10143004E+02  0.25967E+05
 0.10193004E+02  0.25959E+05
 0.10243004E+02  0.25959E+05
 0.10293004E+02  0.25956E+05
 0.10343004E+02  0.25979E+05
 0.10393004E+02  0.25958E+05
 0.10443004E+02  0.25961E+05
 0.10493004E+02  0.25943E+05
 0.10543004E+02  0.25968E+05
 0.10593004E+02  0.25981E+05
 0.10643004E+02  0.25960E+05
 0.10693004E+02  0.25969E+05
 0.10743004E+02  0.25963E+05
 0.10793004E+02  0.25943E+05
 0.10843004E+02  0.25962E+05
 0.10893004E+02  0.25955E+05
 0.10943004E+02  0.25954E+05
 0.10993004E+02  0.25962E+05
 0.11043004E+02  0.25961E+05
 0.11093004E+02  0.25968E+05
 0.11143004E+02  0.25981E+05
 0.11193004E+02  0.25958E+05
 0.11243004E+02  0.25924E+05
 0.11293004E+02  0.25952E+05
 0.11343004E+02  0.25985E+05
 0.11393004E+02  0.25972E+05
 0.11443004E+02  0.25964E+05
 0.11493004E+02  0.25957E+05
 0.11543004E+02  0.25956E+05
 0.11593004E+02  0.25954E+05
 0.11643004E+02  0.25958E+05
 0.11693004E+02  0.25972E+05
 0.11743004E+02  0.25956E+05
 0.11793004E+02  0.25964E+05
 0.11843004E+02  0.25954E+05
 0.11893004E+02  0.25956E+05
 0.11943004E+02  0.25963E+05
 0.11993004E+02  0.25962E+05
 0.12043004E+02  0.25950E+05
 0.12093004E+02  0.25978E+05
 0.12143004E+02  0.25963E+05
 0.12193004E+02  0.25945E+05
 0.12243004E+02  0.25937E+05
 0.12293004E+02  0.25946E+05
 0.12343004E+02  0.25972E+05
 0.12393004E+02  0.25982E+05
 0.12443004E+02  0.25944E+05
 0.12493004E+02  0.25953E+05
 0.12543004E+02  0.25952E+05
 0.12593004E+02  0.25958E+05
 0.12643004E+02  0.25965E+05
 0.12693004E+02  0.25969E+05
 0.12743004E+02  0.25969E+05
 0.12793004E+02  0.25956E+05
 0.12843004E+02  0.25943E+05
 0.12893004E+02  0.25951E+05
 0.12943004E+02  0.25959E+05
 0.12993004E+02  0.25959E+05
 0.13043004E+02  0.25945E+05
 0.13093004E+02  0.25993E+05
 0.13143004E+02  0.25966E+05
 0.13193004E+02  0.25972E+05
 0.13243004E+02  0.25943E+05
 0.13293004E+02  0.25945E+05
 0.13343004E+02  0.25947E+05
 0.13393004E+02  0.25957E+05
 0.13443004E+02  0.25957E+05
 0.13493004E+02  0.25994E+05
 0.13543004E+02  0.25964E+05
 0.13593004E+02  0.25943E+05
 0.13643004E+02  0.25947E+05
 0.13693004E+02  0.25950E+05
 0.13743004E+02  0.25969E+05
 0.13793004E+02  0.25963E+05
 0.13843004E+02  0.25958E+05
 0.13893004E+02  0.25959E+05
 0.13943004E+02  0.25954E+05
 0.13993004E+02  0.25956E+05
 0.14043004E+02  0.25955E+05
 0.14093004E+02  0.25945E+05
 0.14143004E+02  0.25967E+05
 0.14193004E+02  0.25963E+05
 0.14243004E+02  0.25958E+05
 0.14293004E+02  0.25966E+05
 0.14343004E+02  0.25947E+05
 0.14393004E+02  0.25950E+05
 0.14443004E+02  0.25956E+05
 0.14493004E+02  0.25973E+05
 0.14543004E+02  0.25972E+05
 0.14593004E+02  0.25968E+05
 0.14643004E+02  0.25963E+05
 0.14693004E+02  0.25950E+05
 0.14743004E+02  0.25938E+05
 0.14793004E+02  0.25955E+05
 0.14843004E+02  0.25971E+05
 0.14893004E+02  0.25980E+05
 0.14943004E+02  0.25963E+05
 0.14993004E+02  0.25947E+05
 0.15043004E+02  0.25943E+05
 0.15093004E+02  0.25942E+05
 0.15143004E+02  0.25954E+05
 0.15193004E+02  0.25968E+05
 0.15243004E+02  0.25957E+05
 0.15293004E+02  0.25980E+05
 0.15343004E+02  0.25943E+05
 0.15393004E+02  0.25941E+05
 0.15443004E+02  0.25941E+05
 0.15493004E+02  0.25963E+05
 0.15543004E+02  0.25976E+05
 0.15593004E+02  0.25968E+05
 0.15643004E+02  0.25951E+05
 0.15693004E+02  0.25943E+05
 0.15743004E+02  0.25962E+05
 0.15793004E+02  0.25942E+05
 0.15843004E+02  0.25945E+05
 0.15893004E+02  0.25932E+05
 0.15943004E+02  0.25945E+05
 0.15993004E+02  0.25942E+05
 0.16043005E+02  0.25965E+05
 0.16093004E+02  0.25970E+05
 0.16143003E+02  0.25947E+05
 0.16193005E+02  0.25968E+05
 0.16243004E+02  0.25946E+05
 0.16293005E+02  0.25942E+05
 0.16343004E+02  0.25960E+05
 0.16393003E+02  0.25964E+05
 0.16443005E+02  0.25961E+05
 0.16493004E+02  0.25979E+05
 0.16543005E+02  0.25972E+05
 0.16593004E+02  0.25966E+05
 0.16643003E+02  0.25972E+05
 0.16693005E+02  0.25962E+05
 0.16743004E+02  0.25956E+05
 0.16793005E+02  0.25969E+05
 0.16843004E+02  0.25968E+05
 0.16893003E+02  0.25967E+05
 0.16943005E+02  0.25967E+05
 0.16993004E+02  0.25970E+05
 0.17043005E+02  0.25956E+05
 0.17093004E+02  0.25949E+05
 0.17143003E+02  0.25950E+05
 0.17193005E+02  0.25976E+05
 0.17243004E+02  0.25963E+05
 0.17293005E+02  0.25959E+05
 0.17343004E+02  0.25947E+05
 0.17393003E+02  0.25962E+05
 0.17443005E+02  0.25962E+05
 0.17493004E+02  0.25976E+05
 0.17543005E+02  0.25963E+05
 0.17593004E+02  0.25961E+05
 0.17643003E+02  0.25946E+05
 0.17693005E+02  0.25967E+05
 0.17743004E+02  0.25954E+05
 0.17793005E+02  0.25951E+05
 0.17843004E+02  0.25940E+05
 0.17893003E+02  0.25961E+05
 0.17943005E+02  0.25988E+05
 0.17993004E+02  0.25971E+05
 0.18043005E+02  0.25940E+05
 0.18093004E+02  0.25939E+05
 0.18143003E+02  0.25970E+05
 0.18193005E+02  0.25976E+05
 0.18243004E+02  0.25959E+05
 0.18293005E+02  0.25947E+05
 0.18343004E+02  0.25942E+05
 0.18393003E+02  0.25957E+05
 0.18443005E+02  0.25958E+05
 0.18493004E+02  0.25971E+05
 0.18543005E+02  0.25990E+05
 0.18593004E+02  0.25974E+05
 0.18643003E+02  0.25943E+05
 0.18693005E+02  0.25952E+05
 0.18743004E+02  0.25956E+05
 0.18793005E+02  0.25965E+05
 0.18843004E+02  0.25960E+05
 0.18893003E+02  0.25972E+05
 0.18943005E+02  0.25963E+05
 0.18993004E+02  0.25959E+05
 0.19043005E+02  0.25974E+05
 0.19093004E+02  0.25962E+05
 0.19143003E+02  0.25948E+05
 0.19193005E+02  0.25979E+05
 0.19243004E+02  0.25956E+05
 0.19293005E+02  0.25965E+05
 0.19343004E+02  0.25968E+05
 0.19393003E+02  0.25972E+05
 0.19443005E+02  0.25952E+05
 0.19493004E+02  0.25952E+05
 0.19543005E+02  0.25967E+05
 0.19593004E+02  0.25972E+05
 0.19643003E+02  0.25958E+05
 0.19693005E+02  0.25946E+05
 0.19743004E+02  0.25954E+05
 0.19793005E+02  0.25966E+05
 0.19843004E+02  0.25935E+05
 0.19893003E+02  0.25955E+05
 0.19943005E+02  0.25969E+05
 0.19993004E+02  0.25962E+05
 0.20043005E+02  0.25975E+05
 0.20093004E+02  0.25931E+05
 0.20143003E+02  0.25955E+05
 0.20193005E+02  0.25963E+05
 0.20243004E+02  0.25957E+05
 0.20293005E+02  0.25981E+05
 0.20343004E+02  0.25975E+05
 0.20393003E+02  0.25972E+05
 0.20443005E+02  0.25962E+05
 0.20493004E+02  0.25942E+05
 0.20543005E+02  0.25958E+05
 0.20593004E+02  0.25948E+05
 0.20643003E+02  0.25949E+05
 0.20693005E+02  0.25968E+05
 0.20743004E+02  0.25953E+05
 0.20793005E+02  0.25940E+05
 0.20843004E+02  0.25918E+05
 0.20893003E+02  0.25918E+05
 0.20943005E+02  0.25958E+05
 0.20993004E+02  0.25951E+05
 0.21043005E+02  0.25922E+05
 0.21093004E+02  0.25868E+05
 0.21143003E+02  0.25739E+05
 0.21193005E+02  0.26152E+05
 0.21243004E+02  0.26346E+05
 0.21293005E+02  0.26757E+05
 0.21343004E+02  0.27150E+05
 0.21393003E+02  0.27016E+05
 0.21443005E+02  0.26110E+05
 0.21493004E+02  0.25187E+05
 0.21543005E+02  0.24395E+05
 0.21593004E+02  0.24302E+05
 0.21643003E+02  0.24689E+05
 0.21693005E+02  0.25551E+05
 0.21743004E+02  0.26174E+05
 0.21793005E+02  0.26732E+05
 0.21843004E+02  0.27728E+05
 0.21893003E+02  0.27144E+05
 0.21943005E+02  0.25329E+05
 0.21993004E+02  0.24745E+05
 0.22043005E+02  0.24333E+05
 0.22093004E+02  0.25233E+05
 0.22143003E+02  0.26973E+05
 0.22193005E+02  0.27176E+05
 0.22243004E+02  0.25546E+05
 0.22293005E+02  0.26194E+05
 0.22343004E+02  0.26428E+05
 0.22393003E+02  0.25024E+05
 0.22443005E+02  0.26281E+05
 0.22493004E+02  0.27900E+05
 0.22543005E+02  0.26302E+05
 0.22593004E+02  0.26329E+05
 0.22643003E+02  0.25773E+05
 0.22693005E+02  0.25260E+05
 0.22743004E+02  0.24454E+05
 0.22793005E+02  0.24941E+05
 0.22843004E+02  0.26072E+05
 0.22893003E+02  0.26506E+05
 0.22943005E+02  0.25450E+05
 0.22993004E+02  0.25350E+05
 0.23043005E+02  0.26554E+05
 0.23093004E+02  0.26058E+05
 0.23143003E+02  0.26348E+05
 0.23193005E+02  0.27025E+05
 0.23243004E+02  0.27752E+05
 0.23293005E+02  0.27080E+05
 0.23343004E+02  0.25751E+05
 0.23393003E+02  0.24848E+05
 0.23443005E+02  0.25712E+05
 0.23493004E+02  0.26102E+05
 0.23543005E+02  0.25873E+05
 0.23593004E+02  0.24573E+05
 0.23643003E+02  0.24456E+05
 0.23693005E+02  0.24725E+05
 0.23743004E+02  0.25745E+05
 0.23793005E+02  0.26231E+05
 0.23843004E+02  0.26989E+05
 0.23893003E+02  0.27247E+05
 0.23943005E+02  0.26119E+05
 0.23993004E+02  0.24948E+05
 0.24043005E+02  0.25293E+05
 0.24093004E+02  0.25725E+05
 0.24143003E+02  0.26748E+05
 0.24193005E+02  0.27027E+05
 0.24243004E+02  0.26235E+05
 0.24293005E+02  0.26317E+05
 0.24343004E+02  0.26619E+05
 0.24393003E+02  0.25816E+05
 0.24443005E+02  0.25054E+05
 0.24493004E+02  0.26332E+05
 0.24543005E+02  0.25927E+05
 0.24593004E+02  0.26180E+05
 0.24643003E+02  0.26695E+05
 0.24693005E+02  0.26347E+05
 0.24743004E+02  0.25191E+05
 0.24793005E+02  0.25999E+05
 0.24843004E+02  0.26281E+05
 0.24893003E+02  0.24891E+05
 0.24943005E+02  0.24702E+05
 0.24993004E+02  0.26364E+05
 0.25043005E+02  0.27030E+05
 0.25093004E+02  0.26794E+05
 0.25143003E+02  0.25562E+05
 0.25193005E+02  0.26182E+05
 0.25243004E+02  0.25596E+05
 0.25293005E+02  0.25704E+05
 0.25343004E+02  0.24555E+05
 0.25393003E+02  0.23709E+05
 0.25443005E+02  0.25895E+05
 0.25493004E+02  0.27554E+05
 0.25543005E+02  0.27163E+05
 0.25593004E+02  0.26486E+05
 0.25643003E+02  0.26437E+05
 0.25693005E+02  0.25533E+05
 0.25743004E+02  0.25694E+05
 0.25793005E+02  0.25246E+05
 0.25843004E+02  0.25462E+05
 0.25893003E+02  0.26108E+05
 0.25943005E+02  0.26533E+05
 0.25993004E+02  0.26541E+05
 0.26043005E+02  0.25594E+05
 0.26093004E+02  0.26452E+05
 0.26143003E+02  0.27001E+05
 0.26193005E+02  0.26491E+05
 0.26243004E+02  0.26007E+05
 0.26293005E+02  0.25843E+05
 0.26343004E+02  0.25997E+05
 0.26393003E+02  0.25311E+05
 0.26443005E+02  0.25160E+05
 0.26493004E+02  0.25790E+05
 0.26543005E+02  0.26385E+05
 0.26593004E+02  0.26550E+05
 0.26643003E+02  0.25687E+05
 0.26693005E+02  0.25584E+05
 0.26743004E+02  0.26185E+05
 0.26793005E+02  0.26068E+05
 0.26843004E+02  0.26397E+05
 0.26893003E+02  0.26095E+05
 0.26943005E+02  0.25570E+05
 0.26993004E+02  0.26184E+05
 0.27043005E+02  0.27617E+05
 0.27093004E+02  0.27087E+05
 0.27143003E+02  0.25153E+05
 0.27193005E+02  0.23777E+05
 0.27243004E+02  0.24532E+05
 0.27293005E+02  0.25897E+05
 0.27343004E+02  0.25137E+05
 0.27393003E+02  0.24643E+05
 0.27443005E+02  0.25710E+05
 0.27493004E+02  0.27001E+05
 0.27543005E+02  0.27108E+05
 0.27593004E+02  0.26415E+05
 0.27643003E+02  0.25936E+05
 0.27693005E+02  0.25514E+05
 0.27743004E+02  0.25203E+05
 0.27793005E+02  0.26094E+05
 0.27843004E+02  0.27325E+05
 0.27893003E+02  0.27461E+05
 0.27943005E+02  0.26683E+05
 0.27993004E+02  0.25876E+05
 0.28043005E+02  0.25361E+05
 0.28093004E+02  0.25273E+05
 0.28143003E+02  0.25490E+05
 0.28193005E+02  0.25779E+05
 0.28243004E+02  0.26321E+05
 0.28293005E+02  0.26184E+05
 0.28343004E+02  0.26352E+05
 0.28393003E+02  0.26333E+05
 0.28443005E+02  0.25952E+05
 0.28493004E+02  0.25429E+05
 0.28543005E+02  0.25397E+05
 0.28593004E+02  0.25810E+05
 0.28643003E+02  0.25623E+05
 0.28693005E+02  0.25381E+05
 0.28743004E+02  0.25050E+05
 0.28793005E+02  0.25890E+05
 0.28843004E+02  0.26082E+05
 0.28893003E+02  0.26054E+05
 0.28943005E+02  0.25244E+05
 0.28993004E+02  0.25661E+05
 0.29043005E+02  0.26528E+05
 0.29093004E+02  0.26335E+05
 0.29143003E+02  0.26049E+05
 0.29193005E+02  0.26483E+05
 0.29243004E+02  0.27264E+05
 0.29293005E+02  0.26610E+05
 0.29343004E+02  0.26468E+05
 0.29393003E+02  0.26129E+05
 0.29443005E+02  0.24741E+05
 0.29493004E+02  0.25034E+05
 0.29543005E+02  0.25318E+05
 0.29593004E+02  0.24853E+05
 0.29643003E+02  0.26158E+05
 0.29693005E+02  0.27134E+05
 0.29743004E+02  0.27115E+05
 0.29793005E+02  0.26270E+05
 0.29843004E+02  0.25500E+05
 0.29893003E+02  0.25849E+05
 0.29943005E+02  0.26452E+05
 0.29993004E+02  0.26394E+05
 0.30043005E+02  0.26478E+05
 0.30093004E+02  0.26544E+05
 0.30143003E+02  0.25224E+05
 0.30193005E+02  0.24477E+05
 0.30243004E+02  0.25125E+05
 0.30293005E+02  0.25432E+05
 0.30343004E+02  0.25427E+05
 0.30393003E+02  0.26485E+05
 0.30443005E+02  0.27135E+05
 0.30493004E+02  0.26946E+05
 0.30543005E+02  0.26291E+05
 0.30593004E+02  0.25700E+05
 0.30643003E+02  0.25407E+05
 0.30693005E+02  0.25812E+05
 0.30743004E+02  0.25982E+05
 0.30793005E+02  0.26139E+05
 0.30843004E+02  0.25607E+05
 0.30893003E+02  0.25188E+05
 0.30943005E+02  0.25298E+05
 0.30993004E+02  0.25914E+05
 0.31043005E+02  0.26268E+05
 0.31093004E+02  0.25947E+05
 0.31143003E+02  0.25958E+05
 0.31193005E+02  0.26088E+05
 0.31243004E+02  0.25573E+05
 0.31293005E+02  0.25525E+05
 0.31343004E+02  0.27015E+05
 0.31393003E+02  0.27610E+05
 0.31443005E+02  0.26796E+05
 0.31493004E+02  0.26262E+05
 0.31543005E+02  0.25274E+05
 0.31593004E+02  0.24406E+05
 0.31643003E+02  0.24577E+05
 0.31693005E+02  0.25932E+05
 0.31743004E+02  0.26828E+05
 0.31793005E+02  0.27044E+05
 0.31843004E+02  0.26834E+05
 0.31893003E+02  0.26321E+05
 0.31943005E+02  0.25614E+05
 0.31993004E+02  0.25008E+05
 0.32043003E+02  0.25408E+05
 0.32093006E+02  0.26384E+05
 0.32143005E+02  0.26384E+05
 0.32193005E+02  0.26178E+05
 0.32243004E+02  0.25547E+05
 0.32293003E+02  0.25081E+05
 0.32343006E+02  0.25814E+05
 0.32393005E+02  0.26519E+05
 0.32443005E+02  0.26849E+05
 0.32493004E+02  0.26360E+05
 0.32543003E+02  0.25477E+05
 0.32593006E+02  0.26023E+05
 0.32643005E+02  0.26270E+05
 0.32693005E+02  0.26141E+05
 0.32743004E+02  0.26059E+05
 0.32793003E+02  0.25830E+05
 0.32843006E+02  0.25075E+05
 0.32893005E+02  0.25389E+05
 0.32943005E+02  0.25421E+05
 0.32993004E+02  0.25362E+05
 0.33043003E+02  0.25954E+05
 0.33093006E+02  0.26506E+05
 0.33143005E+02  0.26884E+05
 0.33193005E+02  0.26496E+05
 0.33243004E+02  0.26318E+05
 0.33293003E+02  0.25569E+05
 0.33343006E+02  0.25130E+05
 0.33393005E+02  0.25986E+05
 0.33443005E+02  0.26875E+05
 0.33493004E+02  0.26589E+05
 0.33543003E+02  0.26242E+05
 0.33593006E+02  0.26257E+05
 0.33643005E+02  0.25443E+05
 0.33693005E+02  0.25419E+05
 0.33743004E+02  0.25736E+05
 0.33793003E+02  0.26015E+05
 0.33843006E+02  0.25710E+05
 0.33893005E+02  0.25626E+05
 0.33943005E+02  0.25707E+05
 0.33993004E+02  0.26032E+05
 0.34043003E+02  0.26243E+05
 0.34093006E+02  0.26396E+05
 0.34143005E+02  0.25858E+05
 0.34193005E+02  0.25440E+05
 0.34243004E+02  0.25075E+05
 0.34293003E+02  0.25119E+05
 0.34343006E+02  0.25721E+05
 0.34393005E+02  0.26959E+05
 0.34443005E+02  0.26981E+05
 0.34493004E+02  0.26199E+05
 0.34543003E+02  0.25560E+05
 0.34593006E+02  0.25304E+05
 0.34643005E+02  0.25754E+05
 0.34693005E+02  0.26053E+05
 0.34743004E+02  0.26187E+05
 0.34793003E+02  0.26339E+05
 0.34843006E+02  0.26262E+05
 0.34893005E+02  0.26225E+05
 0.34943005E+02  0.26435E+05
 0.34993004E+02  0.25700E+05
 0.35043003E+02  0.25671E+05
 0.35093006E+02  0.26107E+05
 0.35143005E+02  0.25943E+05
 0.35193005E+02  0.25216E+05
 0.35243004E+02  0.25029E+05
 0.35293003E+02  0.25228E+05
 0.35343006E+02  0.25516E+05
 0.35393005E+02  0.25403E+05
 0.35443005E+02  0.25829E+05
 0.35493004E+02  0.27111E+05
 0.35543003E+02  0.27480E+05
 0.35593006E+02  0.27016E+05
 0.35643005E+02  0.26459E+05
 0.35693005E+02  0.25868E+05
 0.35743004E+02  0.26060E+05
 0.35793003E+02  0.26600E+05
 0.35843006E+02  0.25998E+05
 0.35893005E+02  0.25562E+05
 0.35943005E+02  0.25352E+05
 0.35993004E+02  0.25212E+05
 0.36043003E+02  0.25926E+05
 0.36093006E+02  0.26780E+05
 0.36143005E+02  0.27775E+05
 0.36193005E+02  0.27645E+05
 0.36243004E+02  0.26679E+05
 0.36293003E+02  0.25465E+05
 0.36343006E+02  0.24692E+05
 0.36393005E+02  0.24448E+05
 0.36443005E+02  0.24435E+05
 0.36493004E+02  0.25245E+05
 0.36543003E+02  0.25629E+05
 0.36593006E+02  0.25495E+05
 0.36643005E+02  0.25831E+05
 0.36693005E+02  0.26136E+05
 0.36743004E+02  0.26709E+05
 0.36793003E+02  0.27433E+05
 0.36843006E+02  0.27327E+05
 0.36893005E+02  0.26201E+05
 0.36943005E+02  0.25326E+05
 0.36993004E+02  0.25603E+05
 0.37043003E+02  0.26161E+05
 0.37093006E+02  0.26089E+05
 0.37143005E+02  0.25258E+05
 0.37193005E+02  0.24844E+05
 0.37243004E+02  0.25182E+05
 0.37293003E+02  0.25561E+05
 0.37343006E+02  0.25626E+05
 0.37393005E+02  0.25599E+05
 0.37443005E+02  0.25268E+05
 0.37493004E+02  0.25865E+05
 0.37543003E+02  0.27224E+05
 0.37593006E+02  0.27884E+05
 0.37643005E+02  0.26903E+05
 0.37693005E+02  0.25257E+05
 0.37743004E+02  0.24558E+05
 0.37793003E+02  0.24583E+05
 0.37843006E+02  0.24435E+05
 0.37893005E+02  0.24189E+05
 0.37943005E+02  0.24523E+05
 0.37993004E+02  0.25296E+05
 0.38043003E+02  0.25983E+05
 0.38093006E+02  0.26402E+05
 0.38143005E+02  0.26965E+05
 0.38193005E+02  0.27382E+05
 0.38243004E+02  0.27680E+05
 0.38293003E+02  0.27455E+05
 0.38343006E+02  0.26620E+05
 0.38393005E+02  0.25765E+05
 0.38443005E+02  0.25442E+05
 0.38493004E+02  0.26279E+05
 0.38543003E+02  0.26208E+05
 0.38593006E+02  0.25880E+05
 0.38643005E+02  0.26024E+05
 0.38693005E+02  0.26406E+05
 0.38743004E+02  0.26872E+05
 0.38793003E+02  0.27722E+05
 0.38843006E+02  0.28524E+05
 0.38893005E+02  0.27822E+05
 0.38943005E+02  0.26886E+05
 0.38993004E+02  0.26210E+05
 0.39043003E+02  0.25751E+05
 0.39093006E+02  0.25310E+05
 0.39143005E+02  0.25162E+05
 0.39193005E+02  0.24732E+05
 0.39243004E+02  0.24128E+05
 0.39293003E+02  0.25374E+05
 0.39343006E+02  0.26095E+05
 0.39393005E+02  0.25739E+05
 0.39443005E+02  0.25466E+05
 0.39493004E+02  0.24691E+05
 0.39543003E+02  0.24674E+05
 0.39593006E+02  0.25781E+05
 0.39643005E+02  0.26225E+05
 0.39693005E+02  0.26041E+05
 0.39743004E+02  0.25813E+05
 0.39793003E+02  0.25976E+05
 0.39843006E+02  0.25592E+05
 0.39893005E+02  0.25429E+05
 0.39943005E+02  0.24812E+05
 0.39993004E+02  0.24914E+05
 0.40043003E+02  0.25451E+05
 0.40093006E+02  0.24921E+05
 0.40143005E+02  0.24202E+05
 0.40193005E+02  0.24027E+05
 0.40243004E+02  0.23752E+05
 0.40293003E+02  0.24536E+05
 0.40343006E+02  0.26869E+05
 0.40393005E+02  0.28419E+05
 0.40443005E+02  0.28735E+05
 0.40493004E+02  0.28600E+05
 0.40543003E+02  0.27899E+05
 0.40593006E+02  0.26928E+05
 0.40643005E+02  0.27162E+05
 0.40693005E+02  0.27401E+05
 0.40743004E+02  0.27062E+05
 0.40793003E+02  0.27070E+05
 0.40843006E+02  0.27600E+05
 0.40893005E+02  0.27573E+05
 0.40943005E+02  0.26553E+05
 0.40993004E+02  0.25624E+05
 0.41043003E+02  0.25857E+05
 0.41093006E+02  0.26472E+05
 0.41143005E+02  0.26121E+05
 0.41193005E+02  0.25807E+05
 0.41243004E+02  0.25247E+05
 0.41293003E+02  0.25408E+05
 0.41343006E+02  0.25627E+05
 0.41393005E+02  0.24992E+05
 0.41443005E+02  0.25208E+05
 0.41493004E+02  0.25603E+05
 0.41543003E+02  0.25498E+05
 0.41593006E+02  0.25442E+05
 0.41643005E+02  0.25181E+05
 0.41693005E+02  0.24886E+05
 0.41743004E+02  0.24295E+05
 0.41793003E+02  0.23447E+05
 0.41843006E+02  0.23584E+05
 0.41893005E+02  0.23601E+05
 0.41943005E+02  0.24337E+05
 0.41993004E+02  0.26819E+05
 0.42043003E+02  0.28701E+05
 0.42093006E+02  0.28668E+05
 0.42143005E+02  0.27377E+05
 0.42193005E+02  0.25855E+05
 0.42243004E+02  0.24531E+05
 0.42293003E+02  0.24149E+05
 0.42343006E+02  0.25035E+05
 0.42393005E+02  0.25757E+05
 0.42443005E+02  0.26801E+05
 0.42493004E+02  0.27757E+05
 0.42543003E+02  0.28108E+05
 0.42593006E+02  0.28369E+05
 0.42643005E+02  0.28536E+05
 0.42693005E+02  0.27704E+05
 0.42743004E+02  0.26252E+05
 0.42793003E+02  0.25586E+05
 0.42843006E+02  0.25056E+05
 0.42893005E+02  0.25076E+05
 0.42943005E+02  0.25669E+05
 0.42993004E+02  0.25991E+05
 0.43043003E+02  0.26564E+05
 0.43093006E+02  0.26367E+05
 0.43143005E+02  0.25616E+05
 0.43193005E+02  0.25729E+05
 0.43243004E+02  0.25309E+05
 0.43293003E+02  0.24923E+05
 0.43343006E+02  0.25219E+05
 0.43393005E+02  0.25823E+05
 0.43443005E+02  0.25721E+05
 0.43493004E+02  0.25481E+05
 0.43543003E+02  0.25449E+05
 0.43593006E+02  0.25418E+05
 0.43643005E+02  0.25155E+05
 0.43693005E+02  0.25467E+05
 0.43743004E+02  0.26248E+05
 0.43793003E+02  0.27320E+05
 0.43843006E+02  0.27981E+05
 0.43893005E+02  0.27798E+05
 0.43943005E+02  0.26945E+05
 0.43993004E+02  0.26209E+05
 0.44043003E+02  0.25882E+05
 0.44093006E+02  0.26178E+05
 0.44143005E+02  0.26901E+05
 0.44193005E+02  0.26675E+05
 0.44243004E+02  0.25862E+05
 0.44293003E+02  0.25061E+05
 0.44343006E+02  0.24355E+05
 0.44393005E+02  0.24582E+05
 0.44443005E+02  0.24725E+05
 0.44493004E+02  0.24357E+05
 0.44543003E+02  0.24616E+05
 0.44593006E+02  0.25047E+05
 0.44643005E+02  0.24712E+05
 0.44693005E+02  0.24577E+05
 0.44743004E+02  0.24598E+05
 0.44793003E+02  0.24830E+05
 0.44843006E+02  0.25770E+05
 0.44893005E+02  0.26779E+05
 0.44943005E+02  0.27538E+05
 0.44993004E+02  0.27788E+05
 0.45043003E+02  0.27374E+05
 0.45093006E+02  0.26888E+05
 0.45143005E+02  0.27284E+05
 0.45193005E+02  0.27497E+05
 0.45243004E+02  0.27155E+05
 0.45293003E+02  0.26919E+05
 0.45343006E+02  0.26030E+05
 0.45393005E+02  0.25448E+05
 0.45443005E+02  0.25496E+05
 0.45493004E+02  0.25540E+05
 0.45543003E+02  0.25430E+05
 0.45593006E+02  0.25250E+05
 0.45643005E+02  0.25342E+05
 0.45693005E+02  0.25607E+05
 0.45743004E+02  0.26128E+05
 0.45793003E+02  0.26232E+05
 0.45843006E+02  0.25692E+05
 0.45893005E+02  0.25187E+05
 0.45943005E+02  0.24330E+05
 0.45993004E+02  0.23782E+05
 0.46043003E+02  0.24177E+05
 0.46093006E+02  0.24610E+05
 0.46143005E+02  0.25114E+05
 0.46193005E+02  0.25751E+05
 0.46243004E+02  0.26326E+05
 0.46293003E+02  0.27020E+05
 0.46343006E+02  0.27645E+05
 0.46393005E+02  0.27375E+05
 0.46443005E+02  0.26249E+05
 0.46493004E+02  0.25359E+05
 0.46543003E+02  0.25656E+05
 0.46593006E+02  0.27028E+05
 0.46643005E+02  0.28060E+05
 0.46693005E+02  0.27920E+05
 0.46743004E+02  0.26780E+05
 0.46793003E+02  0.26110E+05
 0.46843006E+02  0.26059E+05
 0.46893005E+02  0.25684E+05
 0.46943005E+02  0.25138E+05
 0.46993004E+02  0.25486E+05
 0.47043003E+02  0.26184E+05
 0.47093006E+02  0.26098E+05
 0.47143005E+02  0.25370E+05
 0.47193005E+02  0.24949E+05
 0.47243004E+02  0.24552E+05
 0.47293003E+02  0.24282E+05
 0.47343006E+02  0.24109E+05
 0.47393005E+02  0.23752E+05
 0.47443005E+02  0.24029E+05
 0.47493004E+02  0.25272E+05
 0.47543003E+02  0.26608E+05
 0.47593006E+02  0.27469E+05
 0.47643005E+02  0.27494E+05
 0.47693005E+02  0.27138E+05
 0.47743004E+02  0.27112E+05
 0.47793003E+02  0.27373E+05
 0.47843006E+02  0.27525E+05
 0.47893005E+02  0.27558E+05
 0.47943005E+02  0.27161E+05
 0.47993004E+02  0.26612E+05
 0.48043003E+02  0.26427E+05
 0.48093006E+02  0.26079E+05
 0.48143005E+02  0.25687E+05
 0.48193005E+02  0.25368E+05
 0.48243004E+02  0.25309E+05
 0.48293003E+02  0.25324E+05
 0.48343006E+02  0.25693E+05
 0.48393005E+02  0.26328E+05
 0.48443005E+02  0.26748E+05
 0.48493004E+02  0.27116E+05
 0.48543003E+02  0.27250E+05
 0.48593006E+02  0.26524E+05
 0.48643005E+02  0.26245E+05
 0.48693005E+02  0.26155E+05
 0.48743004E+02  0.25582E+05
 0.48793003E+02  0.25304E+05
 0.48843006E+02  0.25686E+05
 0.48893005E+02  0.26083E+05
 0.48943005E+02  0.26031E+05
 0.48993004E+02  0.25829E+05
 0.49043003E+02  0.25442E+05
 0.49093006E+02  0.25434E+05
 0.49143005E+02  0.25506E+05
 0.49193005E+02  0.25328E+05
 0.49243004E+02  0.25137E+05
 0.49293003E+02  0.25723E+05
 0.49343006E+02  0.26778E+05
 0.49393005E+02  0.27314E+05
 0.49443005E+02  0.26698E+05
 0.49493004E+02  0.25914E+05
 0.49543003E+02  0.25552E+05
 0.49593006E+02  0.25337E+05
 0.49643005E+02  0.25464E+05
 0.49693005E+02  0.25801E+05
 0.49743004E+02  0.25965E+05
 0.49793003E+02  0.25408E+05
 0.49843006E+02  0.25114E+05
 0.49893005E+02  0.25237E+05
 0.49943005E+02  0.25673E+05
 0.49993004E+02  0.26309E+05
 0.50043003E+02  0.26377E+05
 0.50093006E+02  0.25581E+05
 0.50143005E+02  0.24722E+05
 0.50193005E+02  0.24363E+05
 0.50243004E+02  0.25347E+05
 0.50293003E+02  0.26900E+05
 0.50343006E+02  0.27539E+05
 0.50393005E+02  0.27690E+05
 0.50443005E+02  0.27507E+05
 0.50493004E+02  0.27140E+05
 0.50543003E+02  0.26808E+05
 0.50593006E+02  0.26383E+05
 0.50643005E+02  0.26410E+05
 0.50693005E+02  0.26621E+05
 0.50743004E+02  0.26954E+05
 0.50793003E+02  0.27009E+05
 0.50843006E+02  0.26252E+05
 0.50893005E+02  0.25254E+05
 0.50943005E+02  0.24453E+05
 0.50993004E+02  0.24178E+05
 0.51043003E+02  0.23980E+05
 0.51093006E+02  0.23985E+05
 0.51143005E+02  0.24030E+05
 0.51193005E+02  0.24341E+05
 0.51243004E+02  0.24823E+05
 0.51293003E+02  0.25568E+05
 0.51343006E+02  0.26085E+05
 0.51393005E+02  0.26248E+05
 0.51443005E+02  0.25885E+05
 0.51493004E+02  0.25315E+05
 0.51543003E+02  0.25392E+05
 0.51593006E+02  0.25958E+05
 0.51643005E+02  0.26711E+05
 0.51693005E+02  0.26998E+05
 0.51743004E+02  0.26840E+05
 0.51793003E+02  0.26494E+05
 0.51843006E+02  0.26176E+05
 0.51893005E+02  0.26185E+05
 0.51943005E+02  0.26815E+05
 0.51993004E+02  0.27504E+05
 0.52043003E+02  0.27795E+05
 0.52093006E+02  0.27512E+05
 0.52143005E+02  0.26809E+05
 0.52193005E+02  0.25989E+05
 0.52243004E+02  0.25130E+05
 0.52293003E+02  0.24551E+05
 0.52343006E+02  0.24457E+05
 0.52393005E+02  0.25070E+05
 0.52443005E+02  0.26056E+05
 0.52493004E+02  0.26523E+05
 0.52543003E+02  0.26379E+05
 0.52593006E+02  0.26227E+05
 0.52643005E+02  0.26092E+05
 0.52693005E+02  0.25757E+05
 0.52743004E+02  0.25217E+05
 0.52793003E+02  0.25150E+05
 0.52843006E+02  0.25142E+05
 0.52893005E+02  0.25578E+05
 0.52943005E+02  0.26107E+05
 0.52993004E+02  0.26307E+05
 0.53043003E+02  0.26395E+05
 0.53093006E+02  0.26730E+05
 0.53143005E+02  0.26599E+05
 0.53193005E+02  0.26088E+05
 0.53243004E+02  0.25354E+05
 0.53293003E+02  0.25202E+05
 0.53343006E+02  0.25686E+05
 0.53393005E+02  0.26536E+05
 0.53443005E+02  0.26869E+05
 0.53493004E+02  0.27031E+05
 0.53543003E+02  0.26470E+05
 0.53593006E+02  0.25780E+05
 0.53643005E+02  0.25574E+05
 0.53693005E+02  0.25621E+05
 0.53743004E+02  0.25758E+05
 0.53793003E+02  0.25919E+05
 0.53843006E+02  0.25874E+05
 0.53893005E+02  0.25795E+05
 0.53943005E+02  0.26051E+05
 0.53993004E+02  0.26435E+05
 0.54043003E+02  0.26701E+05
 0.54093006E+02  0.27063E+05
 0.54143005E+02  0.27056E+05
 0.54193005E+02  0.26711E+05
 0.54243004E+02  0.26372E+05
 0.54293003E+02  0.25933E+05
 0.54343006E+02  0.25482E+05
 0.54393005E+02  0.25297E+05
 0.54443005E+02  0.25444E+05
 0.54493004E+02  0.25619E+05
 0.54543003E+02  0.25673E+05
 0.54593006E+02  0.25538E+05
 0.54643005E+02  0.25135E+05
 0.54693005E+02  0.24593E+05
 0.54743004E+02  0.24248E+05
 0.54793003E+02  0.24552E+05
 0.54843006E+02  0.25397E+05
 0.54893005E+02  0.26170E+05
 0.54943005E+02  0.26557E+05
 0.54993004E+02  0.26847E+05
 0.55043003E+02  0.26805E+05
 0.55093006E+02  0.26455E+05
 0.55143005E+02  0.26162E+05
 0.55193005E+02  0.25857E+05
 0.55243004E+02  0.25355E+05
 0.55293003E+02  0.25206E+05
 0.55343006E+02  0.25374E+05
 0.55393005E+02  0.25484E+05
 0.55443005E+02  0.25643E+05
 0.55493004E+02  0.26204E+05
 0.55543003E+02  0.26480E+05
 0.55593006E+02  0.26602E+05
 0.55643005E+02  0.26371E+05
 0.55693005E+02  0.26010E+05
 0.55743004E+02  0.26070E+05
 0.55793003E+02  0.26284E+05
 0.55843006E+02  0.26416E+05
 0.55893005E+02  0.26453E+05
 0.55943005E+02  0.26394E+05
 0.55993004E+02  0.26041E+05
 0.56043003E+02  0.25532E+05
 0.56093006E+02  0.25198E+05
 0.56143005E+02  0.25291E+05
 0.56193005E+02  0.25493E+05
 0.56243004E+02  0.25622E+05
 0.56293003E+02  0.25976E+05
 0.56343006E+02  0.26382E+05
 0.56393005E+02  0.26757E+05
 0.56443005E+02  0.26862E+05
 0.56493004E+02  0.26839E+05
 0.56543003E+02  0.26701E+05
 0.56593006E+02  0.26526E+05
 0.56643005E+02  0.26500E+05
 0.56693005E+02  0.26264E+05
 0.56743004E+02  0.25950E+05
 0.56793003E+02  0.25615E+05
 0.56843006E+02  0.25305E+05
 0.56893005E+02  0.25134E+05
 0.56943005E+02  0.25047E+05
 0.56993004E+02  0.25069E+05
 0.57043003E+02  0.25408E+05
 0.57093006E+02  0.25989E+05
 0.57143005E+02  0.26269E+05
 0.57193005E+02  0.26342E+05
 0.57243004E+02  0.26287E+05
 0.57293003E+02  0.26486E+05
 0.57343006E+02  0.26782E+05
 0.57393005E+02  0.26709E+05
 0.57443005E+02  0.26493E+05
 0.57493004E+02  0.26478E+05
 0.57543003E+02  0.26495E+05
 0.57593006E+02  0.26230E+05
 0.57643005E+02  0.25519E+05
 0.57693005E+02  0.24837E+05
 0.57743004E+02  0.24559E+05
 0.57793003E+02  0.24805E+05
 0.57843006E+02  0.25269E+05
 0.57893005E+02  0.25759E+05
 0.57943005E+02  0.26069E+05
 0.57993004E+02  0.26091E+05
 0.58043003E+02  0.26013E+05
 0.58093006E+02  0.25987E+05
 0.58143005E+02  0.25995E+05
 0.58193005E+02  0.25942E+05
 0.58243004E+02  0.25898E+05
 0.58293003E+02  0.25980E+05
 0.58343006E+02  0.25969E+05
 0.58393005E+02  0.25842E+05
 0.58443005E+02  0.25831E+05
 0.58493004E+02  0.26053E+05
 0.58543003E+02  0.25995E+05
 0.58593006E+02  0.26000E+05
 0.58643005E+02  0.25956E+05
 0.58693005E+02  0.26097E+05
 0.58743004E+02  0.26305E+05
 0.58793003E+02  0.26671E+05
 0.58843006E+02  0.26798E+05
 0.58893005E+02  0.26764E+05
 0.58943005E+02  0.26662E+05
 0.58993004E+02  0.26342E+05
 0.59043003E+02  0.25793E+05
 0.59093006E+02  0.25536E+05
 0.59143005E+02  0.25475E+05
 0.59193005E+02  0.25470E+05
 0.59243004E+02  0.25391E+05
 0.59293003E+02  0.25382E+05
 0.59343006E+02  0.25174E+05
 0.59393005E+02  0.25148E+05
 0.59443005E+02  0.25172E+05
 0.59493004E+02  0.25417E+05
 0.59543003E+02  0.25642E+05
 0.59593006E+02  0.25970E+05
 0.59643005E+02  0.26410E+05
 0.59693005E+02  0.26717E+05
 0.59743004E+02  0.26453E+05
 0.59793003E+02  0.26140E+05
 0.59843006E+02  0.25991E+05
 0.59893005E+02  0.26009E+05
 0.59943005E+02  0.25965E+05
 0.59993004E+02  0.25972E+05
 0.60043003E+02  0.25954E+05
 0.60093006E+02  0.26112E+05
 0.60143005E+02  0.26277E+05
 0.60193005E+02  0.26471E+05
 0.60243004E+02  0.26590E+05
 0.60293003E+02  0.26467E+05
 0.60343006E+02  0.26353E+05
 0.60393005E+02  0.26358E+05
 0.60443005E+02  0.26296E+05
 0.60493004E+02  0.26255E+05
 0.60543003E+02  0.26013E+05
 0.60593006E+02  0.25543E+05
 0.60643005E+02  0.24990E+05
 0.60693005E+02  0.24830E+05
 0.60743004E+02  0.24785E+05
 0.60793003E+02  0.25015E+05
 0.60843006E+02  0.25384E+05
 0.60893005E+02  0.25910E+05
 0.60943005E+02  0.26388E+05
 0.60993004E+02  0.26605E+05
 0.61043003E+02  0.26531E+05
 0.61093006E+02  0.26275E+05
 0.61143005E+02  0.25871E+05
 0.61193005E+02  0.25604E+05
 0.61243004E+02  0.25735E+05
 0.61293003E+02  0.26195E+05
 0.61343006E+02  0.26656E+05
 0.61393005E+02  0.26746E+05
 0.61443005E+02  0.26317E+05
 0.61493004E+02  0.25806E+05
 0.61543003E+02  0.25502E+05
 0.61593006E+02  0.25332E+05
 0.61643005E+02  0.25427E+05
 0.61693005E+02  0.25736E+05
 0.61743004E+02  0.26268E+05
 0.61793003E+02  0.26670E+05
 0.61843006E+02  0.26939E+05
 0.61893005E+02  0.26922E+05
 0.61943005E+02  0.26571E+05
 0.61993004E+02  0.25976E+05
 0.62043003E+02  0.25451E+05
 0.62093006E+02  0.25219E+05
 0.62143005E+02  0.25324E+05
 0.62193005E+02  0.25440E+05
 0.62243004E+02  0.25639E+05
 0.62293003E+02  0.25631E+05
 0.62343006E+02  0.25646E+05
 0.62393005E+02  0.25522E+05
 0.62443005E+02  0.25400E+05
 0.62493004E+02  0.25636E+05
 0.62543003E+02  0.26313E+05
 0.62593006E+02  0.26885E+05
 0.62643005E+02  0.27284E+05
 0.62693005E+02  0.27283E+05
 0.62743004E+02  0.26920E+05
 0.62793003E+02  0.26260E+05
 0.62843006E+02  0.25682E+05
 0.62893005E+02  0.25294E+05
 0.62943005E+02  0.25041E+05
 0.62993004E+02  0.25028E+05
 0.63043003E+02  0.25201E+05
 0.63093006E+02  0.25580E+05
 0.63143005E+02  0.25952E+05
 0.63193005E+02  0.26287E+05
 0.63243004E+02  0.26430E+05
 0.63293003E+02  0.26406E+05
 0.63343006E+02  0.26194E+05
 0.63393005E+02  0.26094E+05
 0.63443005E+02  0.25980E+05
 0.63493004E+02  0.25916E+05
 0.63543003E+02  0.25907E+05
 0.63593006E+02  0.26093E+05
 0.63643005E+02  0.26287E+05
 0.63693005E+02  0.26444E+05
 0.63743004E+02  0.26259E+05
 0.63793003E+02  0.26078E+05
 0.63843006E+02  0.25844E+05
 0.63893005E+02  0.25756E+05
 0.63943005E+02  0.25653E+05
 0.63993004E+02  0.25530E+05
 0.64043007E+02  0.25399E+05
 0.64093002E+02  0.25519E+05
 0.64143005E+02  0.25681E+05
 0.64193008E+02  0.25698E+05
 0.64243004E+02  0.25646E+05
 0.64293007E+02  0.25857E+05
 0.64343002E+02  0.26107E+05
 0.64393005E+02  0.26254E+05
 0.64443008E+02  0.26263E+05
 0.64493004E+02  0.26262E+05
 0.64543007E+02  0.26204E+05
 0.64593002E+02  0.26084E+05
 0.64643005E+02  0.25949E+05
 0.64693008E+02  0.25809E+05
 0.64743004E+02  0.25760E+05
 0.64793007E+02  0.25903E+05
 0.64843002E+02  0.26099E+05
 0.64893005E+02  0.26220E+05
 0.64943008E+02  0.26241E+05
 0.64993004E+02  0.26100E+05
 0.65043007E+02  0.25807E+05
 0.65093002E+02  0.25732E+05
 0.65143005E+02  0.25789E+05
 0.65193008E+02  0.25753E+05
 0.65243004E+02  0.25772E+05
 0.65293007E+02  0.25676E+05
 0.65343002E+02  0.25684E+05
 0.65393005E+02  0.25733E+05
 0.65443008E+02  0.25794E+05
 0.65493004E+02  0.25913E+05
 0.65543007E+02  0.26210E+05
 0.65593002E+02  0.26398E+05
 0.65643005E+02  0.26490E+05
 0.65693008E+02  0.26495E+05
 0.65743004E+02  0.26456E+05
 0.65793007E+02  0.26337E+05
 0.65843002E+02  0.26177E+05
 0.65893005E+02  0.26070E+05
 0.65943008E+02  0.25891E+05
 0.65993004E+02  0.25778E+05
 0.66043007E+02  0.25730E+05
 0.66093002E+02  0.25782E+05
 0.66143005E+02  0.25896E+05
 0.66193008E+02  0.26042E+05
 0.66243004E+02  0.26043E+05
 0.66293007E+02  0.25825E+05
 0.66343002E+02  0.25529E+05
 0.66393005E+02  0.25324E+05
 0.66443008E+02  0.25353E+05
 0.66493004E+02  0.25651E+05
 0.66543007E+02  0.26006E+05
 0.66593002E+02  0.26250E+05
 0.66643005E+02  0.26315E+05
 0.66693008E+02  0.26445E+05
 0.66743004E+02  0.26288E+05
 0.66793007E+02  0.26098E+05
 0.66843002E+02  0.25687E+05
 0.66893005E+02  0.25500E+05
 0.66943008E+02  0.25510E+05
 0.66993004E+02  0.25866E+05
 0.67043007E+02  0.26026E+05
 0.67093002E+02  0.26025E+05
 0.67143005E+02  0.25811E+05
 0.67193008E+02  0.25507E+05
 0.67243004E+02  0.25365E+05
 0.67293007E+02  0.25389E+05
 0.67343002E+02  0.25648E+05
 0.67393005E+02  0.26140E+05
 0.67443008E+02  0.26593E+05
 0.67493004E+02  0.26809E+05
 0.67543007E+02  0.26685E+05
 0.67593002E+02  0.26299E+05
 0.67643005E+02  0.26006E+05
 0.67693008E+02  0.26037E+05
 0.67743004E+02  0.26159E+05
 0.67793007E+02  0.26258E+05
 0.67843002E+02  0.26178E+05
 0.67893005E+02  0.26125E+05
 0.67943008E+02  0.26067E+05
 0.67993004E+02  0.26062E+05
 0.68043007E+02  0.25977E+05
 0.68093002E+02  0.25890E+05
 0.68143005E+02  0.25624E+05
 0.68193008E+02  0.25396E+05
 0.68243004E+02  0.25249E+05
 0.68293007E+02  0.25329E+05
 0.68343002E+02  0.25561E+05
 0.68393005E+02  0.25968E+05
 0.68443008E+02  0.26179E+05
 0.68493004E+02  0.26179E+05
 0.68543007E+02  0.25933E+05
 0.68593002E+02  0.25820E+05
 0.68643005E+02  0.25832E+05
 0.68693008E+02  0.26023E+05
 0.68743004E+02  0.26064E+05
 0.68793007E+02  0.26098E+05
 0.68843002E+02  0.26049E+05
 0.68893005E+02  0.26102E+05
 0.68943008E+02  0.26227E+05
 0.68993004E+02  0.26458E+05
 0.69043007E+02  0.26699E+05
 0.69093002E+02  0.26732E+05
 0.69143005E+02  0.26653E+05
 0.69193008E+02  0.26380E+05
 0.69243004E+02  0.26225E+05
 0.69293007E+02  0.26016E+05
 0.69343002E+02  0.25845E+05
 0.69393005E+02  0.25687E+05
 0.69443008E+02  0.25590E+05
 0.69493004E+02  0.25421E+05
 0.69543007E+02  0.25379E+05
 0.69593002E+02  0.25356E+05
 0.69643005E+02  0.25523E+05
 0.69693008E+02  0.25642E+05
 0.69743004E+02  0.25786E+05
 0.69793007E+02  0.25972E+05
 0.69843002E+02  0.26132E+05
 0.69893005E+02  0.26182E+05
 0.69943008E+02  0.26138E+05
 0.69993004E+02  0.26072E+05
 0.70043007E+02  0.25874E+05
 0.70093002E+02  0.25584E+05
 0.70143005E+02  0.25247E+05
 0.70193008E+02  0.25290E+05
 0.70243004E+02  0.25468E+05
 0.70293007E+02  0.25850E+05
 0.70343002E+02  0.26126E+05
 0.70393005E+02  0.26398E+05
 0.70443008E+02  0.26488E+05
 0.70493004E+02  0.26467E+05
 0.70543007E+02  0.26326E+05
 0.70593002E+02  0.26234E+05
 0.70643005E+02  0.26118E+05
 0.70693008E+02  0.26042E+05
 0.70743004E+02  0.26049E+05
 0.70793007E+02  0.26024E+05
 0.70843002E+02  0.25865E+05
 0.70893005E+02  0.25800E+05
 0.70943008E+02  0.25886E+05
 0.70993004E+02  0.26014E+05
 0.71043007E+02  0.26322E+05
 0.71093002E+02  0.26532E+05
 0.71143005E+02  0.26449E+05
 0.71193008E+02  0.26104E+05
 0.71243004E+02  0.25617E+05
 0.71293007E+02  0.25118E+05
 0.71343002E+02  0.25037E+05
 0.71393005E+02  0.25235E+05
 0.71443008E+02  0.25714E+05
 0.71493004E+02  0.26269E+05
 0.71543007E+02  0.26772E+05
 0.71593002E+02  0.26850E+05
 0.71643005E+02  0.26627E+05
 0.71693008E+02  0.26302E+05
 0.71743004E+02  0.26006E+05
 0.71793007E+02  0.25897E+05
 0.71843002E+02  0.25809E+05
 0.71893005E+02  0.25630E+05
 0.71943008E+02  0.25506E+05
 0.71993004E+02  0.25552E+05
 0.72043007E+02  0.25652E+05
 0.72093002E+02  0.25739E+05
 0.72143005E+02  0.25743E+05
 0.72193008E+02  0.25758E+05
 0.72243004E+02  0.25810E+05
 0.72293007E+02  0.25775E+05
 0.72343002E+02  0.25627E+05
 0.72393005E+02  0.25640E+05
 0.72443008E+02  0.25660E+05
 0.72493004E+02  0.25764E+05
 0.72543007E+02  0.25872E+05
 0.72593002E+02  0.26137E+05
 0.72643005E+02  0.26322E+05
 0.72693008E+02  0.26369E+05
 0.72743004E+02  0.26201E+05
 0.72793007E+02  0.26034E+05
 0.72843002E+02  0.25935E+05
 0.72893005E+02  0.25984E+05
 0.72943008E+02  0.26012E+05
 0.72993004E+02  0.26090E+05
 0.73043007E+02  0.26079E+05
 0.73093002E+02  0.26075E+05
 0.73143005E+02  0.26079E+05
 0.73193008E+02  0.26156E+05
 0.73243004E+02  0.26073E+05
 0.73293007E+02  0.26042E+05
 0.73343002E+02  0.26051E+05
 0.73393005E+02  0.26110E+05
 0.73443008E+02  0.26097E+05
 0.73493004E+02  0.26098E+05
 0.73543007E+02  0.26120E+05
 0.73593002E+02  0.26212E+05
 0.73643005E+02  0.26127E+05
 0.73693008E+02  0.25990E+05
 0.73743004E+02  0.25788E+05
 0.73793007E+02  0.25681E+05
 0.73843002E+02  0.25651E+05
 0.73893005E+02  0.25816E+05
 0.73943008E+02  0.25956E+05
 0.73993004E+02  0.26068E+05
 0.74043007E+02  0.26008E+05
 0.74093002E+02  0.25965E+05
 0.74143005E+02  0.25871E+05
 0.74193008E+02  0.25818E+05
 0.74243004E+02  0.25624E+05
 0.74293007E+02  0.25549E+05
 0.74343002E+02  0.25580E+05
 0.74393005E+02  0.25820E+05
 0.74443008E+02  0.26012E+05
 0.74493004E+02  0.26252E+05
 0.74543007E+02  0.26384E+05
 0.74593002E+02  0.26472E+05
 0.74643005E+02  0.26420E+05
 0.74693008E+02  0.26284E+05
 0.74743004E+02  0.26040E+05
 0.74793007E+02  0.25944E+05
 0.74843002E+02  0.26040E+05
 0.74893005E+02  0.26295E+05
 0.74943008E+02  0.26399E+05
 0.74993004E+02  0.26334E+05
 0.75043007E+02  0.26055E+05
 0.75093002E+02  0.25749E+05
 0.75143005E+02  0.25471E+05
 0.75193008E+02  0.25200E+05
 0.75243004E+02  0.24933E+05
 0.75293007E+02  0.24847E+05
 0.75343002E+02  0.24986E+05
 0.75393005E+02  0.25211E+05
 0.75443008E+02  0.25489E+05
 0.75493004E+02  0.25816E+05
 0.75543007E+02  0.26172E+05
 0.75593002E+02  0.26271E+05
 0.75643005E+02  0.26354E+05
 0.75693008E+02  0.26288E+05
 0.75743004E+02  0.26252E+05
 0.75793007E+02  0.26203E+05
 0.75843002E+02  0.26276E+05
 0.75893005E+02  0.26228E+05
 0.75943008E+02  0.26262E+05
 0.75993004E+02  0.26272E+05
 0.76043007E+02  0.26272E+05
 0.76093002E+02  0.26223E+05
 0.76143005E+02  0.26195E+05
 0.76193008E+02  0.26039E+05
 0.76243004E+02  0.25953E+05
 0.76293007E+02  0.25986E+05
 0.76343002E+02  0.26187E+05
 0.76393005E+02  0.26305E+05
 0.76443008E+02  0.26365E+05
 0.76493004E+02  0.26254E+05
 0.76543007E+02  0.26109E+05
 0.76593002E+02  0.25861E+05
 0.76643005E+02  0.25716E+05
 0.76693008E+02  0.25615E+05
 0.76743004E+02  0.25678E+05
 0.76793007E+02  0.25779E+05
 0.76843002E+02  0.25999E+05
 0.76893005E+02  0.26065E+05
 0.76943008E+02  0.26066E+05
 0.76993004E+02  0.25985E+05
 0.77043007E+02  0.25855E+05
 0.77093002E+02  0.25705E+05
 0.77143005E+02  0.25657E+05
 0.77193008E+02  0.25745E+05
 0.77243004E+02  0.25914E+05
 0.77293007E+02  0.26097E+05
 0.77343002E+02  0.26185E+05
 0.77393005E+02  0.26107E+05
 0.77443008E+02  0.25971E+05
 0.77493004E+02  0.25836E+05
 0.77543007E+02  0.25781E+05
 0.77593002E+02  0.25768E+05
 0.77643005E+02  0.25783E+05
 0.77693008E+02  0.25849E+05
 0.77743004E+02  0.25941E+05
 0.77793007E+02  0.25894E+05
 0.77843002E+02  0.25759E+05
 0.77893005E+02  0.25733E+05
 0.77943008E+02  0.25896E+05
 0.77993004E+02  0.25997E+05
 0.78043007E+02  0.26029E+05
 0.78093002E+02  0.25957E+05
 0.78143005E+02  0.25826E+05
 0.78193008E+02  0.25729E+05
 0.78243004E+02  0.25763E+05
 0.78293007E+02  0.25830E+05
 0.78343002E+02  0.25904E+05
 0.78393005E+02  0.26069E+05
 0.78443008E+02  0.26265E+05
 0.78493004E+02  0.26450E+05
 0.78543007E+02  0.26464E+05
 0.78593002E+02  0.26411E+05
 0.78643005E+02  0.26253E+05
 0.78693008E+02  0.26090E+05
 0.78743004E+02  0.25839E+05
 0.78793007E+02  0.25682E+05
 0.78843002E+02  0.25590E+05
 0.78893005E+02  0.25674E+05
 0.78943008E+02  0.25892E+05
 0.78993004E+02  0.26100E+05
 0.79043007E+02  0.26118E+05
 0.79093002E+02  0.26029E+05
 0.79143005E+02  0.25909E+05
 0.79193008E+02  0.25929E+05
 0.79243004E+02  0.25972E+05
 0.79293007E+02  0.26010E+05
 0.79343002E+02  0.25988E+05
 0.79393005E+02  0.26031E+05
 0.79443008E+02  0.25988E+05
 0.79493004E+02  0.25947E+05
 0.79543007E+02  0.25927E+05
 0.79593002E+02  0.25953E+05
 0.79643005E+02  0.25915E+05
 0.79693008E+02  0.25975E+05
 0.79743004E+02  0.26065E+05
 0.79793007E+02  0.26234E+05
 0.79843002E+02  0.26234E+05
 0.79893005E+02  0.26153E+05
 0.79943008E+02  0.25991E+05
 0.79993004E+02  0.25961E+05
 0.80043007E+02  0.25833E+05
 0.80093002E+02  0.25724E+05
 0.80143005E+02  0.25659E+05
 0.80193008E+02  0.25694E+05
 0.80243004E+02  0.25657E+05
 0.80293007E+02  0.25707E+05
 0.80343002E+02  0.25740E+05
 0.80393005E+02  0.25798E+05
 0.80443008E+02  0.25806E+05
 0.80493004E+02  0.25818E+05
 0.80543007E+02  0.25870E+05
 0.80593002E+02  0.26033E+05
 0.80643005E+02  0.26151E+05
 0.80693008E+02  0.26232E+05
 0.80743004E+02  0.26314E+05
 0.80793007E+02  0.26334E+05
 0.80843002E+02  0.26262E+05
 0.80893005E+02  0.26151E+05
 0.80943008E+02  0.26168E+05
 0.80993004E+02  0.26144E+05
 0.81043007E+02  0.26071E+05
 0.81093002E+02  0.25930E+05
 0.81143005E+02  0.25882E+05
 0.81193008E+02  0.25938E+05
 0.81243004E+02  0.26005E+05
 0.81293007E+02  0.26054E+05
 0.81343002E+02  0.26078E+05
 0.81393005E+02  0.26069E+05
 0.81443008E+02  0.25975E+05
 0.81493004E+02  0.25802E+05
 0.81543007E+02  0.25571E+05
 0.81593002E+02  0.25415E+05
 0.81643005E+02  0.25415E+05
 0.81693008E+02  0.25560E+05
 0.81743004E+02  0.25694E+05
 0.81793007E+02  0.25833E+05
 0.81843002E+02  0.25878E+05
 0.81893005E+02  0.25901E+05
 0.81943008E+02  0.25892E+05
 0.81993004E+02  0.25956E+05
 0.82043007E+02  0.26076E+05
 0.82093002E+02  0.26130E+05
 0.82143005E+02  0.26119E+05
 0.82193008E+02  0.26147E+05
 0.82243004E+02  0.26296E+05
 0.82293007E+02  0.26339E+05
 0.82343002E+02  0.26364E+05
 0.82393005E+02  0.26307E+05
 0.82443008E+02  0.26195E+05
 0.82493004E+02  0.26045E+05
 0.82543007E+02  0.25876E+05
 0.82593002E+02  0.25679E+05
 0.82643005E+02  0.25634E+05
 0.82693008E+02  0.25596E+05
 0.82743004E+02  0.25792E+05
 0.82793007E+02  0.26025E+05
 0.82843002E+02  0.26290E+05
 0.82893005E+02  0.26382E+05
 0.82943008E+02  0.26287E+05
 0.82993004E+02  0.26077E+05
 0.83043007E+02  0.25895E+05
 0.83093002E+02  0.25807E+05
 0.83143005E+02  0.25776E+05
 0.83193008E+02  0.25797E+05
 0.83243004E+02  0.25822E+05
 0.83293007E+02  0.25853E+05
 0.83343002E+02  0.25880E+05
 0.83393005E+02  0.25959E+05
 0.83443008E+02  0.25913E+05
 0.83493004E+02  0.25833E+05
 0.83543007E+02  0.25747E+05
 0.83593002E+02  0.25664E+05
 0.83643005E+02  0.25639E+05
 0.83693008E+02  0.25646E+05
 0.83743004E+02  0.25831E+05
 0.83793007E+02  0.26106E+05
 0.83843002E+02  0.26364E+05
 0.83893005E+02  0.26450E+05
 0.83943008E+02  0.26490E+05
 0.83993004E+02  0.26427E+05
 0.84043007E+02  0.26380E+05
 0.84093002E+02  0.26210E+05
 0.84143005E+02  0.26077E+05
 0.84193008E+02  0.25898E+05
 0.84243004E+02  0.25786E+05
 0.84293007E+02  0.25661E+05
 0.84343002E+02  0.25565E+05
 0.84393005E+02  0.25476E+05
 0.84443008E+02  0.25502E+05
 0.84493004E+02  0.25669E+05
 0.84543007E+02  0.25911E+05
 0.84593002E+02  0.26115E+05
 0.84643005E+02  0.26198E+05
 0.84693008E+02  0.26245E+05
 0.84743004E+02  0.26192E+05
 0.84793007E+02  0.26123E+05
 0.84843002E+02  0.26055E+05
 0.84893005E+02  0.26029E+05
 0.84943008E+02  0.25981E+05
 0.84993004E+02  0.25823E+05
 0.85043007E+02  0.25660E+05
 0.85093002E+02  0.25585E+05
 0.85143005E+02  0.25611E+05
 0.85193008E+02  0.25651E+05
 0.85243004E+02  0.25784E+05
 0.85293007E+02  0.25910E+05
 0.85343002E+02  0.26053E+05
 0.85393005E+02  0.26129E+05
 0.85443008E+02  0.26233E+05
 0.85493004E+02  0.26253E+05
 0.85543007E+02  0.26273E+05
 0.85593002E+02  0.26135E+05
 0.85643005E+02  0.26003E+05
 0.85693008E+02  0.25815E+05
 0.85743004E+02  0.25760E+05
 0.85793007E+02  0.25779E+05
 0.85843002E+02  0.25879E+05
 0.85893005E+02  0.25883E+05
 0.85943008E+02  0.25910E+05
 0.85993004E+02  0.25979E+05
 0.86043007E+02  0.26089E+05
 0.86093002E+02  0.26103E+05
 0.86143005E+02  0.26137E+05
 0.86193008E+02  0.26139E+05
 0.86243004E+02  0.26129E+05
 0.86293007E+02  0.26103E+05
 0.86343002E+02  0.26101E+05
 0.86393005E+02  0.26037E+05
 0.86443008E+02  0.25998E+05
 0.86493004E+02  0.25899E+05
 0.86543007E+02  0.25829E+05
 0.86593002E+02  0.25718E+05
 0.86643005E+02  0.25641E+05
 0.86693008E+02  0.25627E+05
 0.86743004E+02  0.25757E+05
 0.86793007E+02  0.25970E+05
 0.86843002E+02  0.26108E+05
 0.86893005E+02  0.26201E+05
 0.86943008E+02  0.26192E+05
 0.86993004E+02  0.26250E+05
 0.87043007E+02  0.26206E+05
 0.87093002E+02  0.26154E+05
 0.87143005E+02  0.25987E+05
 0.87193008E+02  0.25865E+05
 0.87243004E+02  0.25780E+05
 0.87293007E+02  0.25827E+05
 0.87343002E+02  0.25915E+05
 0.87393005E+02  0.25992E+05
 0.87443008E+02  0.25941E+05
 0.87493004E+02  0.25891E+05
 0.87543007E+02  0.25804E+05
 0.87593002E+02  0.25802E+05
 0.87643005E+02  0.25767E+05
 0.87693008E+02  0.25795E+05
 0.87743004E+02  0.25848E+05
 0.87793007E+02  0.25959E+05
 0.87843002E+02  0.26012E+05
 0.87893005E+02  0.26009E+05
 0.87943008E+02  0.26067E+05
 0.87993004E+02  0.26110E+05
 0.88043007E+02  0.26111E+05
 0.88093002E+02  0.26086E+05
 0.88143005E+02  0.26075E+05
 0.88193008E+02  0.26093E+05
 0.88243004E+02  0.26044E+05
 0.88293007E+02  0.25905E+05
 0.88343002E+02  0.25844E+05
 0.88393005E+02  0.25855E+05
 0.88443008E+02  0.25880E+05
 0.88493004E+02  0.25858E+05
 0.88543007E+02  0.25866E+05
 0.88593002E+02  0.25854E+05
 0.88643005E+02  0.25885E+05
 0.88693008E+02  0.25898E+05
 0.88743004E+02  0.25932E+05
 0.88793007E+02  0.25897E+05
 0.88843002E+02  0.25951E+05
 0.88893005E+02  0.25957E+05
 0.88943008E+02  0.25998E+05
 0.88993004E+02  0.25968E+05
 0.89043007E+02  0.25972E+05
 0.89093002E+02  0.25902E+05
 0.89143005E+02  0.25933E+05
 0.89193008E+02  0.25917E+05
 0.89243004E+02  0.25999E+05
 0.89293007E+02  0.26031E+05
 0.89343002E+02  0.26042E+05
 0.89393005E+02  0.25934E+05
 0.89443008E+02  0.25943E+05
 0.89493004E+02  0.25966E+05
 0.89543007E+02  0.25970E+05
 0.89593002E+02  0.25907E+05
 0.89643005E+02  0.25931E+05
 0.89693008E+02  0.25911E+05
 0.89743004E+02  0.25980E+05
 0.89793007E+02  0.26046E+05
 0.89843002E+02  0.26191E+05
 0.89893005E+02  0.26249E+05
 0.89943008E+02  0.26247E+05
 0.89993004E+02  0.26151E+05
 0.90043007E+02  0.26100E+05
 0.90093002E+02  0.26005E+05
 0.90143005E+02  0.25918E+05
 0.90193008E+02  0.25824E+05
 0.90243004E+02  0.25788E+05
 0.90293007E+02  0.25800E+05
 0.90343002E+02  0.25901E+05
 0.90393005E+02  0.25972E+05
 0.90443008E+02  0.25936E+05
 0.90493004E+02  0.25893E+05
 0.90543007E+02  0.25832E+05
 0.90593002E+02  0.25828E+05
 0.90643005E+02  0.25774E+05
 0.90693008E+02  0.25827E+05
 0.90743004E+02  0.25839E+05
 0.90793007E+02  0.25919E+05
 0.90843002E+02  0.25954E+05
 0.90893005E+02  0.26024E+05
 0.90943008E+02  0.26022E+05
 0.90993004E+02  0.26016E+05
 0.91043007E+02  0.26002E+05
 0.91093002E+02  0.26009E+05
 0.91143005E+02  0.25957E+05
 0.91193008E+02  0.25942E+05
 0.91243004E+02  0.25960E+05
 0.91293007E+02  0.25995E+05
 0.91343002E+02  0.26058E+05
 0.91393005E+02  0.26031E+05
 0.91443008E+02  0.26040E+05
 0.91493004E+02  0.25998E+05
 0.91543007E+02  0.25974E+05
 0.91593002E+02  0.25924E+05
 0.91643005E+02  0.25934E+05
 0.91693008E+02  0.25963E+05
 0.91743004E+02  0.26005E+05
 0.91793007E+02  0.25963E+05
 0.91843002E+02  0.25855E+05
 0.91893005E+02  0.25807E+05
 0.91943008E+02  0.25744E+05
 0.91993004E+02  0.25817E+05
 0.92043007E+02  0.25869E+05
 0.92093002E+02  0.25982E+05
 0.92143005E+02  0.26021E+05
 0.92193008E+02  0.26070E+05
 0.92243004E+02  0.26058E+05
 0.92293007E+02  0.26070E+05
 0.92343002E+02  0.26013E+05
 0.92393005E+02  0.26026E+05
 0.92443008E+02  0.25981E+05
 0.92493004E+02  0.26006E+05
 0.92543007E+02  0.26026E+05
 0.92593002E+02  0.26140E+05
 0.92643005E+02  0.26119E+05
 0.92693008E+02  0.26079E+05
 0.92743004E+02  0.25997E+05
 0.92793007E+02  0.25979E+05
 0.92843002E+02  0.25910E+05
 0.92893005E+02  0.25849E+05
 0.92943008E+02  0.25785E+05
 0.92993004E+02  0.25797E+05
 0.93043007E+02  0.25801E+05
 0.93093002E+02  0.25823E+05
 0.93143005E+02  0.25829E+05
 0.93193008E+02  0.25996E+05
 0.93243004E+02  0.26025E+05
 0.93293007E+02  0.26076E+05
 0.93343002E+02  0.26023E+05
 0.93393005E+02  0.26075E+05
 0.93443008E+02  0.26076E+05
 0.93493004E+02  0.26155E+05
 0.93543007E+02  0.26125E+05
 0.93593002E+02  0.26095E+05
 0.93643005E+02  0.25946E+05
 0.93693008E+02  0.25843E+05
 0.93743004E+02  0.25728E+05
 0.93793007E+02  0.25724E+05
 0.93843002E+02  0.25784E+05
 0.93893005E+02  0.25915E+05
 0.93943008E+02  0.25971E+05
 0.93993004E+02  0.26045E+05
 0.94043007E+02  0.26023E+05
 0.94093002E+02  0.26042E+05
 0.94143005E+02  0.26009E+05
 0.94193008E+02  0.26094E+05
 0.94243004E+02  0.26133E+05
 0.94293007E+02  0.26239E+05
 0.94343002E+02  0.26218E+05
 0.94393005E+02  0.26132E+05
 0.94443008E+02  0.25909E+05
 0.94493004E+02  0.25780E+05
 0.94543007E+02  0.25707E+05
 0.94593002E+02  0.25761E+05
 0.94643005E+02  0.25776E+05
 0.94693008E+02  0.25801E+05
 0.94743004E+02  0.25803E+05
 0.94793007E+02  0.25870E+05
 0.94843002E+02  0.25913E+05
 0.94893005E+02  0.25978E+05
 0.94943008E+02  0.26006E+05
 0.94993004E+02  0.26000E+05
 0.95043007E+02  0.25916E+05
 0.95093002E+02  0.25889E+05
 0.95143005E+02  0.25901E+05
 0.95193008E+02  0.25944E+05
 0.95243004E+02  0.25978E+05
 0.95293007E+02  0.25949E+05
 0.95343002E+02  0.25920E+05
 0.95393005E+02  0.25934E+05
 0.95443008E+02  0.25947E+05
 0.95493004E+02  0.25963E+05
 0.95543007E+02  0.25976E+05
 0.95593002E+02  0.26005E+05
 0.95643005E+02  0.25995E+05
 0.95693008E+02  0.26023E+05
 0.95743004E+02  0.25982E+05
 0.95793007E+02  0.25974E+05
 0.95843002E+02  0.25930E+05
 0.95893005E+02  0.25963E+05
 0.95943008E+02  0.25996E+05
 0.95993004E+02  0.26076E+05
 0.96043007E+02  0.26159E+05
 0.96093002E+02  0.26188E+05
 0.96143005E+02  0.26208E+05
 0.96193008E+02  0.26067E+05
 0.96243004E+02  0.25955E+05
 0.96293007E+02  0.25821E+05
 0.96343002E+02  0.25820E+05
 0.96393005E+02  0.25770E+05
 0.96443008E+02  0.25826E+05
 0.96493004E+02  0.25832E+05
 0.96543007E+02  0.25904E+05
 0.96593002E+02  0.25867E+05
 0.96643005E+02  0.25861E+05
 0.96693008E+02  0.25793E+05
 0.96743004E+02  0.25823E+05
 0.96793007E+02  0.25827E+05
 0.96843002E+02  0.25918E+05
 0.96893005E+02  0.26003E+05
 0.96943008E+02  0.26091E+05
 0.96993004E+02  0.26101E+05
 0.97043007E+02  0.26121E+05
 0.97093002E+02  0.26185E+05
 0.97143005E+02  0.26171E+05
 0.97193008E+02  0.26209E+05
 0.97243004E+02  0.26152E+05
 0.97293007E+02  0.26100E+05
 0.97343002E+02  0.25957E+05
 0.97393005E+02  0.25918E+05
 0.97443008E+02  0.25899E+05
 0.97493004E+02  0.25930E+05
 0.97543007E+02  0.25816E+05
 0.97593002E+02  0.25763E+05
 0.97643005E+02  0.25699E+05
 0.97693008E+02  0.25741E+05
 0.97743004E+02  0.25767E+05
 0.97793007E+02  0.25900E+05
 0.97843002E+02  0.25980E+05
 0.97893005E+02  0.26052E+05
 0.97943008E+02  0.26056E+05
 0.97993004E+02  0.26110E+05
 0.98043007E+02  0.26009E+05
 0.98093002E+02  0.25933E+05
 0.98143005E+02  0.25811E+05
 0.98193008E+02  0.25853E+05
 0.98243004E+02  0.25875E+05
 0.98293007E+02  0.25999E+05
 0.98343002E+02  0.26036E+05
 0.98393005E+02  0.26137E+05
 0.98443008E+02  0.26146E+05
 0.98493004E+02  0.26204E+05
 0.98543007E+02  0.26196E+05
 0.98593002E+02  0.26163E+05
 0.98643005E+02  0.26049E+05
 0.98693008E+02  0.26002E+05
 0.98743004E+02  0.25872E+05
 0.98793007E+02  0.25897E+05
 0.98843002E+02  0.25889E+05
 0.98893005E+02  0.25930E+05
 0.98943008E+02  0.25898E+05
 0.98993004E+02  0.25920E+05
 0.99043007E+02  0.25873E+05
 0.99093002E+02  0.25900E+05
 0.99143005E+02  0.25876E+05
 0.99193008E+02  0.25899E+05
 0.99243004E+02  0.25873E+05
 0.99293007E+02  0.25891E+05
 0.99343002E+02  0.25824E+05
 0.99393005E+02  0.25791E+05
 0.99443008E+02  0.25773E+05
 0.99493004E+02  0.25796E+05
 0.99543007E+02  0.25801E+05
 0.99593002E+02  0.25873E+05
 0.99643005E+02  0.25859E+05
 0.99693008E+02  0.25932E+05
 0.99743004E+02  0.25878E+05
 0.99793007E+02  0.25896E+05
 0.99843002E+02  0.25856E+05
 0.99893005E+02  0.25923E+05
 0.99943008E+02  0.25984E+05
 0.99993004E+02  0.26138E+05
 0.10004301E+03  0.26174E+05
 0.10009300E+03  0.26216E+05
 0.10014301E+03  0.26144E+05
 0.10019301E+03  0.26158E+05
 0.10024300E+03  0.26091E+05
 0.10029301E+03  0.26067E+05
 0.10034300E+03  0.25985E+05
 0.10039301E+03  0.26001E+05
 0.10044301E+03  0.26025E+05
 0.10049300E+03  0.26086E+05
 0.10054301E+03  0.26096E+05
 0.10059300E+03  0.26111E+05
 0.10064301E+03  0.26098E+05
 0.10069301E+03  0.26073E+05
 0.10074300E+03  0.25982E+05
 0.10079301E+03  0.25969E+05
 0.10084300E+03  0.25930E+05
 0.10089301E+03  0.25873E+05
 0.10094301E+03  0.25783E+05
 0.10099300E+03  0.25719E+05
 0.10104301E+03  0.25662E+05
 0.10109300E+03  0.25668E+05
 0.10114301E+03  0.25720E+05
 0.10119301E+03  0.25842E+05
 0.10124300E+03  0.25935E+05
 0.10129301E+03  0.25979E+05
 0.10134300E+03  0.25958E+05
 0.10139301E+03  0.25970E+05
 0.10144301E+03  0.25998E+05
 0.10149300E+03  0.26006E+05
 0.10154301E+03  0.26054E+05
 0.10159300E+03  0.26082E+05
 0.10164301E+03  0.26138E+05
 0.10169301E+03  0.26079E+05
 0.10174300E+03  0.26030E+05
 0.10179301E+03  0.26045E+05
 0.10184300E+03  0.26134E+05
 0.10189301E+03  0.26138E+05
 0.10194301E+03  0.26107E+05
 0.10199300E+03  0.25970E+05
 0.10204301E+03  0.25907E+05
 0.10209300E+03  0.25831E+05
 0.10214301E+03  0.25856E+05
 0.10219301E+03  0.25786E+05
 0.10224300E+03  0.25834E+05
 0.10229301E+03  0.25791E+05
 0.10234300E+03  0.25871E+05
 0.10239301E+03  0.25853E+05
 0.10244301E+03  0.25913E+05
 0.10249300E+03  0.25820E+05
 0.10254301E+03  0.25849E+05
 0.10259300E+03  0.25860E+05
 0.10264301E+03  0.25964E+05
 0.10269301E+03  0.25993E+05
 0.10274300E+03  0.26035E+05
 0.10279301E+03  0.26020E+05
 0.10284300E+03  0.26027E+05
 0.10289301E+03  0.26006E+05
 0.10294301E+03  0.26007E+05
 0.10299300E+03  0.26047E+05
 0.10304301E+03  0.26097E+05
 0.10309300E+03  0.26178E+05
 0.10314301E+03  0.26177E+05
 0.10319301E+03  0.26173E+05
 0.10324300E+03  0.26093E+05
 0.10329301E+03  0.26075E+05
 0.10334300E+03  0.26045E+05
 0.10339301E+03  0.26041E+05
 0.10344301E+03  0.26008E+05
 0.10349300E+03  0.26021E+05
 0.10354301E+03  0.26031E+05
 0.10359300E+03  0.26084E+05
 0.10364301E+03  0.26000E+05
 0.10369301E+03  0.25935E+05
 0.10374300E+03  0.25819E+05
 0.10379301E+03  0.25801E+05
 0.10384300E+03  0.25744E+05
 0.10389301E+03  0.25804E+05
 0.10394301E+03  0.25848E+05
 0.10399300E+03  0.25899E+05
 0.10404301E+03  0.25844E+05
 0.10409300E+03  0.25810E+05
 0.10414301E+03  0.25778E+05
 0.10419301E+03  0.25827E+05
 0.10424300E+03  0.25860E+05
 0.10429301E+03  0.25913E+05
 0.10434300E+03  0.25919E+05
 0.10439301E+03  0.25968E+05
 0.10444301E+03  0.25932E+05
 0.10449300E+03  0.25966E+05
 0.10454301E+03  0.25950E+05
 0.10459300E+03  0.25943E+05
 0.10464301E+03  0.25865E+05
 0.10469301E+03  0.25885E+05
 0.10474300E+03  0.25895E+05
 0.10479301E+03  0.25975E+05
 0.10484300E+03  0.26011E+05
 0.10489301E+03  0.26065E+05
 0.10494301E+03  0.26009E+05
 0.10499300E+03  0.26007E+05
 0.10504301E+03  0.25955E+05
 0.10509300E+03  0.26027E+05
 0.10514301E+03  0.26065E+05
 0.10519301E+03  0.26117E+05
 0.10524300E+03  0.26054E+05
 0.10529301E+03  0.26018E+05
 0.10534300E+03  0.25916E+05
 0.10539301E+03  0.25940E+05
 0.10544301E+03  0.25950E+05
 0.10549300E+03  0.26014E+05
 0.10554301E+03  0.25990E+05
 0.10559300E+03  0.26034E+05
 0.10564301E+03  0.25968E+05
 0.10569301E+03  0.25979E+05
 0.10574300E+03  0.25947E+05
 0.10579301E+03  0.25958E+05
 0.10584300E+03  0.25883E+05
 0.10589301E+03  0.25826E+05
 0.10594301E+03  0.25758E+05
 0.10599300E+03  0.25795E+05
 0.10604301E+03  0.25822E+05
 0.10609300E+03  0.25795E+05
 0.10614301E+03  0.25834E+05
 0.10619301E+03  0.25824E+05
 0.10624300E+03  0.25887E+05
 0.10629301E+03  0.25899E+05
 0.10634300E+03  0.26037E+05
 0.10639301E+03  0.26084E+05
 0.10644301E+03  0.26163E+05
 0.10649300E+03  0.26150E+05
 0.10654301E+03  0.26147E+05
 0.10659300E+03  0.26110E+05
 0.10664301E+03  0.26159E+05
 0.10669301E+03  0.26098E+05
 0.10674300E+03  0.26128E+05
 0.10679301E+03  0.26051E+05
 0.10684300E+03  0.26048E+05
 0.10689301E+03  0.25971E+05
 0.10694301E+03  0.26011E+05
 0.10699300E+03  0.25944E+05
 0.10704301E+03  0.26001E+05
 0.10709300E+03  0.25961E+05
 0.10714301E+03  0.26022E+05
 0.10719301E+03  0.25987E+05
 0.10724300E+03  0.25976E+05
 0.10729301E+03  0.25914E+05
 0.10734300E+03  0.25893E+05
 0.10739301E+03  0.25904E+05
 0.10744301E+03  0.25880E+05
 0.10749300E+03  0.25882E+05
 0.10754301E+03  0.25810E+05
 0.10759300E+03  0.25801E+05
 0.10764301E+03  0.25780E+05
 0.10769301E+03  0.25825E+05
 0.10774300E+03  0.25803E+05
 0.10779301E+03  0.25862E+05
 0.10784300E+03  0.25869E+05
 0.10789301E+03  0.25901E+05
 0.10794301E+03  0.25890E+05
 0.10799300E+03  0.25984E+05
 0.10804301E+03  0.26008E+05
 0.10809300E+03  0.26062E+05
 0.10814301E+03  0.26010E+05
 0.10819301E+03  0.26020E+05
 0.10824300E+03  0.26006E+05
 0.10829301E+03  0.26063E+05
 0.10834300E+03  0.26044E+05
 0.10839301E+03  0.26056E+05
 0.10844301E+03  0.26054E+05
 0.10849300E+03  0.26023E+05
 0.10854301E+03  0.25981E+05
 0.10859300E+03  0.25975E+05
 0.10864301E+03  0.26019E+05
 0.10869301E+03  0.25947E+05
 0.10874300E+03  0.25975E+05
 0.10879301E+03  0.25932E+05
 0.10884300E+03  0.26008E+05
 0.10889301E+03  0.25984E+05
 0.10894301E+03  0.26047E+05
 0.10899300E+03  0.25998E+05
 0.10904301E+03  0.25977E+05
 0.10909300E+03  0.25849E+05
 0.10914301E+03  0.25799E+05
 0.10919301E+03  0.25737E+05
 0.10924300E+03  0.25753E+05
 0.10929301E+03  0.25748E+05
 0.10934300E+03  0.25802E+05
 0.10939301E+03  0.25791E+05
 0.10944301E+03  0.25814E+05
 0.10949300E+03  0.25888E+05
 0.10954301E+03  0.25965E+05
 0.10959300E+03  0.26058E+05
 0.10964301E+03  0.26100E+05
 0.10969301E+03  0.26102E+05
 0.10974300E+03  0.26108E+05
 0.10979301E+03  0.26142E+05
 0.10984300E+03  0.26094E+05
 0.10989301E+03  0.26081E+05
 0.10994301E+03  0.26035E+05
 0.10999300E+03  0.26022E+05
 0.11004301E+03  0.25947E+05
 0.11009300E+03  0.25978E+05
 0.11014301E+03  0.25996E+05
 0.11019301E+03  0.26076E+05
 0.11024300E+03  0.26062E+05
 0.11029301E+03  0.26065E+05
 0.11034300E+03  0.26050E+05
 0.11039301E+03  0.26018E+05
 0.11044301E+03  0.25909E+05
 0.11049300E+03  0.25805E+05
 0.11054301E+03  0.25769E+05
 0.11059300E+03  0.25735E+05
 0.11064301E+03  0.25765E+05
 0.11069301E+03  0.25790E+05
 0.11074300E+03  0.25955E+05
 0.11079301E+03  0.26040E+05
 0.11084300E+03  0.26118E+05
 0.11089301E+03  0.26085E+05
 0.11094301E+03  0.26090E+05
 0.11099300E+03  0.26020E+05
 0.11104301E+03  0.26017E+05
 0.11109300E+03  0.25960E+05
 0.11114301E+03  0.25997E+05
 0.11119301E+03  0.25874E+05
 0.11124300E+03  0.25789E+05
 0.11129301E+03  0.25704E+05
 0.11134300E+03  0.25773E+05
 0.11139301E+03  0.25795E+05
 0.11144301E+03  0.25950E+05
 0.11149300E+03  0.25956E+05
 0.11154301E+03  0.26013E+05
 0.11159300E+03  0.25991E+05
 0.11164301E+03  0.26075E+05
 0.11169301E+03  0.26077E+05
 0.11174300E+03  0.26155E+05
 0.11179301E+03  0.26130E+05
 0.11184300E+03  0.26136E+05
 0.11189301E+03  0.26074E+05
 0.11194301E+03  0.26084E+05
 0.11199300E+03  0.26068E+05
 0.11204301E+03  0.26031E+05
 0.11209300E+03  0.26027E+05
 0.11214301E+03  0.25971E+05
 0.11219301E+03  0.25903E+05
 0.11224300E+03  0.25942E+05
 0.11229301E+03  0.25946E+05
 0.11234300E+03  0.25902E+05
 0.11239301E+03  0.25913E+05
 0.11244301E+03  0.25912E+05
 0.11249300E+03  0.25910E+05
 0.11254301E+03  0.25874E+05
 0.11259300E+03  0.25927E+05
 0.11264301E+03  0.25934E+05
 0.11269301E+03  0.25990E+05
 0.11274300E+03  0.25898E+05
 0.11279301E+03  0.25892E+05
 0.11284300E+03  0.25865E+05
 0.11289301E+03  0.25881E+05
 0.11294301E+03  0.25885E+05
 0.11299300E+03  0.25923E+05
 0.11304301E+03  0.25866E+05
 0.11309300E+03  0.25877E+05
 0.11314301E+03  0.25883E+05
 0.11319301E+03  0.25947E+05
 0.11324300E+03  0.25978E+05
 0.11329301E+03  0.26043E+05
 0.11334300E+03  0.26016E+05
 0.11339301E+03  0.26002E+05
 0.11344301E+03  0.25971E+05
 0.11349300E+03  0.26027E+05
 0.11354301E+03  0.25979E+05
 0.11359300E+03  0.25955E+05
 0.11364301E+03  0.25946E+05
 0.11369301E+03  0.25944E+05
 0.11374300E+03  0.25963E+05
 0.11379301E+03  0.25997E+05
 0.11384300E+03  0.26027E+05
 0.11389301E+03  0.26006E+05
 0.11394301E+03  0.26032E+05
 0.11399300E+03  0.26006E+05
 0.11404301E+03  0.26092E+05
 0.11409300E+03  0.26052E+05
 0.11414301E+03  0.26097E+05
 0.11419301E+03  0.26052E+05
 0.11424300E+03  0.26075E+05
 0.11429301E+03  0.25956E+05
 0.11434300E+03  0.25899E+05
 0.11439301E+03  0.25814E+05
 0.11444301E+03  0.25839E+05
 0.11449300E+03  0.25791E+05
 0.11454301E+03  0.25827E+05
 0.11459300E+03  0.25818E+05
 0.11464301E+03  0.25817E+05
 0.11469301E+03  0.25869E+05
 0.11474300E+03  0.25914E+05
 0.11479301E+03  0.25934E+05
 0.11484300E+03  0.25929E+05
 0.11489301E+03  0.25925E+05
 0.11494301E+03  0.25960E+05
 0.11499300E+03  0.26057E+05
 0.11504301E+03  0.26157E+05
 0.11509300E+03  0.26136E+05
 0.11514301E+03  0.26192E+05
 0.11519301E+03  0.26136E+05
 0.11524300E+03  0.26091E+05
 0.11529301E+03  0.26041E+05
 0.11534300E+03  0.25962E+05
 0.11539301E+03  0.25953E+05
 0.11544301E+03  0.25997E+05
 0.11549300E+03  0.25942E+05
 0.11554301E+03  0.25926E+05
 0.11559300E+03  0.25851E+05
 0.11564301E+03  0.25882E+05
 0.11569301E+03  0.25840E+05
 0.11574300E+03  0.25908E+05
 0.11579301E+03  0.25833E+05
 0.11584300E+03  0.25831E+05
 0.11589301E+03  0.25771E+05
 0.11594301E+03  0.25831E+05
 0.11599300E+03  0.25827E+05
 0.11604301E+03  0.25929E+05
 0.11609300E+03  0.25956E+05
 0.11614301E+03  0.26043E+05
 0.11619301E+03  0.26062E+05
 0.11624300E+03  0.26051E+05
 0.11629301E+03  0.25996E+05
 0.11634300E+03  0.25993E+05
 0.11639301E+03  0.25970E+05
 0.11644301E+03  0.25946E+05
 0.11649300E+03  0.25916E+05
 0.11654301E+03  0.25890E+05
 0.11659300E+03  0.25948E+05
 0.11664301E+03  0.25889E+05
 0.11669301E+03  0.25938E+05
 0.11674300E+03  0.25919E+05
 0.11679301E+03  0.25959E+05
 0.11684300E+03  0.25929E+05
 0.11689301E+03  0.26006E+05
 0.11694301E+03  0.26011E+05
 0.11699300E+03  0.26086E+05
 0.11704301E+03  0.26050E+05
 0.11709300E+03  0.26104E+05
 0.11714301E+03  0.26037E+05
 0.11719301E+03  0.26006E+05
 0.11724300E+03  0.26056E+05
 0.11729301E+03  0.26034E+05
 0.11734300E+03  0.26040E+05
 0.11739301E+03  0.26067E+05
 0.11744301E+03  0.25988E+05
 0.11749300E+03  0.25971E+05
 0.11754301E+03  0.25897E+05
 0.11759300E+03  0.25908E+05
 0.11764301E+03  0.25899E+05
 0.11769301E+03  0.25954E+05
 0.11774300E+03  0.25937E+05
 0.11779301E+03  0.25994E+05
 0.11784300E+03  0.25919E+05
 0.11789301E+03  0.25972E+05
 0.11794301E+03  0.25949E+05
 0.11799300E+03  0.25966E+05
 0.11804301E+03  0.25918E+05
 0.11809300E+03  0.25908E+05
 0.11814301E+03  0.25836E+05
 0.11819301E+03  0.25832E+05
 0.11824300E+03  0.25871E+05
 0.11829301E+03  0.25854E+05
 0.11834300E+03  0.25863E+05
 0.11839301E+03  0.25929E+05
 0.11844301E+03  0.25875E+05
 0.11849300E+03  0.25823E+05
 0.11854301E+03  0.25919E+05
 0.11859300E+03  0.25889E+05
 0.11864301E+03  0.25930E+05
 0.11869301E+03  0.26036E+05
 0.11874300E+03  0.26121E+05
 0.11879301E+03  0.26111E+05
 0.11884300E+03  0.26189E+05
 0.11889301E+03  0.26135E+05
 0.11894301E+03  0.26130E+05
 0.11899300E+03  0.25999E+05
 0.11904301E+03  0.25962E+05
 0.11909300E+03  0.25906E+05
 0.11914301E+03  0.25982E+05
 0.11919301E+03  0.25969E+05
 0.11924300E+03  0.26017E+05
 0.11929301E+03  0.25973E+05
 0.11934300E+03  0.25995E+05
 0.11939301E+03  0.25971E+05
 0.11944301E+03  0.25950E+05
 0.11949300E+03  0.25925E+05
 0.11954301E+03  0.25962E+05
 0.11959300E+03  0.25873E+05
 0.11964301E+03  0.25873E+05
 0.11969301E+03  0.25863E+05
 0.11974300E+03  0.25901E+05
 0.11979301E+03  0.25925E+05
 0.11984300E+03  0.26009E+05
 0.11989301E+03  0.26045E+05
 0.11994301E+03  0.26082E+05