 0.00000000E+00 -0.53189E-06
 0.50000001E-01 -0.36799E-06
 0.10000000E+00 -0.22441E-06
 0.15000001E+00 -0.41725E-06
 0.20000000E+00 -0.35211E-06
 0.25000000E+00 -0.20440E-06
 0.30000001E+00 -0.30964E-06
 0.34999999E+00 -0.42228E-06
 0.40000001E+00 -0.23783E-06
 0.45000002E+00 -0.11061E-06
 0.50000000E+00 -0.31291E-06
 0.55000001E+00 -0.26858E-06
 0.60000002E+00 -0.98162E-08
 0.65000004E+00 -0.10657E-06
 0.69999999E+00 -0.22243E-06
 0.75000000E+00  0.10088E-07
 0.80000001E+00  0.43767E-08
 0.85000002E+00 -0.32678E-06
 0.90000004E+00 -0.14759E-06
 0.94999999E+00  0.17777E-06
 0.10000000E+01 -0.17355E-07
 0.10500001E+01  0.90568E-07
 0.11000000E+01  0.39055E-06
 0.11500000E+01  0.28170E-06
 0.12000000E+01  0.51789E-07
 0.12500000E+01  0.13185E-06
 0.13000001E+01  0.33172E-06
 0.13500000E+01  0.97202E-07
 0.14000000E+01  0.26818E-07
 0.14500000E+01  0.20483E-06
 0.15000000E+01  0.93788E-07
 0.15500001E+01 -0.11099E-06
 0.16000000E+01  0.97268E-08
 0.16500000E+01  0.82547E-07
 0.17000000E+01 -0.21598E-06
 0.17500000E+01 -0.12787E-06
 0.18000001E+01 -0.76218E-08
 0.18500000E+01 -0.18702E-06
 0.19000000E+01 -0.26033E-06
 0.19500000E+01 -0.73845E-07
 0.20000000E+01  0.56779E-07
 0.20500000E+01 -0.26880E-06
 0.21000001E+01 -0.20652E-06
 0.21500001E+01  0.13897E-06
 0.22000000E+01  0.44180E-08
 0.22500000E+01 -0.14970E-06
 0.23000000E+01  0.13009E-06
 0.23500001E+01  0.91599E-07
 0.24000001E+01 -0.29942E-06
 0.24500000E+01 -0.34790E-07
 0.25000000E+01  0.12118E-06
 0.25500000E+01 -0.74940E-07
 0.26000001E+01  0.63708E-07
 0.26500001E+01  0.20734E-06
 0.27000000E+01  0.13641E-06
 0.27500000E+01  0.49416E-07
 0.28000000E+01  0.53298E-07
 0.28500001E+01  0.84602E-07
 0.29000001E+01 -0.76511E-07
 0.29500000E+01 -0.10496E-06
 0.30000000E+01  0.14491E-06
 0.30500000E+01 -0.45077E-07
 0.31000001E+01 -0.13530E-06
 0.31500001E+01 -0.12997E-07
 0.32000000E+01 -0.10536E-06
 0.32500000E+01 -0.30507E-06
 0.33000000E+01 -0.48629E-06
 0.33500001E+01 -0.17266E-06
 0.34000001E+01 -0.15622E-06
 0.34500000E+01 -0.22733E-06
 0.35000000E+01  0.17431E-06
 0.35500000E+01  0.18368E-06
 0.36000001E+01 -0.93658E-07
 0.36500001E+01 -0.57789E-07
 0.37000000E+01  0.15189E-06
 0.37500000E+01  0.70494E-07
 0.38000000E+01  0.23921E-06
 0.38500001E+01  0.47332E-06
 0.39000001E+01  0.36013E-06
 0.39500000E+01  0.34898E-06
 0.40000000E+01  0.25779E-06
 0.40500002E+01  0.24097E-06
 0.40999999E+01  0.29865E-06
 0.41500001E+01  0.13599E-06
 0.42000003E+01  0.32243E-06
 0.42500000E+01  0.43138E-06
 0.43000002E+01  0.38890E-07
 0.43499999E+01  0.18884E-06
 0.44000001E+01  0.16546E-06
 0.44500003E+01 -0.10978E-06
 0.45000000E+01 -0.43267E-07
 0.45500002E+01 -0.14734E-06
 0.45999999E+01 -0.17170E-06
 0.46500001E+01 -0.21808E-06
 0.47000003E+01 -0.17175E-06
 0.47500000E+01 -0.96421E-07
 0.48000002E+01 -0.97643E-07
 0.48499999E+01 -0.15678E-06
 0.49000001E+01 -0.23302E-06
 0.49500003E+01 -0.20847E-06
 0.50000000E+01 -0.23071E-06
 0.50500002E+01 -0.74961E-07
 0.50999999E+01  0.38588E-07
 0.51500001E+01 -0.53350E-07
 0.52000003E+01  0.37086E-07
 0.52500000E+01  0.15703E-06
 0.53000002E+01  0.24033E-07
 0.53499999E+01  0.73010E-07
 0.54000001E+01  0.13547E-06
 0.54500003E+01  0.62814E-07
 0.55000000E+01  0.14228E-06
 0.55500002E+01  0.10290E-06
 0.55999999E+01  0.98647E-07
 0.56500001E+01  0.16692E-06
 0.57000003E+01 -0.91660E-07
 0.57500000E+01 -0.23554E-07
 0.58000002E+01 -0.93819E-07
 0.58499999E+01  0.48575E-08
 0.59000001E+01  0.92190E-06
 0.59500003E+01 -0.46197E-06
 0.60000000E+01 -0.16905E-05
 0.60500002E+01  0.13967E-06
 0.60999999E+01  0.61609E-06
 0.61500001E+01 -0.62737E-06
 0.62000003E+01 -0.52541E-06
 0.62500000E+01  0.36632E-06
 0.63000002E+01  0.11067E-06
 0.63499999E+01  0.25605E-06
 0.64000001E+01  0.63296E-06
 0.64500003E+01 -0.51657E-06
 0.65000000E+01 -0.97046E-06
 0.65500002E+01  0.42539E-06
 0.65999999E+01  0.71235E-06
 0.66500001E+01 -0.96077E-06
 0.67000003E+01 -0.50549E-06
 0.67500000E+01  0.30192E-06
 0.68000002E+01 -0.22286E-06
 0.68499999E+01 -0.59077E-07
 0.69000001E+01 -0.45210E-06
 0.69500003E+01 -0.13067E-06
 0.70000000E+01  0.16872E-06
 0.70500002E+01 -0.37585E-06
 0.70999999E+01  0.28115E-07
 0.71500001E+01  0.30149E-06
 0.72000003E+01 -0.13169E-06
 0.72500000E+01 -0.40783E-06
 0.73000002E+01 -0.12956E-06
 0.73499999E+01  0.82308E-06
 0.74000001E+01  0.44251E-06
 0.74500003E+01 -0.54996E-06
 0.75000000E+01  0.52524E-06
 0.75500002E+01  0.32613E-06
 0.75999999E+01 -0.37259E-06
 0.76500001E+01  0.52671E-06
 0.77000003E+01  0.54181E-06
 0.77500000E+01 -0.10126E-07
 0.78000002E+01  0.27499E-07
 0.78499999E+01  0.41730E-06
 0.79000001E+01 -0.14207E-08
 0.79500003E+01 -0.14383E-06
 0.80000000E+01 -0.42857E-07
 0.80500002E+01 -0.42018E-06
 0.81000004E+01  0.13407E-06
 0.81500006E+01  0.63788E-06
 0.81999998E+01  0.63099E-06
 0.82500000E+01  0.80702E-07
 0.83000002E+01 -0.49638E-06
 0.83500004E+01 -0.14480E-07
 0.84000006E+01  0.41541E-06
 0.84499998E+01  0.20585E-06
 0.85000000E+01 -0.15258E-06
 0.85500002E+01  0.10207E-06
 0.86000004E+01  0.16595E-07
 0.86500006E+01 -0.14648E-06
 0.86999998E+01  0.61102E-06
 0.87500000E+01  0.32473E-06
 0.88000002E+01 -0.42215E-06
 0.88500004E+01  0.45279E-06
 0.89000006E+01  0.88082E-06
 0.89499998E+01  0.80221E-07
 0.90000000E+01 -0.71806E-07
 0.90500002E+01 -0.29211E-06
 0.91000004E+01 -0.57414E-06
 0.91500006E+01  0.13124E-06
 0.91999998E+01  0.29687E-06
 0.92500000E+01 -0.37179E-06
 0.93000002E+01 -0.25396E-06
 0.93500004E+01 -0.47367E-06
 0.94000006E+01 -0.30540E-06
 0.94499998E+01 -0.60921E-07
 0.95000000E+01 -0.67445E-06
 0.95500002E+01 -0.28182E-06
 0.96000004E+01 -0.31160E-06
 0.96500006E+01 -0.45460E-06
 0.96999998E+01 -0.51870E-06
 0.97500000E+01 -0.66708E-06
 0.98000002E+01  0.83114E-07
 0.98500004E+01  0.26760E-07
 0.99000006E+01 -0.63655E-06
 0.99499998E+01 -0.61239E-06
 0.10000000E+02  0.33826E-06
 0.10050000E+02  0.34542E-06
 0.10100000E+02 -0.59298E-06
 0.10150001E+02 -0.21030E-06
 0.10200000E+02 -0.45334E-06
 0.10250000E+02 -0.21891E-06
 0.10300000E+02  0.79426E-06
 0.10350000E+02 -0.59852E-08
 0.10400001E+02 -0.49710E-06
 0.10450000E+02  0.64337E-06
 0.10500000E+02  0.13651E-05
 0.10550000E+02  0.47470E-06
 0.10600000E+02  0.31102E-06
 0.10650001E+02  0.12440E-05
 0.10700000E+02  0.62219E-06
 0.10750000E+02 -0.25300E-06
 0.10800000E+02 -0.82199E-06
 0.10850000E+02 -0.10751E-05
 0.10900001E+02  0.77879E-06
 0.10950000E+02  0.15437E-05
 0.11000000E+02  0.27440E-05
 0.11050000E+02  0.18028E-05
 0.11100000E+02 -0.19817E-05
 0.11150001E+02 -0.21709E-05
 0.11200000E+02 -0.20504E-05
 0.11250000E+02  0.96277E-06
 0.11300000E+02  0.33246E-05
 0.11350000E+02  0.51792E-06
 0.11400001E+02 -0.17247E-05
 0.11450000E+02 -0.19998E-05
 0.11500000E+02 -0.64583E-06
 0.11550000E+02  0.16620E-06
 0.11600000E+02  0.54890E-06
 0.11650001E+02  0.69551E-06
 0.11700000E+02  0.59364E-06
 0.11750000E+02 -0.60393E-06
 0.11800000E+02 -0.18263E-05
 0.11850000E+02 -0.77052E-06
 0.11900001E+02 -0.10788E-06
 0.11950000E+02  0.11573E-06
 0.12000000E+02  0.80740E-06
 0.12050000E+02  0.85390E-06
 0.12100000E+02 -0.20577E-06
 0.12150001E+02 -0.11273E-05
 0.12200000E+02 -0.73920E-06
 0.12250000E+02 -0.10888E-06
 0.12300000E+02  0.70765E-06
 0.12350000E+02  0.90462E-06
 0.12400001E+02  0.13468E-06
 0.12450000E+02 -0.43740E-06
 0.12500000E+02 -0.12287E-05
 0.12550000E+02 -0.41930E-06
 0.12600000E+02  0.94182E-06
 0.12650001E+02  0.40889E-06
 0.12700000E+02 -0.90323E-08
 0.12750000E+02 -0.36418E-06
 0.12800000E+02 -0.98531E-06
 0.12850000E+02 -0.56749E-06
 0.12900001E+02  0.12414E-06
 0.12950000E+02 -0.87643E-07
 0.13000000E+02 -0.13241E-06
 0.13050000E+02  0.31031E-06
 0.13100000E+02  0.16581E-06
 0.13150001E+02  0.51043E-06
 0.13200000E+02  0.87375E-06
 0.13250000E+02 -0.25055E-07
 0.13300000E+02 -0.47093E-06
 0.13350000E+02 -0.53193E-06
 0.13400001E+02 -0.47105E-06
 0.13450000E+02  0.78107E-07
 0.13500000E+02  0.10452E-06
 0.13550000E+02  0.20854E-06
 0.13600000E+02  0.14903E-06
 0.13650001E+02 -0.46121E-06
 0.13700000E+02 -0.35473E-06
 0.13750000E+02  0.85751E-07
 0.13800000E+02  0.29899E-06
 0.13850000E+02  0.44738E-06
 0.13900001E+02  0.70137E-06
 0.13950000E+02  0.36112E-06
 0.14000000E+02 -0.35456E-06
 0.14050000E+02 -0.27717E-06
 0.14100000E+02  0.31499E-07
 0.14150001E+02  0.40769E-06
 0.14200000E+02  0.23942E-06
 0.14250000E+02  0.17209E-06
 0.14300000E+02  0.96160E-06
 0.14350000E+02  0.10203E-05
 0.14400001E+02  0.14216E-06
 0.14450000E+02 -0.21816E-08
 0.14500000E+02  0.26566E-06
 0.14550000E+02 -0.37567E-06
 0.14600000E+02  0.24754E-06
 0.14650001E+02  0.92268E-06
 0.14700000E+02  0.67169E-07
 0.14750000E+02 -0.10885E-06
 0.14800000E+02 -0.34777E-07
 0.14850000E+02 -0.11177E-06
 0.14900001E+02 -0.28202E-06
 0.14950000E+02  0.10881E-06
 0.15000000E+02  0.67914E-06
 0.15050000E+02 -0.91634E-07
 0.15100000E+02 -0.59389E-06
 0.15150001E+02 -0.25983E-06
 0.15200000E+02 -0.38877E-06
 0.15250000E+02 -0.22384E-06
 0.15300000E+02 -0.26301E-06
 0.15350000E+02 -0.69090E-06
 0.15400001E+02  0.21928E-06
 0.15450000E+02  0.43535E-06
 0.15500000E+02 -0.36611E-06
 0.15550000E+02 -0.26771E-06
 0.15600000E+02 -0.92713E-07
 0.15650001E+02 -0.26963E-06
 0.15700000E+02 -0.32706E-06
 0.15750000E+02 -0.74125E-07
 0.15800000E+02  0.22389E-06
 0.15850000E+02  0.22519E-06
 0.15900001E+02 -0.17649E-06
 0.15950000E+02 -0.39193E-06
 0.16000000E+02 -0.26058E-06
 0.16050001E+02 -0.94300E-07
 0.16100000E+02 -0.34160E-06
 0.16150000E+02 -0.37984E-06
 0.16200001E+02  0.15824E-06
 0.16250000E+02  0.11766E-06
 0.16300001E+02 -0.61540E-06
 0.16350000E+02 -0.12691E-05
 0.16400000E+02  0.77752E-06
 0.16450001E+02  0.99528E-06
 0.16500000E+02 -0.15571E-05
 0.16550001E+02  0.24068E-06
 0.16600000E+02  0.66913E-06
 0.16650000E+02 -0.73919E-06
 0.16700001E+02  0.43711E-06
 0.16750000E+02  0.38630E-06
 0.16800001E+02 -0.15932E-07
 0.16850000E+02  0.95259E-07
 0.16900000E+02  0.40460E-06
 0.16950001E+02  0.86327E-06
 0.17000000E+02  0.17157E-06
 0.17050001E+02 -0.14836E-06
 0.17100000E+02  0.26047E-06
 0.17150000E+02  0.40374E-06
 0.17200001E+02  0.52938E-06
 0.17250000E+02  0.24920E-06
 0.17300001E+02  0.23533E-06
 0.17350000E+02  0.24700E-06
 0.17400000E+02 -0.53048E-07
 0.17450001E+02  0.40289E-06
 0.17500000E+02  0.37016E-06
 0.17550001E+02 -0.38959E-06
 0.17600000E+02 -0.49424E-06
 0.17650000E+02 -0.17922E-06
 0.17700001E+02 -0.20592E-06
 0.17750000E+02 -0.25869E-06
 0.17800001E+02  0.33749E-07
 0.17850000E+02  0.12380E-07
 0.17900000E+02 -0.44658E-06
 0.17950001E+02 -0.31299E-06
 0.18000000E+02 -0.24163E-06
 0.18050001E+02 -0.57616E-06
 0.18100000E+02 -0.27980E-06
 0.18150000E+02 -0.18818E-06
 0.18200001E+02 -0.27342E-06
 0.18250000E+02 -0.19538E-06
 0.18300001E+02 -0.16782E-06
 0.18350000E+02  0.17363E-07
 0.18400000E+02 -0.11731E-06
 0.18450001E+02 -0.77144E-07
 0.18500000E+02  0.74469E-07
 0.18550001E+02 -0.18688E-06
 0.18600000E+02  0.15314E-06
 0.18650000E+02  0.39328E-06
 0.18700001E+02 -0.35478E-07
 0.18750000E+02  0.13282E-06
 0.18800001E+02  0.44013E-06
 0.18850000E+02  0.56749E-06
 0.18900000E+02  0.62777E-06
 0.18950001E+02  0.52053E-06
 0.19000000E+02  0.52323E-06
 0.19050001E+02  0.30981E-06
 0.19100000E+02  0.38568E-07
 0.19150000E+02  0.81728E-07
 0.19200001E+02  0.28742E-06
 0.19250000E+02  0.13530E-06
 0.19300001E+02  0.24320E-07
 0.19350000E+02  0.29234E-06
 0.19400000E+02  0.16197E-06
 0.19450001E+02  0.84446E-07
 0.19500000E+02  0.23161E-06
 0.19550001E+02 -0.11523E-06
 0.19600000E+02 -0.42389E-06
 0.19650000E+02 -0.38030E-06
 0.19700001E+02 -0.32053E-06
 0.19750000E+02 -0.75684E-07
 0.19800001E+02 -0.70418E-07
 0.19850000E+02 -0.18104E-06
 0.19900000E+02 -0.15952E-07
 0.19950001E+02 -0.14556E-06
 0.20000000E+02 -0.13170E-06
 0.20050001E+02 -0.93140E-07
 0.20100000E+02 -0.34607E-06
 0.20150000E+02 -0.34173E-06
 0.20200001E+02 -0.13965E-06
 0.20250000E+02 -0.13630E-06
 0.20300001E+02 -0.28487E-06
 0.20350000E+02 -0.22998E-06
 0.20400000E+02 -0.71913E-07
 0.20450001E+02 -0.23318E-07
 0.20500000E+02 -0.10866E-06
 0.20550001E+02  0.10883E-06
 0.20600000E+02  0.11865E-06
 0.20650000E+02 -0.23210E-06
 0.20700001E+02 -0.51556E-09
 0.20750000E+02  0.15314E-06
 0.20800001E+02 -0.18322E-06
 0.20850000E+02 -0.16784E-06
 0.20900000E+02  0.18903E-06
 0.20950001E+02  0.23087E-06
 0.21000000E+02  0.16393E-07
 0.21050001E+02  0.72282E-07
 0.21100000E+02  0.25762E-06
 0.21150000E+02  0.13048E-06
 0.21200001E+02  0.48639E-07
 0.21250000E+02  0.15156E-07
 0.21300001E+02 -0.22521E-06
 0.21350000E+02 -0.18052E-06
 0.21400000E+02  0.75229E-07
 0.21450001E+02  0.11482E-06
 0.21500000E+02  0.90261E-07
 0.21550001E+02  0.72348E-07
 0.21600000E+02  0.21951E-07
 0.21650000E+02 -0.14961E-06
 0.21700001E+02 -0.22471E-06
 0.21750000E+02  0.13764E-07
 0.21800001E+02  0.11723E-06
 0.21850000E+02 -0.15492E-07
 0.21900000E+02  0.45745E-07
 0.21950001E+02  0.30538E-06
 0.22000000E+02  0.96036E-07
 0.22050001E+02 -0.16942E-06
 0.22100000E+02  0.78737E-07
 0.22150000E+02 -0.66301E-07
 0.22200001E+02 -0.37294E-06
 0.22250000E+02 -0.10175E-06
 0.22300001E+02  0.93076E-07
 0.22350000E+02  0.47617E-07
 0.22400000E+02 -0.92291E-07
 0.22450001E+02 -0.12242E-06
 0.22500000E+02 -0.71546E-08
 0.22550001E+02 -0.25853E-06
 0.22600000E+02 -0.28442E-06
 0.22650000E+02 -0.27401E-07
 0.22700001E+02 -0.44939E-07
 0.22750000E+02 -0.93311E-07
 0.22800001E+02  0.95743E-07
 0.22850000E+02  0.13165E-06
 0.22900000E+02 -0.10794E-06
 0.22950001E+02 -0.19977E-07
 0.23000000E+02  0.19207E-06
 0.23050001E+02  0.17897E-06
 0.23100000E+02  0.11037E-06
 0.23150000E+02  0.29682E-06
 0.23200001E+02  0.48930E-06
 0.23250000E+02  0.29212E-06
 0.23300001E+02  0.17274E-06
 0.23350000E+02  0.36998E-06
 0.23400000E+02  0.13198E-06
 0.23450001E+02 -0.50359E-07
 0.23500000E+02  0.31791E-06
 0.23550001E+02  0.30708E-06
 0.23600000E+02  0.24687E-07
 0.23650000E+02 -0.16223E-06
 0.23700001E+02 -0.70492E-07
 0.23750000E+02 -0.11165E-06
 0.23800001E+02 -0.41549E-06
 0.23850000E+02 -0.13781E-06
 0.23900000E+02  0.16336E-06
 0.23950001E+02 -0.13395E-06
 0.24000000E+02 -0.19804E-06
 0.24050001E+02  0.78457E-07
 0.24100000E+02 -0.84027E-07
 0.24150000E+02 -0.33678E-06
 0.24200001E+02  0.97170E-07
 0.24250000E+02  0.31676E-06
 0.24300001E+02 -0.26797E-06
 0.24350000E+02 -0.18102E-06
 0.24400000E+02  0.22535E-06
 0.24450001E+02 -0.12405E-06
 0.24500000E+02 -0.26053E-06
 0.24550001E+02  0.19224E-06
 0.24600000E+02  0.23804E-06
 0.24650000E+02 -0.28379E-06
 0.24700001E+02 -0.21634E-06
 0.24750000E+02 -0.20762E-07
 0.24800001E+02 -0.27682E-06
 0.24850000E+02 -0.35770E-06
 0.24900000E+02 -0.12960E-07
 0.24950001E+02  0.18245E-06
 0.25000000E+02 -0.31662E-06
 0.25050001E+02 -0.32103E-06
 0.25100000E+02  0.15637E-06
 0.25150000E+02 -0.20303E-06
 0.25200001E+02 -0.58525E-06
 0.25250000E+02  0.83499E-07
 0.25300001E+02  0.12763E-06
 0.25350000E+02 -0.51752E-06
 0.25400000E+02 -0.62913E-08
 0.25450001E+02  0.39083E-06
 0.25500000E+02 -0.17637E-06
 0.25550001E+02 -0.23320E-06
 0.25600000E+02  0.46575E-06
 0.25650000E+02  0.30506E-06
 0.25700001E+02 -0.23494E-06
 0.25750000E+02  0.20519E-06
 0.25800001E+02  0.44043E-06
 0.25850000E+02  0.18741E-07
 0.25900000E+02  0.45925E-07
 0.25950001E+02  0.51666E-06
 0.26000000E+02  0.20041E-06
 0.26050001E+02 -0.31239E-07
 0.26100000E+02  0.43626E-06
 0.26150000E+02  0.57757E-06
 0.26200001E+02  0.18772E-06
 0.26250000E+02 -0.34088E-06
 0.26300001E+02  0.15834E-06
 0.26350000E+02  0.10730E-05
 0.26400000E+02  0.12934E-05
 0.26450001E+02  0.82926E-06
 0.26500000E+02 -0.12820E-06
 0.26550001E+02 -0.13188E-05
 0.26600000E+02 -0.16582E-05
 0.26650000E+02 -0.64286E-06
 0.26700001E+02  0.40876E-06
 0.26750000E+02  0.17683E-05
 0.26800001E+02  0.23735E-05
 0.26850000E+02  0.10090E-05
 0.26900000E+02 -0.10444E-05
 0.26950001E+02 -0.14793E-05
 0.27000000E+02 -0.42251E-06
 0.27050001E+02 -0.46690E-06
 0.27100000E+02  0.27133E-07
 0.27150000E+02  0.96300E-06
 0.27200001E+02 -0.60772E-07
 0.27250000E+02 -0.16646E-05
 0.27300001E+02 -0.21395E-05
 0.27350000E+02 -0.20341E-05
 0.27400000E+02  0.95914E-06
 0.27450001E+02  0.36229E-05
 0.27500000E+02  0.37075E-05
 0.27550001E+02  0.49545E-05
 0.27600000E+02  0.54186E-05
 0.27650000E+02  0.41214E-05
 0.27700001E+02 -0.28031E-05
 0.27750000E+02 -0.23185E-04
 0.27800001E+02 -0.36569E-04
 0.27850000E+02 -0.14945E-04
 0.27900000E+02  0.12785E-04
 0.27950001E+02  0.42602E-04
 0.28000000E+02  0.36879E-04
 0.28050001E+02 -0.42279E-05
 0.28100000E+02  0.14007E-05
 0.28150000E+02 -0.10650E-04
 0.28200001E+02 -0.18683E-04
 0.28250000E+02 -0.12621E-04
 0.28300001E+02 -0.36004E-04
 0.28350000E+02 -0.41270E-05
 0.28400000E+02  0.14852E-04
 0.28450001E+02 -0.42899E-05
 0.28500000E+02 -0.45781E-05
 0.28550001E+02  0.21797E-06
 0.28600000E+02  0.32103E-04
 0.28650000E+02  0.62172E-04
 0.28700001E+02  0.36884E-04
 0.28750000E+02 -0.32855E-04
 0.28800001E+02 -0.49436E-04
 0.28850000E+02 -0.21497E-04
 0.28900000E+02  0.69348E-05
 0.28950001E+02  0.33086E-04
 0.29000000E+02  0.12324E-05
 0.29050001E+02 -0.39980E-05
 0.29100000E+02 -0.59812E-05
 0.29150000E+02 -0.42676E-04
 0.29200001E+02 -0.12321E-04
 0.29250000E+02  0.17760E-04
 0.29300001E+02  0.81751E-05
 0.29350000E+02  0.29545E-04
 0.29400000E+02  0.26186E-04
 0.29450001E+02 -0.45767E-04
 0.29500000E+02 -0.19996E-04
 0.29550001E+02  0.43343E-04
 0.29600000E+02 -0.28812E-05
 0.29650000E+02  0.17772E-04
 0.29700001E+02  0.27577E-04
 0.29750000E+02 -0.52409E-04
 0.29800001E+02 -0.24189E-04
 0.29850000E+02 -0.41337E-05
 0.29900000E+02 -0.36444E-04
 0.29950001E+02  0.15457E-04
 0.30000000E+02  0.54217E-04
 0.30050001E+02  0.19211E-04
 0.30100000E+02 -0.14174E-04
 0.30150000E+02 -0.17784E-04
 0.30200001E+02 -0.58252E-04
 0.30250000E+02 -0.49191E-04
 0.30300001E+02  0.42161E-04
 0.30350000E+02  0.41433E-04
 0.30400000E+02  0.11573E-04
 0.30450001E+02  0.17501E-04
 0.30500000E+02  0.16188E-04
 0.30550001E+02  0.23913E-04
 0.30600000E+02  0.21098E-04
 0.30650000E+02  0.24820E-05
 0.30700001E+02 -0.23519E-04
 0.30750000E+02 -0.18424E-04
 0.30800001E+02  0.77518E-05
 0.30850000E+02  0.10994E-04
 0.30900000E+02 -0.16297E-05
 0.30950001E+02 -0.40318E-04
 0.31000000E+02 -0.49529E-04
 0.31050001E+02 -0.17864E-04
 0.31100000E+02  0.55528E-05
 0.31150000E+02  0.16138E-04
 0.31200001E+02  0.13904E-04
 0.31250000E+02  0.31268E-04
 0.31300001E+02  0.31187E-04
 0.31350000E+02  0.77511E-05
 0.31400000E+02 -0.49772E-05
 0.31450001E+02 -0.40064E-04
 0.31500000E+02 -0.47788E-04
 0.31550001E+02 -0.10682E-04
 0.31600000E+02 -0.12752E-04
 0.31650000E+02 -0.76132E-05
 0.31700001E+02  0.36847E-04
 0.31750000E+02  0.29760E-04
 0.31800001E+02  0.24769E-04
 0.31850000E+02  0.48392E-04
 0.31900000E+02  0.16568E-05
 0.31950001E+02 -0.37809E-04
 0.32000000E+02 -0.22991E-05
 0.32049999E+02  0.16396E-05
 0.32100002E+02 -0.23210E-04
 0.32150002E+02 -0.59944E-05
 0.32200001E+02 -0.67355E-05
 0.32250000E+02 -0.20823E-04
 0.32299999E+02  0.13794E-04
 0.32350002E+02  0.20194E-04
 0.32400002E+02 -0.32289E-05
 0.32450001E+02  0.24537E-04
 0.32500000E+02  0.41438E-04
 0.32549999E+02 -0.68580E-05
 0.32600002E+02 -0.44081E-04
 0.32650002E+02 -0.18285E-04
 0.32700001E+02 -0.46903E-05
 0.32750000E+02 -0.23725E-04
 0.32799999E+02  0.79071E-05
 0.32850002E+02  0.21120E-04
 0.32900002E+02  0.72725E-05
 0.32950001E+02  0.24776E-04
 0.33000000E+02  0.12901E-04
 0.33049999E+02 -0.20243E-05
 0.33100002E+02 -0.23567E-04
 0.33150002E+02 -0.57455E-04
 0.33200001E+02 -0.41881E-04
 0.33250000E+02  0.14283E-04
 0.33299999E+02  0.59868E-04
 0.33350002E+02  0.68389E-04
 0.33400002E+02  0.45619E-04
 0.33450001E+02  0.20556E-05
 0.33500000E+02 -0.39102E-04
 0.33549999E+02 -0.52596E-04
 0.33600002E+02 -0.29287E-04
 0.33650002E+02  0.11918E-04
 0.33700001E+02  0.31655E-04
 0.33750000E+02 -0.45983E-05
 0.33799999E+02 -0.48776E-04
 0.33850002E+02 -0.50001E-04
 0.33900002E+02 -0.32048E-04
 0.33950001E+02  0.11494E-04
 0.34000000E+02  0.37676E-04
 0.34049999E+02  0.21791E-05
 0.34100002E+02  0.14678E-04
 0.34150002E+02  0.50995E-04
 0.34200001E+02  0.58162E-05
 0.34250000E+02 -0.67739E-05
 0.34299999E+02  0.10723E-04
 0.34350002E+02 -0.13014E-04
 0.34400002E+02 -0.22985E-05
 0.34450001E+02  0.23039E-04
 0.34500000E+02  0.11746E-04
 0.34549999E+02 -0.15734E-05
 0.34600002E+02 -0.94243E-08
 0.34650002E+02 -0.16705E-04
 0.34700001E+02 -0.20147E-04
 0.34750000E+02  0.19122E-04
 0.34799999E+02  0.90113E-05
 0.34850002E+02 -0.16846E-04
 0.34900002E+02  0.11962E-04
 0.34950001E+02  0.14214E-04
 0.35000000E+02 -0.16407E-04
 0.35049999E+02 -0.15736E-04
 0.35100002E+02  0.36440E-05
 0.35150002E+02 -0.25829E-04
 0.35200001E+02 -0.38138E-04
 0.35250000E+02  0.98085E-05
 0.35299999E+02  0.81503E-05
 0.35350002E+02 -0.10071E-05
 0.35400002E+02  0.33298E-04
 0.35450001E+02  0.20230E-04
 0.35500000E+02 -0.22608E-04
 0.35549999E+02 -0.12769E-04
 0.35600002E+02 -0.24363E-05
 0.35650002E+02 -0.12112E-04
 0.35700001E+02  0.23850E-04
 0.35750000E+02  0.46582E-04
 0.35799999E+02 -0.77352E-06
 0.35850002E+02 -0.28254E-04
 0.35900002E+02 -0.16315E-04
 0.35950001E+02 -0.16533E-04
 0.36000000E+02 -0.45381E-05
 0.36049999E+02  0.29935E-04
 0.36100002E+02  0.36707E-04
 0.36150002E+02 -0.56575E-05
 0.36200001E+02 -0.21971E-04
 0.36250000E+02 -0.48573E-05
 0.36299999E+02 -0.94564E-05
 0.36350002E+02  0.33591E-05
 0.36400002E+02  0.30620E-04
 0.36450001E+02  0.14124E-04
 0.36500000E+02 -0.76127E-05
 0.36549999E+02 -0.91684E-05
 0.36600002E+02 -0.18301E-04
 0.36650002E+02 -0.11095E-04
 0.36700001E+02 -0.38485E-06
 0.36750000E+02 -0.28385E-05
 0.36799999E+02 -0.11581E-04
 0.36850002E+02 -0.18031E-04
 0.36900002E+02 -0.67349E-05
 0.36950001E+02  0.22018E-05
 0.37000000E+02  0.25585E-04
 0.37049999E+02  0.49987E-04
 0.37100002E+02  0.17632E-04
 0.37150002E+02 -0.20827E-04
 0.37200001E+02 -0.18180E-04
 0.37250000E+02 -0.13320E-04
 0.37299999E+02  0.24214E-05
 0.37350002E+02  0.16795E-04
 0.37400002E+02 -0.42512E-05
 0.37450001E+02 -0.23179E-05
 0.37500000E+02  0.15823E-04
 0.37549999E+02 -0.13622E-05
 0.37600002E+02 -0.17388E-04
 0.37650002E+02 -0.16949E-04
 0.37700001E+02 -0.87373E-05
 0.37750000E+02 -0.73723E-06
 0.37799999E+02 -0.40950E-05
 0.37850002E+02 -0.67266E-05
 0.37900002E+02 -0.13740E-04
 0.37950001E+02 -0.38608E-05
 0.38000000E+02  0.19142E-04
 0.38049999E+02  0.83209E-05
 0.38100002E+02 -0.52937E-05
 0.38150002E+02 -0.11473E-04
 0.38200001E+02 -0.77069E-05
 0.38250000E+02  0.23983E-04
 0.38299999E+02  0.37093E-04
 0.38350002E+02  0.42959E-04
 0.38400002E+02  0.37707E-04
 0.38450001E+02 -0.78405E-05
 0.38500000E+02 -0.29698E-04
 0.38549999E+02 -0.30164E-04
 0.38600002E+02 -0.40165E-04
 0.38650002E+02 -0.14887E-04
 0.38700001E+02  0.25590E-04
 0.38750000E+02  0.19546E-04
 0.38799999E+02 -0.14336E-04
 0.38850002E+02 -0.33142E-04
 0.38900002E+02 -0.36988E-04
 0.38950001E+02 -0.11625E-04
 0.39000000E+02  0.30329E-04
 0.39049999E+02  0.24995E-04
 0.39100002E+02  0.70607E-05
 0.39150002E+02  0.17396E-04
 0.39200001E+02  0.54659E-05
 0.39250000E+02  0.88444E-05
 0.39299999E+02  0.34364E-04
 0.39350002E+02  0.13541E-04
 0.39400002E+02 -0.24672E-04
 0.39450001E+02 -0.57587E-04
 0.39500000E+02 -0.46512E-04
 0.39549999E+02  0.14051E-05
 0.39600002E+02  0.15370E-04
 0.39650002E+02  0.23581E-04
 0.39700001E+02  0.36708E-04
 0.39750000E+02  0.34850E-04
 0.39799999E+02  0.26121E-04
 0.39850002E+02  0.75940E-05
 0.39900002E+02 -0.24985E-04
 0.39950001E+02 -0.46475E-04
 0.40000000E+02 -0.39559E-04
 0.40049999E+02 -0.22922E-04
 0.40100002E+02  0.99251E-06
 0.40150002E+02  0.19060E-04
 0.40200001E+02  0.18688E-04
 0.40250000E+02  0.52275E-05
 0.40299999E+02 -0.25044E-04
 0.40350002E+02 -0.30842E-04
 0.40400002E+02  0.54350E-05
 0.40450001E+02  0.24359E-04
 0.40500000E+02  0.29836E-04
 0.40549999E+02  0.46582E-04
 0.40600002E+02  0.37215E-04
 0.40650002E+02  0.22143E-05
 0.40700001E+02 -0.34200E-04
 0.40750000E+02 -0.42354E-04
 0.40799999E+02 -0.20573E-04
 0.40850002E+02 -0.78402E-05
 0.40900002E+02  0.34034E-05
 0.40950001E+02 -0.10166E-04
 0.41000000E+02 -0.23444E-04
 0.41049999E+02  0.12927E-04
 0.41100002E+02  0.26270E-04
 0.41150002E+02  0.15529E-04
 0.41200001E+02  0.24757E-04
 0.41250000E+02  0.15653E-04
 0.41299999E+02 -0.14455E-04
 0.41350002E+02 -0.17792E-04
 0.41400002E+02  0.17604E-05
 0.41450001E+02  0.59997E-05
 0.41500000E+02 -0.34771E-05
 0.41549999E+02 -0.18205E-04
 0.41600002E+02 -0.32093E-04
 0.41650002E+02 -0.10848E-04
 0.41700001E+02  0.35808E-04
 0.41750000E+02  0.42475E-04
 0.41799999E+02 -0.20522E-05
 0.41850002E+02 -0.32875E-04
 0.41900002E+02 -0.22006E-04
 0.41950001E+02 -0.92555E-05
 0.42000000E+02  0.15585E-06
 0.42049999E+02  0.21401E-04
 0.42100002E+02  0.29787E-04
 0.42150002E+02  0.13461E-04
 0.42200001E+02 -0.95087E-05
 0.42250000E+02 -0.26664E-04
 0.42299999E+02 -0.25004E-04
 0.42350002E+02 -0.99036E-05
 0.42400002E+02  0.48307E-05
 0.42450001E+02  0.25021E-04
 0.42500000E+02  0.35654E-04
 0.42549999E+02  0.21600E-04
 0.42600002E+02 -0.14530E-04
 0.42650002E+02 -0.31448E-04
 0.42700001E+02  0.24829E-05
 0.42750000E+02  0.29767E-04
 0.42799999E+02  0.17567E-04
 0.42850002E+02 -0.24638E-06
 0.42900002E+02 -0.13245E-04
 0.42950001E+02 -0.29067E-04
 0.43000000E+02 -0.34536E-04
 0.43049999E+02 -0.28936E-04
 0.43100002E+02 -0.84933E-05
 0.43150002E+02  0.16265E-04
 0.43200001E+02  0.19658E-04
 0.43250000E+02  0.52856E-05
 0.43299999E+02 -0.64293E-05
 0.43350002E+02  0.31156E-05
 0.43400002E+02  0.46578E-05
 0.43450001E+02  0.86510E-05
 0.43500000E+02  0.39679E-04
 0.43549999E+02  0.38744E-04
 0.43600002E+02  0.15851E-04
 0.43650002E+02  0.28297E-05
 0.43700001E+02 -0.39683E-04
 0.43750000E+02 -0.58009E-04
 0.43799999E+02 -0.27406E-04
 0.43850002E+02 -0.20777E-04
 0.43900002E+02 -0.14977E-04
 0.43950001E+02  0.11467E-04
 0.44000000E+02  0.20159E-04
 0.44049999E+02  0.18038E-04
 0.44100002E+02  0.22888E-04
 0.44150002E+02  0.20146E-04
 0.44200001E+02  0.73229E-05
 0.44250000E+02 -0.85440E-06
 0.44299999E+02 -0.55733E-05
 0.44350002E+02 -0.47800E-05
 0.44400002E+02 -0.51742E-05
 0.44450001E+02 -0.13432E-04
 0.44500000E+02  0.26889E-05
 0.44549999E+02  0.20086E-04
 0.44600002E+02  0.21003E-04
 0.44650002E+02  0.30665E-04
 0.44700001E+02  0.11985E-04
 0.44750000E+02 -0.24137E-04
 0.44799999E+02 -0.32724E-04
 0.44850002E+02 -0.33112E-04
 0.44900002E+02 -0.35942E-04
 0.44950001E+02 -0.22391E-04
 0.45000000E+02 -0.36108E-05
 0.45049999E+02  0.19918E-04
 0.45100002E+02  0.30671E-04
 0.45150002E+02  0.98361E-05
 0.45200001E+02 -0.83812E-07
 0.45250000E+02 -0.97883E-05
 0.45299999E+02 -0.82032E-05
 0.45350002E+02  0.22987E-04
 0.45400002E+02  0.32001E-04
 0.45450001E+02  0.19365E-04
 0.45500000E+02  0.39508E-05
 0.45549999E+02 -0.12667E-04
 0.45600002E+02 -0.23967E-04
 0.45650002E+02 -0.19757E-04
 0.45700001E+02 -0.36102E-05
 0.45750000E+02 -0.27493E-05
 0.45799999E+02  0.50643E-05
 0.45850002E+02  0.26715E-04
 0.45900002E+02  0.11755E-04
 0.45950001E+02 -0.83122E-05
 0.46000000E+02 -0.13078E-04
 0.46049999E+02 -0.25986E-04
 0.46100002E+02 -0.24742E-04
 0.46150002E+02 -0.63903E-05
 0.46200001E+02  0.20699E-04
 0.46250000E+02  0.17772E-04
 0.46299999E+02  0.15810E-06
 0.46350002E+02  0.10658E-04
 0.46400002E+02  0.14289E-04
 0.46450001E+02  0.14119E-04
 0.46500000E+02  0.14831E-04
 0.46549999E+02 -0.93407E-05
 0.46600002E+02 -0.28655E-04
 0.46650002E+02 -0.16407E-04
 0.46700001E+02 -0.97986E-05
 0.46750000E+02 -0.14419E-04
 0.46799999E+02 -0.85450E-05
 0.46850002E+02  0.68716E-05
 0.46900002E+02  0.28275E-04
 0.46950001E+02  0.39343E-04
 0.47000000E+02  0.27190E-04
 0.47049999E+02 -0.26186E-05
 0.47100002E+02 -0.32063E-04
 0.47150002E+02 -0.44077E-04
 0.47200001E+02 -0.26171E-04
 0.47250000E+02  0.41467E-06
 0.47299999E+02  0.10031E-04
 0.47350002E+02  0.18236E-04
 0.47400002E+02  0.22800E-04
 0.47450001E+02  0.15362E-04
 0.47500000E+02  0.95957E-05
 0.47549999E+02 -0.77482E-06
 0.47600002E+02 -0.21008E-04
 0.47650002E+02 -0.19185E-04
 0.47700001E+02 -0.70749E-05
 0.47750000E+02 -0.15882E-04
 0.47799999E+02 -0.10394E-04
 0.47850002E+02  0.99736E-05
 0.47900002E+02  0.42061E-04
 0.47950001E+02  0.82432E-04
 0.48000000E+02  0.62845E-04
 0.48049999E+02 -0.17742E-05
 0.48100002E+02 -0.38269E-04
 0.48150002E+02 -0.60000E-04
 0.48200001E+02 -0.82396E-04
 0.48250000E+02 -0.56573E-04
 0.48299999E+02  0.10199E-04
 0.48350002E+02  0.53826E-04
 0.48400002E+02  0.46573E-04
 0.48450001E+02  0.12010E-04
 0.48500000E+02 -0.20275E-04
 0.48549999E+02 -0.28939E-04
 0.48600002E+02 -0.16077E-04
 0.48650002E+02 -0.31553E-04
 0.48700001E+02 -0.59238E-04
 0.48750000E+02 -0.50840E-04
 0.48799999E+02 -0.13501E-04
 0.48850002E+02  0.48616E-04
 0.48900002E+02  0.12757E-03
 0.48950001E+02  0.15661E-03
 0.49000000E+02  0.86434E-04
 0.49049999E+02 -0.13335E-04
 0.49100002E+02 -0.83449E-04
 0.49150002E+02 -0.13750E-03
 0.49200001E+02 -0.15311E-03
 0.49250000E+02 -0.10002E-03
 0.49299999E+02 -0.29801E-04
 0.49350002E+02  0.13852E-04
 0.49400002E+02  0.62624E-04
 0.49450001E+02  0.11458E-03
 0.49500000E+02  0.14726E-03
 0.49549999E+02  0.13193E-03
 0.49600002E+02  0.21956E-04
 0.49650002E+02 -0.83901E-04
 0.49700001E+02 -0.86290E-04
 0.49750000E+02 -0.43065E-04
 0.49799999E+02  0.44578E-05
 0.49850002E+02  0.31894E-04
 0.49900002E+02  0.42199E-04
 0.49950001E+02  0.18505E-04
 0.50000000E+02 -0.35650E-04
 0.50049999E+02 -0.32985E-04
 0.50100002E+02 -0.17553E-05
 0.50150002E+02  0.33006E-04
 0.50200001E+02  0.74505E-04
 0.50250000E+02  0.54272E-04
 0.50299999E+02 -0.20317E-04
 0.50350002E+02 -0.75319E-04
 0.50400002E+02 -0.65242E-04
 0.50450001E+02 -0.34319E-04
 0.50500000E+02 -0.22808E-04
 0.50549999E+02 -0.97608E-06
 0.50600002E+02  0.40867E-04
 0.50650002E+02  0.64744E-04
 0.50700001E+02  0.22709E-04
 0.50750000E+02 -0.52701E-04
 0.50799999E+02 -0.11575E-03
 0.50850002E+02 -0.14065E-03
 0.50900002E+02 -0.87607E-04
 0.50950001E+02  0.94587E-05
 0.51000000E+02  0.70765E-04
 0.51049999E+02  0.83576E-04
 0.51100002E+02  0.58271E-04
 0.51150002E+02 -0.87892E-05
 0.51200001E+02 -0.25806E-04
 0.51250000E+02  0.42312E-04
 0.51299999E+02  0.70791E-04
 0.51350002E+02  0.35839E-04
 0.51400002E+02  0.23188E-04
 0.51450001E+02  0.29407E-04
 0.51500000E+02  0.22141E-04
 0.51549999E+02  0.15093E-04
 0.51600002E+02  0.10592E-04
 0.51650002E+02 -0.57265E-05
 0.51700001E+02 -0.39493E-04
 0.51750000E+02 -0.43738E-04
 0.51799999E+02 -0.79441E-05
 0.51850002E+02  0.14684E-04
 0.51900002E+02  0.23636E-04
 0.51950001E+02  0.20043E-04
 0.52000000E+02  0.65445E-06
 0.52049999E+02 -0.14647E-04
 0.52100002E+02 -0.43727E-04
 0.52150002E+02 -0.79520E-04
 0.52200001E+02 -0.69864E-04
 0.52250000E+02 -0.28360E-04
 0.52299999E+02  0.14779E-05
 0.52350002E+02  0.19106E-04
 0.52400002E+02  0.36387E-04
 0.52450001E+02  0.53396E-04
 0.52500000E+02  0.71018E-04
 0.52549999E+02  0.65995E-04
 0.52600002E+02  0.10118E-04
 0.52650002E+02 -0.59548E-04
 0.52700001E+02 -0.83341E-04
 0.52750000E+02 -0.42847E-04
 0.52799999E+02 -0.80054E-06
 0.52850002E+02  0.16576E-05
 0.52900002E+02  0.94796E-05
 0.52950001E+02  0.28272E-04
 0.53000000E+02  0.46961E-04
 0.53049999E+02  0.59945E-04
 0.53100002E+02  0.29252E-04
 0.53150002E+02 -0.39844E-04
 0.53200001E+02 -0.91326E-04
 0.53250000E+02 -0.82780E-04
 0.53299999E+02 -0.25260E-04
 0.53350002E+02  0.37273E-04
 0.53400002E+02  0.65608E-04
 0.53450001E+02  0.41155E-04
 0.53500000E+02  0.43589E-05
 0.53549999E+02 -0.13735E-04
 0.53600002E+02 -0.23750E-04
 0.53650002E+02 -0.12463E-04
 0.53700001E+02  0.23459E-04
 0.53750000E+02  0.48794E-04
 0.53799999E+02  0.37892E-04
 0.53850002E+02  0.48108E-05
 0.53900002E+02 -0.17434E-04
 0.53950001E+02  0.95047E-06
 0.54000000E+02  0.29493E-04
 0.54049999E+02  0.11747E-04
 0.54100002E+02 -0.39993E-04
 0.54150002E+02 -0.93554E-04
 0.54200001E+02 -0.10507E-03
 0.54250000E+02 -0.56925E-04
 0.54299999E+02  0.61989E-05
 0.54350002E+02  0.52498E-04
 0.54400002E+02  0.70802E-04
 0.54450001E+02  0.77274E-04
 0.54500000E+02  0.71816E-04
 0.54549999E+02  0.46119E-04
 0.54600002E+02  0.25139E-04
 0.54650002E+02 -0.54009E-05
 0.54700001E+02 -0.45054E-04
 0.54750000E+02 -0.66587E-04
 0.54799999E+02 -0.68210E-04
 0.54850002E+02 -0.26674E-04
 0.54900002E+02  0.41333E-04
 0.54950001E+02  0.62963E-04
 0.55000000E+02  0.22820E-04
 0.55049999E+02 -0.24649E-04
 0.55100002E+02 -0.45712E-04
 0.55150002E+02 -0.48698E-04
 0.55200001E+02 -0.31411E-04
 0.55250000E+02 -0.55859E-06
 0.55299999E+02  0.19676E-04
 0.55350002E+02  0.20102E-04
 0.55400002E+02 -0.10039E-05
 0.55450001E+02 -0.33749E-04
 0.55500000E+02 -0.44969E-04
 0.55549999E+02 -0.10911E-04
 0.55600002E+02  0.38932E-04
 0.55650002E+02  0.47813E-04
 0.55700001E+02  0.11094E-04
 0.55750000E+02 -0.20498E-04
 0.55799999E+02 -0.20314E-04
 0.55850002E+02  0.82273E-05
 0.55900002E+02  0.51508E-04
 0.55950001E+02  0.77630E-04
 0.56000000E+02  0.61451E-04
 0.56049999E+02  0.22783E-04
 0.56100002E+02  0.80300E-06
 0.56150002E+02 -0.76160E-05
 0.56200001E+02 -0.13702E-04
 0.56250000E+02 -0.30774E-04
 0.56299999E+02 -0.63726E-04
 0.56350002E+02 -0.73082E-04
 0.56400002E+02 -0.43775E-04
 0.56450001E+02 -0.16348E-04
 0.56500000E+02 -0.14439E-04
 0.56549999E+02 -0.98406E-05
 0.56600002E+02  0.13871E-04
 0.56650002E+02  0.42233E-04
 0.56700001E+02  0.58492E-04
 0.56750000E+02  0.45499E-04
 0.56799999E+02 -0.62651E-06
 0.56850002E+02 -0.33490E-04
 0.56900002E+02 -0.19767E-04
 0.56950001E+02  0.30334E-05
 0.57000000E+02  0.11663E-04
 0.57049999E+02  0.12064E-04
 0.57100002E+02  0.12930E-04
 0.57150002E+02  0.53784E-05
 0.57200001E+02 -0.12740E-04
 0.57250000E+02 -0.23218E-04
 0.57299999E+02 -0.34168E-04
 0.57350002E+02 -0.33544E-04
 0.57400002E+02 -0.70036E-05
 0.57450001E+02  0.27099E-04
 0.57500000E+02  0.46523E-04
 0.57549999E+02  0.50405E-04
 0.57600002E+02  0.47990E-04
 0.57650002E+02  0.21197E-04
 0.57700001E+02 -0.20728E-04
 0.57750000E+02 -0.39491E-04
 0.57799999E+02 -0.28354E-04
 0.57850002E+02 -0.55068E-05
 0.57900002E+02  0.93596E-05
 0.57950001E+02  0.47076E-05
 0.58000000E+02 -0.12861E-04
 0.58049999E+02 -0.27014E-04
 0.58100002E+02 -0.28057E-04
 0.58150002E+02 -0.18082E-04
 0.58200001E+02 -0.39828E-05
 0.58250000E+02  0.13812E-04
 0.58299999E+02  0.21755E-04
 0.58350002E+02  0.19101E-04
 0.58400002E+02  0.19981E-04
 0.58450001E+02  0.18517E-04
 0.58500000E+02  0.15019E-04
 0.58549999E+02  0.10264E-04
 0.58600002E+02  0.30272E-05
 0.58650002E+02 -0.10017E-04
 0.58700001E+02 -0.30182E-04
 0.58750000E+02 -0.43307E-04
 0.58799999E+02 -0.51249E-04
 0.58850002E+02 -0.50102E-04
 0.58900002E+02 -0.27354E-04
 0.58950001E+02  0.13191E-05
 0.59000000E+02  0.21152E-04
 0.59049999E+02  0.37001E-04
 0.59100002E+02  0.45291E-04
 0.59150002E+02  0.35800E-04
 0.59200001E+02  0.25434E-04
 0.59250000E+02  0.22596E-04
 0.59299999E+02  0.14512E-04
 0.59350002E+02  0.36522E-05
 0.59400002E+02 -0.13080E-04
 0.59450001E+02 -0.24281E-04
 0.59500000E+02 -0.14125E-04
 0.59549999E+02  0.12965E-05
 0.59600002E+02  0.14155E-04
 0.59650002E+02  0.21767E-04
 0.59700001E+02  0.14568E-04
 0.59750000E+02 -0.64688E-05
 0.59799999E+02 -0.24839E-04
 0.59850002E+02 -0.26024E-04
 0.59900002E+02 -0.18753E-04
 0.59950001E+02 -0.90229E-06
 0.60000000E+02  0.27953E-04
 0.60049999E+02  0.39394E-04
 0.60100002E+02  0.22154E-04
 0.60150002E+02 -0.38834E-05
 0.60200001E+02 -0.19591E-04
 0.60250000E+02 -0.34693E-04
 0.60299999E+02 -0.43184E-04
 0.60350002E+02 -0.36771E-04
 0.60400002E+02 -0.31589E-04
 0.60450001E+02 -0.14766E-04
 0.60500000E+02  0.41753E-05
 0.60549999E+02  0.89471E-05
 0.60600002E+02  0.24622E-04
 0.60650002E+02  0.46359E-04
 0.60700001E+02  0.45732E-04
 0.60750000E+02  0.28542E-04
 0.60799999E+02  0.15069E-04
 0.60850002E+02  0.90544E-05
 0.60900002E+02 -0.30040E-05
 0.60950001E+02 -0.26062E-04
 0.61000000E+02 -0.39194E-04
 0.61049999E+02 -0.35615E-04
 0.61100002E+02 -0.20836E-04
 0.61150002E+02  0.68505E-05
 0.61200001E+02  0.32107E-04
 0.61250000E+02  0.37859E-04
 0.61299999E+02  0.25404E-04
 0.61350002E+02  0.66164E-05
 0.61400002E+02 -0.42063E-05
 0.61450001E+02 -0.11940E-04
 0.61500000E+02 -0.18856E-04
 0.61549999E+02 -0.20398E-04
 0.61600002E+02 -0.19727E-04
 0.61650002E+02 -0.12466E-04
 0.61700001E+02  0.27137E-06
 0.61750000E+02  0.17421E-04
 0.61799999E+02  0.26209E-04
 0.61850002E+02  0.16415E-04
 0.61900002E+02  0.38848E-05
 0.61950001E+02 -0.42115E-05
 0.62000000E+02 -0.10530E-04
 0.62049999E+02 -0.13579E-04
 0.62100002E+02 -0.11272E-04
 0.62150002E+02 -0.52528E-05
 0.62200001E+02  0.70750E-06
 0.62250000E+02 -0.15082E-05
 0.62299999E+02 -0.16336E-04
 0.62350002E+02 -0.31451E-04
 0.62400002E+02 -0.29800E-04
 0.62450001E+02 -0.10697E-04
 0.62500000E+02  0.14314E-04
 0.62549999E+02  0.32711E-04
 0.62600002E+02  0.39337E-04
 0.62650002E+02  0.38007E-04
 0.62700001E+02  0.27903E-04
 0.62750000E+02  0.19854E-04
 0.62799999E+02  0.18901E-04
 0.62850002E+02  0.10624E-04
 0.62900002E+02  0.15467E-05
 0.62950001E+02  0.70267E-07
 0.63000000E+02 -0.38673E-05
 0.63049999E+02 -0.15932E-04
 0.63100002E+02 -0.28327E-04
 0.63150002E+02 -0.29912E-04
 0.63200001E+02 -0.24180E-04
 0.63250000E+02 -0.19400E-04
 0.63299999E+02 -0.17459E-04
 0.63350002E+02 -0.18987E-04
 0.63400002E+02 -0.21934E-04
 0.63450001E+02 -0.22022E-04
 0.63500000E+02 -0.15943E-04
 0.63549999E+02 -0.29810E-05
 0.63600002E+02  0.17740E-04
 0.63650002E+02  0.39893E-04
 0.63700001E+02  0.47866E-04
 0.63750000E+02  0.39153E-04
 0.63799999E+02  0.23725E-04
 0.63850002E+02  0.43666E-05
 0.63900002E+02 -0.11917E-04
 0.63950001E+02 -0.13536E-04
 0.64000000E+02 -0.61802E-05
 0.64050003E+02 -0.19642E-05
 0.64099998E+02 -0.27176E-05
 0.64150002E+02 -0.40441E-05
 0.64200005E+02 -0.22342E-05
 0.64250000E+02 -0.21846E-05
 0.64300003E+02 -0.57185E-05
 0.64349998E+02 -0.62781E-05
 0.64400002E+02 -0.12191E-05
 0.64450005E+02  0.33861E-05
 0.64500000E+02 -0.14032E-05
 0.64550003E+02 -0.88390E-05
 0.64599998E+02 -0.11530E-04
 0.64650002E+02 -0.12493E-04
 0.64700005E+02 -0.90002E-05
 0.64750000E+02 -0.62065E-06
 0.64800003E+02  0.38691E-05
 0.64849998E+02  0.48886E-05
 0.64900002E+02  0.11694E-04
 0.64950005E+02  0.19487E-04
 0.65000000E+02  0.27015E-04
 0.65050003E+02  0.34975E-04
 0.65099998E+02  0.29922E-04
 0.65150002E+02  0.14918E-04
 0.65200005E+02 -0.24557E-05
 0.65250000E+02 -0.18247E-04
 0.65300003E+02 -0.22064E-04
 0.65349998E+02 -0.17284E-04
 0.65400002E+02 -0.10063E-04
 0.65450005E+02 -0.26856E-05
 0.65500000E+02  0.18419E-05
 0.65550003E+02  0.13453E-05
 0.65599998E+02 -0.63485E-05
 0.65650002E+02 -0.18348E-04
 0.65700005E+02 -0.30473E-04
 0.65750000E+02 -0.39424E-04
 0.65800003E+02 -0.38450E-04
 0.65849998E+02 -0.23532E-04
 0.65900002E+02 -0.73070E-06
 0.65950005E+02  0.21024E-04
 0.66000000E+02  0.32829E-04
 0.66050003E+02  0.29474E-04
 0.66099998E+02  0.16124E-04
 0.66150002E+02  0.57802E-05
 0.66200005E+02  0.79031E-05
 0.66250000E+02  0.16237E-04
 0.66300003E+02  0.19127E-04
 0.66349998E+02  0.14562E-04
 0.66400002E+02  0.77300E-05
 0.66450005E+02  0.29476E-05
 0.66500000E+02 -0.11379E-05
 0.66550003E+02 -0.69191E-05
 0.66599998E+02 -0.95657E-05
 0.66650002E+02 -0.61336E-05
 0.66700005E+02 -0.25320E-05
 0.66750000E+02 -0.27467E-05
 0.66800003E+02 -0.55698E-05
 0.66849998E+02 -0.77477E-05
 0.66900002E+02 -0.91865E-05
 0.66950005E+02 -0.94732E-05
 0.67000000E+02 -0.57926E-05
 0.67050003E+02 -0.39281E-06
 0.67099998E+02  0.30268E-05
 0.67150002E+02  0.64483E-05
 0.67200005E+02  0.10830E-04
 0.67250000E+02  0.14444E-04
 0.67300003E+02  0.19423E-04
 0.67349998E+02  0.21104E-04
 0.67400002E+02  0.14305E-04
 0.67450005E+02 -0.78672E-06
 0.67500000E+02 -0.20054E-04
 0.67550003E+02 -0.32949E-04
 0.67599998E+02 -0.34985E-04
 0.67650002E+02 -0.27732E-04
 0.67700005E+02 -0.16456E-04
 0.67750000E+02 -0.72346E-05
 0.67800003E+02 -0.19169E-05
 0.67849998E+02  0.30656E-05
 0.67900002E+02  0.72599E-05
 0.67950005E+02  0.64121E-05
 0.68000000E+02  0.88959E-05
 0.68050003E+02  0.15741E-04
 0.68099998E+02  0.16363E-04
 0.68150002E+02  0.12273E-04
 0.68200005E+02  0.98890E-05
 0.68250000E+02  0.97509E-05
 0.68300003E+02  0.10445E-04
 0.68349998E+02  0.10407E-04
 0.68400002E+02  0.57791E-05
 0.68450005E+02 -0.18821E-05
 0.68500000E+02 -0.61849E-05
 0.68550003E+02 -0.85049E-05
 0.68599998E+02 -0.89889E-05
 0.68650002E+02 -0.47685E-05
 0.68700005E+02 -0.34124E-05
 0.68750000E+02 -0.57870E-05
 0.68800003E+02 -0.60940E-05
 0.68849998E+02 -0.66682E-05
 0.68900002E+02 -0.47212E-05
 0.68950005E+02  0.13977E-05
 0.69000000E+02  0.79733E-05
 0.69050003E+02  0.12972E-04
 0.69099998E+02  0.15902E-04
 0.69150002E+02  0.16417E-04
 0.69200005E+02  0.95110E-05
 0.69250000E+02 -0.42812E-05
 0.69300003E+02 -0.16766E-04
 0.69349998E+02 -0.24770E-04
 0.69400002E+02 -0.28343E-04
 0.69450005E+02 -0.25185E-04
 0.69500000E+02 -0.17271E-04
 0.69550003E+02 -0.70208E-05
 0.69599998E+02  0.76544E-05
 0.69650002E+02  0.21620E-04
 0.69700005E+02  0.25881E-04
 0.69750000E+02  0.21909E-04
 0.69800003E+02  0.15965E-04
 0.69849998E+02  0.98171E-05
 0.69900002E+02  0.61969E-05
 0.69950005E+02  0.33085E-05
 0.70000000E+02 -0.33554E-05
 0.70050003E+02 -0.78524E-05
 0.70099998E+02 -0.85871E-05
 0.70150002E+02 -0.10069E-04
 0.70200005E+02 -0.10941E-04
 0.70250000E+02 -0.12368E-04
 0.70300003E+02 -0.15518E-04
 0.70349998E+02 -0.15194E-04
 0.70400002E+02 -0.73784E-05
 0.70450005E+02  0.37631E-05
 0.70500000E+02  0.11256E-04
 0.70550003E+02  0.13368E-04
 0.70599998E+02  0.11058E-04
 0.70650002E+02  0.63718E-05
 0.70700005E+02  0.42041E-05
 0.70750000E+02  0.33748E-05
 0.70800003E+02 -0.12992E-05
 0.70849998E+02 -0.38921E-05
 0.70900002E+02  0.71239E-06
 0.70950005E+02  0.76537E-05
 0.71000000E+02  0.13734E-04
 0.71050003E+02  0.18127E-04
 0.71099998E+02  0.15558E-04
 0.71150002E+02  0.56185E-05
 0.71200005E+02 -0.53116E-05
 0.71250000E+02 -0.15381E-04
 0.71300003E+02 -0.21619E-04
 0.71349998E+02 -0.23127E-04
 0.71400002E+02 -0.22899E-04
 0.71450005E+02 -0.18573E-04
 0.71500000E+02 -0.87213E-05
 0.71550003E+02  0.16636E-05
 0.71599998E+02  0.77588E-05
 0.71650002E+02  0.10160E-04
 0.71700005E+02  0.10383E-04
 0.71750000E+02  0.93719E-05
 0.71800003E+02  0.99803E-05
 0.71849998E+02  0.13437E-04
 0.71900002E+02  0.18065E-04
 0.71950005E+02  0.17855E-04
 0.72000000E+02  0.11532E-04
 0.72050003E+02  0.45040E-05
 0.72099998E+02 -0.17427E-05
 0.72150002E+02 -0.87608E-05
 0.72200005E+02 -0.17020E-04
 0.72250000E+02 -0.21004E-04
 0.72300003E+02 -0.18608E-04
 0.72349998E+02 -0.13426E-04
 0.72400002E+02 -0.88005E-05
 0.72450005E+02 -0.69309E-05
 0.72500000E+02 -0.53265E-05
 0.72550003E+02  0.26997E-06
 0.72599998E+02  0.86646E-05
 0.72650002E+02  0.14148E-04
 0.72700005E+02  0.14686E-04
 0.72750000E+02  0.95212E-05
 0.72800003E+02  0.40944E-05
 0.72849998E+02  0.43265E-05
 0.72900002E+02  0.69220E-05
 0.72950005E+02  0.90985E-05
 0.73000000E+02  0.84562E-05
 0.73050003E+02  0.34837E-05
 0.73099998E+02 -0.27997E-05
 0.73150002E+02 -0.90869E-05
 0.73200005E+02 -0.14948E-04
 0.73250000E+02 -0.17845E-04
 0.73300003E+02 -0.17009E-04
 0.73349998E+02 -0.13358E-04
 0.73400002E+02 -0.10276E-04
 0.73450005E+02 -0.58666E-05
 0.73500000E+02  0.28176E-05
 0.73550003E+02  0.96285E-05
 0.73599998E+02  0.10985E-04
 0.73650002E+02  0.86933E-05
 0.73700005E+02  0.57586E-05
 0.73750000E+02  0.35640E-05
 0.73800003E+02  0.30311E-05
 0.73849998E+02  0.58955E-05
 0.73900002E+02  0.86936E-05
 0.73950005E+02  0.96625E-05
 0.74000000E+02  0.95217E-05
 0.74050003E+02  0.53288E-05
 0.74099998E+02 -0.17485E-05
 0.74150002E+02 -0.79802E-05
 0.74200005E+02 -0.12147E-04
 0.74250000E+02 -0.11561E-04
 0.74300003E+02 -0.39563E-05
 0.74349998E+02  0.43853E-05
 0.74400002E+02  0.89310E-05
 0.74450005E+02  0.10967E-04
 0.74500000E+02  0.73621E-05
 0.74550003E+02  0.99860E-06
 0.74599998E+02 -0.38222E-05
 0.74650002E+02 -0.84452E-05
 0.74700005E+02 -0.89470E-05
 0.74750000E+02 -0.39637E-05
 0.74800003E+02  0.80209E-06
 0.74849998E+02  0.43339E-05
 0.74900002E+02  0.64928E-05
 0.74950005E+02  0.49575E-05
 0.75000000E+02 -0.47713E-06
 0.75050003E+02 -0.79748E-05
 0.75099998E+02 -0.13987E-04
 0.75150002E+02 -0.16850E-04
 0.75200005E+02 -0.15579E-04
 0.75250000E+02 -0.10237E-04
 0.75300003E+02 -0.88439E-06
 0.75349998E+02  0.90727E-05
 0.75400002E+02  0.15467E-04
 0.75450005E+02  0.16649E-04
 0.75500000E+02  0.11384E-04
 0.75550003E+02  0.48507E-05
 0.75599998E+02  0.13392E-05
 0.75650002E+02  0.11791E-05
 0.75700005E+02  0.86784E-07
 0.75750000E+02 -0.40297E-05
 0.75800003E+02 -0.52347E-05
 0.75849998E+02 -0.21960E-05
 0.75900002E+02  0.22397E-05
 0.75950005E+02  0.33644E-05
 0.76000000E+02 -0.33819E-06
 0.76050003E+02 -0.40719E-05
 0.76099998E+02 -0.39207E-05
 0.76150002E+02 -0.17724E-05
 0.76200005E+02 -0.13126E-05
 0.76250000E+02 -0.14036E-05
 0.76300003E+02 -0.21028E-05
 0.76349998E+02 -0.12443E-05
 0.76400002E+02  0.29858E-05
 0.76450005E+02  0.56511E-05
 0.76500000E+02  0.36860E-05
 0.76550003E+02 -0.77149E-06
 0.76599998E+02 -0.44517E-05
 0.76650002E+02 -0.66874E-05
 0.76700005E+02 -0.56097E-05
 0.76750000E+02 -0.12753E-05
 0.76800003E+02  0.28583E-05
 0.76849998E+02  0.63121E-05
 0.76900002E+02  0.86376E-05
 0.76950005E+02  0.84982E-05
 0.77000000E+02  0.59644E-05
 0.77050003E+02  0.30404E-05
 0.77099998E+02  0.13066E-05
 0.77150002E+02 -0.18045E-05
 0.77200005E+02 -0.48884E-05
 0.77250000E+02 -0.47474E-05
 0.77300003E+02 -0.36251E-05
 0.77349998E+02 -0.29935E-05
 0.77400002E+02 -0.33204E-05
 0.77450005E+02 -0.52899E-05
 0.77500000E+02 -0.66741E-05
 0.77550003E+02 -0.40891E-05
 0.77599998E+02 -0.14904E-05
 0.77650002E+02 -0.19711E-05
 0.77700005E+02 -0.15126E-05
 0.77750000E+02 -0.62602E-06
 0.77800003E+02 -0.13539E-05
 0.77849998E+02 -0.29340E-05
 0.77900002E+02 -0.34775E-05
 0.77950005E+02 -0.41268E-06
 0.78000000E+02  0.47799E-05
 0.78050003E+02  0.78535E-05
 0.78099998E+02  0.94917E-05
 0.78150002E+02  0.11727E-04
 0.78200005E+02  0.11487E-04
 0.78250000E+02  0.73949E-05
 0.78300003E+02  0.24551E-05
 0.78349998E+02 -0.86949E-06
 0.78400002E+02 -0.25322E-05
 0.78450005E+02 -0.32793E-05
 0.78500000E+02 -0.30953E-05
 0.78550003E+02 -0.28865E-05
 0.78599998E+02 -0.21146E-05
 0.78650002E+02  0.81484E-06
 0.78700005E+02  0.28472E-05
 0.78750000E+02  0.16668E-06
 0.78800003E+02 -0.29113E-05
 0.78849998E+02 -0.27778E-05
 0.78900002E+02 -0.23188E-05
 0.78950005E+02 -0.11163E-05
 0.79000000E+02 -0.88941E-06
 0.79050003E+02 -0.24405E-05
 0.79099998E+02 -0.25837E-05
 0.79150002E+02 -0.20849E-05
 0.79200005E+02 -0.20429E-05
 0.79250000E+02 -0.20378E-05
 0.79300003E+02  0.38620E-07
 0.79349998E+02  0.26465E-05
 0.79400002E+02  0.34153E-05
 0.79450005E+02  0.46422E-05
 0.79500000E+02  0.48117E-05
 0.79550003E+02  0.33424E-05
 0.79599998E+02  0.34351E-05
 0.79650002E+02  0.37264E-05
 0.79700005E+02  0.28387E-05
 0.79750000E+02  0.12229E-05
 0.79800003E+02 -0.28369E-05
 0.79849998E+02 -0.84321E-05
 0.79900002E+02 -0.93128E-05
 0.79950005E+02 -0.51147E-05
 0.80000000E+02 -0.40786E-05
 0.80050003E+02 -0.74271E-05
 0.80099998E+02 -0.10974E-04
 0.80150002E+02 -0.10616E-04
 0.80200005E+02 -0.52242E-05
 0.80250000E+02 -0.18706E-06
 0.80300003E+02  0.31439E-05
 0.80349998E+02  0.54859E-05
 0.80400002E+02  0.72028E-05
 0.80450005E+02  0.85183E-05
 0.80500000E+02  0.83506E-05
 0.80550003E+02  0.74691E-05
 0.80599998E+02  0.62108E-05
 0.80650002E+02  0.58965E-05
 0.80700005E+02  0.65209E-05
 0.80750000E+02  0.69194E-05
 0.80800003E+02  0.60094E-05
 0.80849998E+02  0.33709E-05
 0.80900002E+02  0.79564E-06
 0.80950005E+02 -0.26142E-05
 0.81000000E+02 -0.65565E-05
 0.81050003E+02 -0.95575E-05
 0.81099998E+02 -0.12247E-04
 0.81150002E+02 -0.12928E-04
 0.81200005E+02 -0.10995E-04
 0.81250000E+02 -0.77225E-05
 0.81300003E+02 -0.38691E-05
 0.81349998E+02  0.10771E-05
 0.81400002E+02  0.72281E-05
 0.81450005E+02  0.11363E-04
 0.81500000E+02  0.11753E-04
 0.81550003E+02  0.90969E-05
 0.81599998E+02  0.54862E-05
 0.81650002E+02  0.22562E-05
 0.81700005E+02 -0.19773E-05
 0.81750000E+02 -0.63030E-05
 0.81800003E+02 -0.79129E-05
 0.81849998E+02 -0.74211E-05
 0.81900002E+02 -0.65236E-05
 0.81950005E+02 -0.41930E-05
 0.82000000E+02 -0.81479E-06
 0.82050003E+02  0.26813E-05
 0.82099998E+02  0.58831E-05
 0.82150002E+02  0.64710E-05
 0.82200005E+02  0.46951E-05
 0.82250000E+02  0.12886E-05
 0.82300003E+02 -0.22243E-05
 0.82349998E+02 -0.21702E-05
 0.82400002E+02 -0.82316E-06
 0.82450005E+02  0.37039E-06
 0.82500000E+02  0.21665E-05
 0.82550003E+02  0.15074E-05
 0.82599998E+02 -0.42906E-06
 0.82650002E+02 -0.11286E-05
 0.82700005E+02 -0.82977E-06
 0.82750000E+02  0.36671E-06
 0.82800003E+02  0.15081E-05
 0.82849998E+02  0.13298E-05
 0.82900002E+02  0.49761E-06
 0.82950005E+02  0.18155E-05
 0.83000000E+02  0.42015E-05
 0.83050003E+02  0.55152E-05
 0.83099998E+02  0.57798E-05
 0.83150002E+02  0.33822E-05
 0.83200005E+02 -0.78083E-06
 0.83250000E+02 -0.42231E-05
 0.83300003E+02 -0.66173E-05
 0.83349998E+02 -0.73170E-05
 0.83400002E+02 -0.55995E-05
 0.83450005E+02 -0.18638E-05
 0.83500000E+02  0.20630E-05
 0.83550003E+02  0.32599E-05
 0.83599998E+02  0.10874E-05
 0.83650002E+02 -0.39958E-05
 0.83700005E+02 -0.87501E-05
 0.83750000E+02 -0.83939E-05
 0.83800003E+02 -0.46804E-05
 0.83849998E+02  0.11246E-05
 0.83900002E+02  0.78518E-05
 0.83950005E+02  0.11384E-04
 0.84000000E+02  0.12289E-04
 0.84050003E+02  0.11329E-04
 0.84099998E+02  0.88599E-05
 0.84150002E+02  0.58860E-05
 0.84200005E+02  0.16054E-05
 0.84250000E+02 -0.28118E-05
 0.84300003E+02 -0.69643E-05
 0.84349998E+02 -0.95491E-05
 0.84400002E+02 -0.98912E-05
 0.84450005E+02 -0.11078E-04
 0.84500000E+02 -0.11249E-04
 0.84550003E+02 -0.99692E-05
 0.84599998E+02 -0.86441E-05
 0.84650002E+02 -0.56155E-05
 0.84700005E+02 -0.22508E-05
 0.84750000E+02  0.51956E-06
 0.84800003E+02  0.28096E-05
 0.84849998E+02  0.40398E-05
 0.84900002E+02  0.43427E-05
 0.84950005E+02  0.41957E-05
 0.85000000E+02  0.37682E-05
 0.85050003E+02  0.36317E-05
 0.85099998E+02  0.50651E-05
 0.85150002E+02  0.67346E-05
 0.85200005E+02  0.71447E-05
 0.85250000E+02  0.59147E-05
 0.85300003E+02  0.27705E-05
 0.85349998E+02  0.87005E-06
 0.85400002E+02  0.45453E-06
 0.85450005E+02 -0.74337E-06
 0.85500000E+02 -0.14557E-05
 0.85550003E+02 -0.18962E-05
 0.85599998E+02 -0.16216E-05
 0.85650002E+02  0.15629E-06
 0.85700005E+02  0.20745E-05
 0.85750000E+02  0.36600E-05
 0.85800003E+02  0.37005E-05
 0.85849998E+02  0.17159E-05
 0.85900002E+02 -0.15113E-05
 0.85950005E+02 -0.38504E-05
 0.86000000E+02 -0.39924E-05
 0.86050003E+02 -0.39372E-05
 0.86099998E+02 -0.26740E-05
 0.86150002E+02  0.61294E-06
 0.86200005E+02  0.31708E-05
 0.86250000E+02  0.42943E-05
 0.86300003E+02  0.37801E-05
 0.86349998E+02  0.86559E-06
 0.86400002E+02 -0.24849E-05
 0.86450005E+02 -0.45245E-05
 0.86500000E+02 -0.56104E-05
 0.86550003E+02 -0.53750E-05
 0.86599998E+02 -0.38413E-05
 0.86650002E+02 -0.29234E-05
 0.86700005E+02 -0.27910E-05
 0.86750000E+02 -0.63995E-06
 0.86800003E+02  0.29449E-05
 0.86849998E+02  0.45924E-05
 0.86900002E+02  0.45915E-05
 0.86950005E+02  0.34838E-05
 0.87000000E+02  0.70497E-06
 0.87050003E+02 -0.18123E-05
 0.87099998E+02 -0.33945E-05
 0.87150002E+02 -0.45973E-05
 0.87200005E+02 -0.50644E-05
 0.87250000E+02 -0.42748E-05
 0.87300003E+02 -0.96183E-06
 0.87349998E+02  0.35570E-05
 0.87400002E+02  0.60968E-05
 0.87450005E+02  0.65269E-05
 0.87500000E+02  0.49902E-05
 0.87550003E+02  0.11534E-05
 0.87599998E+02 -0.19500E-05
 0.87650002E+02 -0.37200E-05
 0.87700005E+02 -0.57924E-05
 0.87750000E+02 -0.54393E-05
 0.87800003E+02 -0.33960E-05
 0.87849998E+02 -0.22035E-05
 0.87900002E+02 -0.18094E-06
 0.87950005E+02  0.25526E-05
 0.88000000E+02  0.41580E-05
 0.88050003E+02  0.41790E-05
 0.88099998E+02  0.40629E-05
 0.88150002E+02  0.43278E-05
 0.88200005E+02  0.49800E-05
 0.88250000E+02  0.62037E-05
 0.88300003E+02  0.69612E-05
 0.88349998E+02  0.57637E-05
 0.88400002E+02  0.21332E-05
 0.88450005E+02 -0.16166E-05
 0.88500000E+02 -0.43970E-05
 0.88550003E+02 -0.56476E-05
 0.88599998E+02 -0.43653E-05
 0.88650002E+02 -0.24030E-05
 0.88700005E+02 -0.11118E-05
 0.88750000E+02  0.33517E-06
 0.88800003E+02  0.21337E-05
 0.88849998E+02  0.34340E-05
 0.88900002E+02  0.31596E-05
 0.88950005E+02  0.11577E-05
 0.89000000E+02 -0.10034E-05
 0.89050003E+02 -0.26334E-05
 0.89099998E+02 -0.42374E-05
 0.89150002E+02 -0.55036E-05
 0.89200005E+02 -0.53262E-05
 0.89250000E+02 -0.30533E-05
 0.89300003E+02 -0.79155E-06
 0.89349998E+02 -0.24734E-06
 0.89400002E+02 -0.11170E-05
 0.89450005E+02 -0.31749E-05
 0.89500000E+02 -0.52123E-05
 0.89550003E+02 -0.66628E-05
 0.89599998E+02 -0.62865E-05
 0.89650002E+02 -0.29726E-05
 0.89700005E+02  0.82362E-06
 0.89750000E+02  0.43340E-05
 0.89800003E+02  0.75153E-05
 0.89849998E+02  0.86132E-05
 0.89900002E+02  0.84817E-05
 0.89950005E+02  0.74817E-05
 0.90000000E+02  0.45756E-05
 0.90050003E+02  0.40930E-06
 0.90099998E+02 -0.35075E-05
 0.90150002E+02 -0.54220E-05
 0.90200005E+02 -0.43584E-05
 0.90250000E+02 -0.17961E-05
 0.90300003E+02 -0.42468E-06
 0.90349998E+02 -0.32315E-06
 0.90400002E+02 -0.72979E-06
 0.90450005E+02 -0.21387E-05
 0.90500000E+02 -0.27101E-05
 0.90550003E+02 -0.16929E-05
 0.90599998E+02 -0.80136E-06
 0.90650002E+02  0.37070E-06
 0.90700005E+02  0.13829E-05
 0.90750000E+02  0.26681E-05
 0.90800003E+02  0.44212E-05
 0.90849998E+02  0.47219E-05
 0.90900002E+02  0.37755E-05
 0.90950005E+02  0.22377E-05
 0.91000000E+02  0.17539E-05
 0.91050003E+02  0.16452E-05
 0.91099998E+02  0.87937E-06
 0.91150002E+02  0.40158E-06
 0.91200005E+02 -0.89181E-06
 0.91250000E+02 -0.16701E-05
 0.91300003E+02 -0.14877E-05
 0.91349998E+02 -0.12130E-05
 0.91400002E+02 -0.88336E-06
 0.91450005E+02 -0.18829E-05
 0.91500000E+02 -0.33057E-05
 0.91550003E+02 -0.32907E-05
 0.91599998E+02 -0.18622E-05
 0.91650002E+02 -0.12562E-06
 0.91700005E+02  0.17327E-05
 0.91750000E+02  0.25652E-05
 0.91800003E+02  0.26613E-05
 0.91849998E+02  0.38852E-05
 0.91900002E+02  0.33741E-05
 0.91950005E+02  0.11064E-05
 0.92000000E+02 -0.83148E-06
 0.92050003E+02 -0.29152E-05
 0.92099998E+02 -0.34967E-05
 0.92150002E+02 -0.29867E-05
 0.92200005E+02 -0.33909E-05
 0.92250000E+02 -0.39518E-05
 0.92300003E+02 -0.34213E-05
 0.92349998E+02 -0.20374E-05
 0.92400002E+02 -0.71749E-06
 0.92450005E+02  0.77984E-06
 0.92500000E+02  0.20721E-05
 0.92550003E+02  0.27052E-05
 0.92599998E+02  0.25769E-05
 0.92650002E+02  0.67101E-06
 0.92700005E+02 -0.74528E-06
 0.92750000E+02 -0.38210E-07
 0.92800003E+02  0.98353E-06
 0.92849998E+02  0.12212E-05
 0.92900002E+02  0.10209E-05
 0.92950005E+02  0.94034E-06
 0.93000000E+02 -0.30837E-06
 0.93050003E+02 -0.20812E-05
 0.93099998E+02 -0.29848E-05
 0.93150002E+02 -0.30407E-05
 0.93200005E+02 -0.25165E-05
 0.93250000E+02 -0.23321E-05
 0.93300003E+02 -0.14460E-05
 0.93349998E+02  0.81433E-06
 0.93400002E+02  0.35492E-05
 0.93450005E+02  0.58595E-05
 0.93500000E+02  0.66426E-05
 0.93550003E+02  0.55917E-05
 0.93599998E+02  0.34793E-05
 0.93650002E+02  0.19291E-05
 0.93700005E+02  0.10090E-05
 0.93750000E+02  0.42696E-06
 0.93800003E+02  0.57437E-06
 0.93849998E+02  0.75399E-07
 0.93900002E+02 -0.73057E-06
 0.93950005E+02 -0.10653E-05
 0.94000000E+02 -0.12492E-05
 0.94050003E+02 -0.11025E-05
 0.94099998E+02 -0.46036E-06
 0.94150002E+02  0.85789E-06
 0.94200005E+02  0.13137E-05
 0.94250000E+02  0.48589E-06
 0.94300003E+02 -0.45064E-06
 0.94349998E+02 -0.48044E-06
 0.94400002E+02  0.13096E-06
 0.94450005E+02 -0.49052E-06
 0.94500000E+02 -0.26115E-05
 0.94550003E+02 -0.49483E-05
 0.94599998E+02 -0.57529E-05
 0.94650002E+02 -0.50902E-05
 0.94700005E+02 -0.48176E-05
 0.94750000E+02 -0.49355E-05
 0.94800003E+02 -0.44084E-05
 0.94849998E+02 -0.28519E-05
 0.94900002E+02 -0.23954E-06
 0.94950005E+02  0.23322E-05
 0.95000000E+02  0.38833E-05
 0.95050003E+02  0.48182E-05
 0.95099998E+02  0.54279E-05
 0.95150002E+02  0.50952E-05
 0.95200005E+02  0.39481E-05
 0.95250000E+02  0.30823E-05
 0.95300003E+02  0.23469E-05
 0.95349998E+02  0.21704E-05
 0.95400002E+02  0.23348E-05
 0.95450005E+02  0.10395E-05
 0.95500000E+02 -0.18414E-05
 0.95550003E+02 -0.49198E-05
 0.95599998E+02 -0.63295E-05
 0.95650002E+02 -0.55299E-05
 0.95700005E+02 -0.33954E-05
 0.95750000E+02 -0.10230E-05
 0.95800003E+02  0.11154E-05
 0.95849998E+02  0.28682E-05
 0.95900002E+02  0.39198E-05
 0.95950005E+02  0.32483E-05
 0.96000000E+02  0.10381E-05
 0.96050003E+02 -0.63600E-06
 0.96099998E+02 -0.19959E-05
 0.96150002E+02 -0.29101E-05
 0.96200005E+02 -0.26950E-05
 0.96250000E+02 -0.21992E-05
 0.96300003E+02 -0.16727E-05
 0.96349998E+02 -0.22178E-05
 0.96400002E+02 -0.33948E-05
 0.96450005E+02 -0.30025E-05
 0.96500000E+02 -0.11120E-05
 0.96550003E+02  0.16563E-05
 0.96599998E+02  0.45627E-05
 0.96650002E+02  0.70225E-05
 0.96700005E+02  0.89156E-05
 0.96750000E+02  0.91347E-05
 0.96800003E+02  0.78680E-05
 0.96849998E+02  0.64198E-05
 0.96900002E+02  0.54755E-05
 0.96950005E+02  0.51085E-05
 0.97000000E+02  0.32776E-05
 0.97050003E+02 -0.14047E-05
 0.97099998E+02 -0.63710E-05
 0.97150002E+02 -0.93702E-05
 0.97200005E+02 -0.10696E-04
 0.97250000E+02 -0.10540E-04
 0.97300003E+02 -0.90404E-05
 0.97349998E+02 -0.70304E-05
 0.97400002E+02 -0.54298E-05
 0.97450005E+02 -0.43515E-05
 0.97500000E+02 -0.32493E-05
 0.97550003E+02 -0.12260E-05
 0.97599998E+02  0.17956E-05
 0.97650002E+02  0.46127E-05
 0.97700005E+02  0.71284E-05
 0.97750000E+02  0.93199E-05
 0.97800003E+02  0.10449E-04
 0.97849998E+02  0.10121E-04
 0.97900002E+02  0.77969E-05
 0.97950005E+02  0.39194E-05
 0.98000000E+02  0.13115E-06
 0.98050003E+02 -0.29798E-05
 0.98099998E+02 -0.54905E-05
 0.98150002E+02 -0.67335E-05
 0.98200005E+02 -0.69261E-05
 0.98250000E+02 -0.68115E-05
 0.98300003E+02 -0.62290E-05
 0.98349998E+02 -0.49578E-05
 0.98400002E+02 -0.34388E-05
 0.98450005E+02 -0.18026E-05
 0.98500000E+02  0.28009E-06
 0.98550003E+02  0.23011E-05
 0.98599998E+02  0.36492E-05
 0.98650002E+02  0.46178E-05
 0.98700005E+02  0.53848E-05
 0.98750000E+02  0.54735E-05
 0.98800003E+02  0.53681E-05
 0.98849998E+02  0.53098E-05
 0.98900002E+02  0.41597E-05
 0.98950005E+02  0.21268E-05
 0.99000000E+02  0.26522E-06
 0.99050003E+02 -0.15394E-05
 0.99099998E+02 -0.31358E-05
 0.99150002E+02 -0.36977E-05
 0.99200005E+02 -0.33295E-05
 0.99250000E+02 -0.25687E-05
 0.99300003E+02 -0.21239E-05
 0.99349998E+02 -0.23847E-05
 0.99400002E+02 -0.28009E-05
 0.99450005E+02 -0.27371E-05
 0.99500000E+02 -0.18500E-05
 0.99550003E+02 -0.50873E-06
 0.99599998E+02  0.25108E-06
 0.99650002E+02  0.11356E-06
 0.99700005E+02 -0.43947E-06
 0.99750000E+02 -0.12604E-05
 0.99800003E+02 -0.20688E-05
 0.99849998E+02 -0.25191E-05
 0.99900002E+02 -0.19678E-05
 0.99950005E+02 -0.34101E-06
 0.10000000E+03  0.83409E-06
