 0.00000000E+00  0.70489E-06
 0.50000001E-01  0.69970E-06
 0.10000000E+00  0.75330E-06
 0.15000001E+00  0.79328E-06
 0.20000000E+00  0.66715E-06
 0.25000000E+00  0.55745E-06
 0.30000001E+00  0.33394E-06
 0.34999999E+00  0.26769E-07
 0.40000001E+00 -0.20957E-06
 0.45000002E+00 -0.23339E-06
 0.50000000E+00 -0.48386E-06
 0.55000001E+00 -0.70607E-06
 0.60000002E+00 -0.85003E-06
 0.65000004E+00 -0.11741E-05
 0.69999999E+00 -0.11446E-05
 0.75000000E+00 -0.10115E-05
 0.80000001E+00 -0.92432E-06
 0.85000002E+00 -0.86058E-06
 0.90000004E+00 -0.65935E-06
 0.94999999E+00 -0.27550E-06
 0.10000000E+01  0.28094E-07
 0.10500001E+01  0.31940E-06
 0.11000000E+01  0.51934E-06
 0.11500000E+01  0.43899E-06
 0.12000000E+01  0.37508E-06
 0.12500000E+01  0.37006E-06
 0.13000001E+01  0.22937E-06
 0.13500000E+01  0.27169E-06
 0.14000000E+01  0.22360E-06
 0.14500000E+01  0.25102E-07
 0.15000000E+01 -0.10581E-06
 0.15500001E+01 -0.81793E-07
 0.16000000E+01  0.53393E-08
 0.16500000E+01 -0.57124E-07
 0.17000000E+01  0.43436E-08
 0.17500000E+01  0.11271E-06
 0.18000001E+01  0.21955E-06
 0.18500000E+01  0.35340E-06
 0.19000000E+01  0.38447E-06
 0.19500000E+01  0.33505E-06
 0.20000000E+01  0.31681E-06
 0.20500000E+01  0.27362E-06
 0.21000001E+01  0.14035E-06
 0.21500001E+01  0.12846E-06
 0.22000000E+01  0.15819E-06
 0.22500000E+01  0.12610E-06
 0.23000000E+01  0.15132E-06
 0.23500001E+01  0.18140E-06
 0.24000001E+01  0.14703E-06
 0.24500000E+01  0.42615E-07
 0.25000000E+01 -0.15713E-06
 0.25500000E+01 -0.33968E-06
 0.26000001E+01 -0.46603E-06
 0.26500001E+01 -0.52932E-06
 0.27000000E+01 -0.45366E-06
 0.27500000E+01 -0.39952E-06
 0.28000000E+01 -0.35527E-06
 0.28500001E+01 -0.32473E-06
 0.29000001E+01 -0.36677E-06
 0.29500000E+01 -0.34171E-06
 0.30000000E+01 -0.29056E-06
 0.30500000E+01 -0.20517E-06
 0.31000001E+01  0.83901E-09
 0.31500001E+01  0.18852E-06
 0.32000000E+01  0.28262E-06
 0.32500000E+01  0.35809E-06
 0.33000000E+01  0.57287E-06
 0.33500001E+01  0.78570E-06
 0.34000001E+01  0.57525E-06
 0.34500000E+01  0.49069E-06
 0.35000000E+01  0.51464E-06
 0.35500000E+01  0.19529E-06
 0.36000001E+01  0.91171E-08
 0.36500001E+01  0.91225E-08
 0.37000000E+01  0.12091E-06
 0.37500000E+01  0.89125E-07
 0.38000000E+01 -0.19427E-06
 0.38500001E+01 -0.38077E-06
 0.39000001E+01 -0.49267E-06
 0.39500000E+01 -0.57858E-06
 0.40000000E+01 -0.83002E-06
 0.40500002E+01 -0.82036E-06
 0.40999999E+01 -0.61381E-06
 0.41500001E+01 -0.84649E-06
 0.42000003E+01 -0.58318E-06
 0.42500000E+01 -0.27084E-06
 0.43000002E+01 -0.22071E-06
 0.43499999E+01  0.15559E-06
 0.44000001E+01  0.34947E-06
 0.44500003E+01  0.37136E-06
 0.45000000E+01  0.24592E-06
 0.45500002E+01  0.47594E-06
 0.45999999E+01  0.50133E-06
 0.46500001E+01  0.23781E-07
 0.47000003E+01  0.92867E-07
 0.47500000E+01  0.42310E-07
 0.48000002E+01  0.87217E-07
 0.48499999E+01  0.39252E-06
 0.49000001E+01  0.15187E-06
 0.49500003E+01  0.19161E-06
 0.50000000E+01  0.34059E-06
 0.50500002E+01  0.14403E-06
 0.50999999E+01  0.28036E-06
 0.51500001E+01  0.42347E-06
 0.52000003E+01  0.26542E-06
 0.52500000E+01  0.28449E-06
 0.53000002E+01  0.38638E-06
 0.53499999E+01  0.32883E-06
 0.54000001E+01  0.27568E-06
 0.54500003E+01  0.13712E-06
 0.55000000E+01  0.85872E-07
 0.55500002E+01  0.54687E-07
 0.55999999E+01 -0.24241E-06
 0.56500001E+01 -0.39568E-06
 0.57000003E+01 -0.46792E-06
 0.57500000E+01 -0.52338E-06
 0.58000002E+01 -0.43554E-06
 0.58499999E+01 -0.36074E-06
 0.59000001E+01 -0.18939E-06
 0.59500003E+01 -0.19459E-06
 0.60000000E+01 -0.34567E-06
 0.60500002E+01 -0.27748E-06
 0.60999999E+01 -0.26168E-06
 0.61500001E+01 -0.40025E-06
 0.62000003E+01 -0.52435E-06
 0.62500000E+01 -0.43690E-06
 0.63000002E+01 -0.35145E-06
 0.63499999E+01 -0.31417E-06
 0.64000001E+01 -0.11883E-06
 0.64500003E+01  0.18954E-06
 0.65000000E+01  0.46967E-06
 0.65500002E+01  0.44409E-06
 0.65999999E+01  0.54935E-06
 0.66500001E+01  0.58766E-06
 0.67000003E+01  0.42104E-06
 0.67500000E+01  0.27241E-06
 0.68000002E+01  0.55403E-07
 0.68499999E+01  0.29924E-08
 0.69000001E+01 -0.15287E-07
 0.69500003E+01  0.40009E-07
 0.70000000E+01 -0.53922E-07
 0.70500002E+01 -0.49467E-08
 0.70999999E+01  0.29480E-06
 0.71500001E+01  0.43157E-06
 0.72000003E+01  0.65752E-06
 0.72500000E+01  0.69336E-06
 0.73000002E+01  0.57769E-06
 0.73499999E+01  0.65956E-06
 0.74000001E+01  0.52527E-06
 0.74500003E+01  0.36421E-06
 0.75000000E+01  0.28029E-06
 0.75500002E+01 -0.11580E-06
 0.75999999E+01 -0.33510E-06
 0.76500001E+01 -0.36492E-06
 0.77000003E+01 -0.44181E-06
 0.77500000E+01 -0.67876E-06
 0.78000002E+01 -0.91891E-06
 0.78499999E+01 -0.85767E-06
 0.79000001E+01 -0.90015E-06
 0.79500003E+01 -0.83855E-06
 0.80000000E+01 -0.66494E-06
 0.80500002E+01 -0.44392E-06
 0.81000004E+01 -0.90106E-07
 0.81500006E+01  0.10750E-06
 0.81999998E+01  0.33589E-06
 0.82500000E+01  0.50941E-06
 0.83000002E+01  0.55372E-06
 0.83500004E+01  0.45692E-06
 0.84000006E+01  0.22909E-06
 0.84499998E+01  0.14117E-06
 0.85000000E+01 -0.47656E-07
 0.85500002E+01 -0.34832E-06
 0.86000004E+01 -0.45501E-06
 0.86500006E+01 -0.42331E-06
 0.86999998E+01 -0.37534E-06
 0.87500000E+01 -0.25625E-06
 0.88000002E+01 -0.10081E-06
 0.88500004E+01 -0.13991E-07
 0.89000006E+01  0.95572E-07
 0.89499998E+01  0.20965E-06
 0.90000000E+01  0.25962E-06
 0.90500002E+01  0.18340E-06
 0.91000004E+01  0.11312E-06
 0.91500006E+01  0.22486E-06
 0.91999998E+01  0.30166E-06
 0.92500000E+01  0.25931E-06
 0.93000002E+01  0.26407E-06
 0.93500004E+01  0.32092E-06
 0.94000006E+01  0.36974E-06
 0.94499998E+01  0.40441E-06
 0.95000000E+01  0.36110E-06
 0.95500002E+01  0.37201E-06
 0.96000004E+01  0.37487E-06
 0.96500006E+01  0.31004E-06
 0.96999998E+01  0.35130E-06
 0.97500000E+01  0.33269E-06
 0.98000002E+01  0.25685E-06
 0.98500004E+01  0.62979E-07
 0.99000006E+01 -0.14715E-06
 0.99499998E+01 -0.30823E-06
 0.10000000E+02 -0.60768E-06
 0.10050000E+02 -0.76521E-06
 0.10100000E+02 -0.81018E-06
 0.10150001E+02 -0.80032E-06
 0.10200000E+02 -0.77165E-06
 0.10250000E+02 -0.78027E-06
 0.10300000E+02 -0.69292E-06
 0.10350000E+02 -0.61842E-06
 0.10400001E+02 -0.52605E-06
 0.10450000E+02 -0.37623E-06
 0.10500000E+02 -0.53822E-07
 0.10550000E+02  0.31652E-06
 0.10600000E+02  0.45201E-06
 0.10650001E+02  0.64785E-06
 0.10700000E+02  0.82502E-06
 0.10750000E+02  0.94134E-06
 0.10800000E+02  0.10878E-05
 0.10850000E+02  0.10651E-05
 0.10900001E+02  0.10247E-05
 0.10950000E+02  0.97151E-06
 0.11000000E+02  0.10252E-05
 0.11050000E+02  0.91886E-06
 0.11100000E+02  0.56545E-06
 0.11150001E+02  0.26890E-06
 0.11200000E+02 -0.99274E-07
 0.11250000E+02 -0.33760E-06
 0.11300000E+02 -0.65021E-06
 0.11350000E+02 -0.97615E-06
 0.11400001E+02 -0.11589E-05
 0.11450000E+02 -0.12513E-05
 0.11500000E+02 -0.10019E-05
 0.11550000E+02 -0.90258E-06
 0.11600000E+02 -0.78067E-06
 0.11650001E+02 -0.26821E-06
 0.11700000E+02  0.55295E-07
 0.11750000E+02  0.10959E-06
 0.11800000E+02  0.19281E-07
 0.11850000E+02 -0.28746E-07
 0.11900001E+02 -0.93790E-07
 0.11950000E+02 -0.23349E-06
 0.12000000E+02 -0.23791E-06
 0.12050000E+02 -0.44316E-06
 0.12100000E+02 -0.69239E-06
 0.12150001E+02 -0.72605E-06
 0.12200000E+02 -0.63338E-06
 0.12250000E+02 -0.37304E-06
 0.12300000E+02 -0.57238E-07
 0.12350000E+02  0.25097E-06
 0.12400001E+02  0.64016E-06
 0.12450000E+02  0.90731E-06
 0.12500000E+02  0.85320E-06
 0.12550000E+02  0.77411E-06
 0.12600000E+02  0.64372E-06
 0.12650001E+02  0.50457E-06
 0.12700000E+02  0.31948E-06
 0.12750000E+02  0.50841E-07
 0.12800000E+02  0.64321E-09
 0.12850000E+02 -0.33157E-08
 0.12900001E+02  0.15301E-06
 0.12950000E+02  0.46315E-06
 0.13000000E+02  0.69668E-06
 0.13050000E+02  0.80924E-06
 0.13100000E+02  0.81292E-06
 0.13150001E+02  0.83230E-06
 0.13200000E+02  0.67076E-06
 0.13250000E+02  0.46210E-06
 0.13300000E+02  0.13922E-06
 0.13350000E+02 -0.25385E-06
 0.13400001E+02 -0.47474E-06
 0.13450000E+02 -0.83763E-06
 0.13500000E+02 -0.94523E-06
 0.13550000E+02 -0.92369E-06
 0.13600000E+02 -0.95422E-06
 0.13650001E+02 -0.70581E-06
 0.13700000E+02 -0.47390E-06
 0.13750000E+02 -0.32810E-06
 0.13800000E+02 -0.18820E-06
 0.13850000E+02  0.11817E-08
 0.13900001E+02  0.19570E-07
 0.13950000E+02  0.13595E-06
 0.14000000E+02  0.23495E-06
 0.14050000E+02  0.40009E-08
 0.14100000E+02 -0.93584E-07
 0.14150001E+02 -0.38004E-06
 0.14200000E+02 -0.50970E-06
 0.14250000E+02 -0.46451E-06
 0.14300000E+02 -0.55586E-06
 0.14350000E+02 -0.40611E-06
 0.14400001E+02 -0.35467E-06
 0.14450000E+02 -0.10853E-06
 0.14500000E+02 -0.29355E-07
 0.14550000E+02 -0.50271E-07
 0.14600000E+02  0.32430E-06
 0.14650001E+02  0.48794E-06
 0.14700000E+02  0.65826E-06
 0.14750000E+02  0.61800E-06
 0.14800000E+02  0.61531E-06
 0.14850000E+02  0.72848E-06
 0.14900001E+02  0.49335E-06
 0.14950000E+02  0.30992E-06
 0.15000000E+02  0.12542E-06
 0.15050000E+02 -0.65282E-07
 0.15100000E+02 -0.27579E-06
 0.15150001E+02 -0.33906E-06
 0.15200000E+02 -0.35526E-06
 0.15250000E+02 -0.34792E-06
 0.15300000E+02 -0.16746E-06
 0.15350000E+02 -0.14507E-06
 0.15400001E+02  0.69739E-07
 0.15450000E+02  0.18125E-06
 0.15500000E+02  0.14889E-06
 0.15550000E+02  0.32245E-06
 0.15600000E+02  0.38943E-06
 0.15650001E+02  0.38584E-06
 0.15700000E+02  0.28453E-06
 0.15750000E+02  0.19479E-06
 0.15800000E+02  0.29732E-07
 0.15850000E+02 -0.29941E-06
 0.15900001E+02 -0.47501E-06
 0.15950000E+02 -0.51420E-06
 0.16000000E+02 -0.54887E-06
 0.16050001E+02 -0.51685E-06
 0.16100000E+02 -0.45384E-06
 0.16150000E+02 -0.24316E-06
 0.16200001E+02  0.37040E-07
 0.16250000E+02  0.67567E-07
 0.16300001E+02  0.50569E-07
 0.16350000E+02  0.21455E-06
 0.16400000E+02  0.24717E-06
 0.16450001E+02  0.16052E-06
 0.16500000E+02  0.24779E-06
 0.16550001E+02  0.27210E-06
 0.16600000E+02  0.40218E-06
 0.16650000E+02  0.52576E-06
 0.16700001E+02  0.45218E-06
 0.16750000E+02  0.50120E-06
 0.16800001E+02  0.53846E-06
 0.16850000E+02  0.50385E-06
 0.16900000E+02  0.37633E-06
 0.16950001E+02  0.14768E-06
 0.17000000E+02 -0.84259E-07
 0.17050001E+02 -0.17285E-06
 0.17100000E+02 -0.36325E-06
 0.17150000E+02 -0.64307E-06
 0.17200001E+02 -0.81665E-06
 0.17250000E+02 -0.10769E-05
 0.17300001E+02 -0.10753E-05
 0.17350000E+02 -0.96787E-06
 0.17400000E+02 -0.84474E-06
 0.17450001E+02 -0.55901E-06
 0.17500000E+02 -0.31401E-06
 0.17550001E+02  0.53382E-08
 0.17600000E+02  0.29077E-06
 0.17650000E+02  0.55155E-06
 0.17700001E+02  0.69674E-06
 0.17750000E+02  0.76598E-06
 0.17800001E+02  0.79590E-06
 0.17850000E+02  0.61067E-06
 0.17900000E+02  0.55850E-06
 0.17950001E+02  0.35909E-06
 0.18000000E+02 -0.95469E-07
 0.18050001E+02 -0.17242E-06
 0.18100000E+02 -0.17169E-06
 0.18150000E+02 -0.38849E-06
 0.18200001E+02 -0.30912E-06
 0.18250000E+02 -0.11388E-06
 0.18300001E+02 -0.68193E-07
 0.18350000E+02  0.12868E-06
 0.18400000E+02  0.26686E-06
 0.18450001E+02  0.18562E-06
 0.18500000E+02  0.14466E-06
 0.18550001E+02  0.12616E-06
 0.18600000E+02  0.35191E-07
 0.18650000E+02 -0.58082E-07
 0.18700001E+02 -0.11038E-06
 0.18750000E+02 -0.15221E-06
 0.18800001E+02 -0.81316E-07
 0.18850000E+02  0.14422E-06
 0.18900000E+02  0.21467E-06
 0.18950001E+02  0.24801E-06
 0.19000000E+02  0.29047E-06
 0.19050001E+02  0.26227E-06
 0.19100000E+02  0.25998E-06
 0.19150000E+02  0.21220E-06
 0.19200001E+02  0.20837E-06
 0.19250000E+02  0.96050E-07
 0.19300001E+02 -0.12864E-06
 0.19350000E+02 -0.19502E-06
 0.19400000E+02 -0.12213E-06
 0.19450001E+02 -0.14631E-06
 0.19500000E+02 -0.30770E-06
 0.19550001E+02 -0.41351E-06
 0.19600000E+02 -0.30322E-06
 0.19650000E+02 -0.25357E-06
 0.19700001E+02 -0.32850E-06
 0.19750000E+02 -0.29518E-06
 0.19800001E+02 -0.10707E-06
 0.19850000E+02  0.49194E-07
 0.19900000E+02 -0.22992E-07
 0.19950001E+02  0.35855E-07
 0.20000000E+02  0.61953E-08
 0.20050001E+02  0.59778E-07
 0.20100000E+02  0.98876E-07
 0.20150000E+02 -0.10679E-06
 0.20200001E+02 -0.10180E-07
 0.20250000E+02  0.16416E-06
 0.20300001E+02  0.20017E-06
 0.20350000E+02 -0.35513E-09
 0.20400000E+02 -0.10987E-06
 0.20450001E+02 -0.87686E-07
 0.20500000E+02  0.12408E-07
 0.20550001E+02  0.17318E-06
 0.20600000E+02  0.82169E-07
 0.20650000E+02 -0.77836E-07
 0.20700001E+02 -0.20471E-06
 0.20750000E+02 -0.16253E-06
 0.20800001E+02 -0.43599E-07
 0.20850000E+02  0.20290E-07
 0.20900000E+02 -0.18552E-07
 0.20950001E+02  0.15032E-06
 0.21000000E+02  0.44996E-06
 0.21050001E+02  0.56372E-06
 0.21100000E+02  0.61714E-06
 0.21150000E+02  0.45403E-06
 0.21200001E+02  0.44643E-06
 0.21250000E+02  0.35802E-06
 0.21300001E+02  0.11142E-06
 0.21350000E+02 -0.68089E-07
 0.21400000E+02 -0.36304E-06
 0.21450001E+02 -0.60314E-06
 0.21500000E+02 -0.85457E-06
 0.21550001E+02 -0.87597E-06
 0.21600000E+02 -0.80693E-06
 0.21650000E+02 -0.65397E-06
 0.21700001E+02 -0.40957E-06
 0.21750000E+02 -0.32417E-06
 0.21800001E+02 -0.71411E-07
 0.21850000E+02  0.11201E-06
 0.21900000E+02  0.19808E-06
 0.21950001E+02  0.36196E-06
 0.22000000E+02  0.39254E-06
 0.22050001E+02  0.35042E-06
 0.22100000E+02  0.19546E-06
 0.22150000E+02  0.28246E-07
 0.22200001E+02 -0.16109E-07
 0.22250000E+02 -0.17835E-07
 0.22300001E+02  0.14776E-06
 0.22350000E+02  0.39244E-06
 0.22400000E+02  0.54135E-06
 0.22450001E+02  0.65630E-06
 0.22500000E+02  0.74755E-06
 0.22550001E+02  0.78510E-06
 0.22600000E+02  0.73754E-06
 0.22650000E+02  0.68243E-06
 0.22700001E+02  0.44765E-06
 0.22750000E+02  0.97107E-07
 0.22800001E+02 -0.71630E-07
 0.22850000E+02 -0.42360E-06
 0.22900000E+02 -0.70334E-06
 0.22950001E+02 -0.66734E-06
 0.23000000E+02 -0.61638E-06
 0.23050001E+02 -0.48428E-06
 0.23100000E+02 -0.33555E-06
 0.23150000E+02 -0.22592E-06
 0.23200001E+02 -0.16225E-06
 0.23250000E+02 -0.18529E-06
 0.23300001E+02 -0.33489E-06
 0.23350000E+02 -0.35212E-06
 0.23400000E+02 -0.33616E-06
 0.23450001E+02 -0.40380E-06
 0.23500000E+02 -0.43541E-06
 0.23550001E+02 -0.48935E-06
 0.23600000E+02 -0.47160E-06
 0.23650000E+02 -0.14677E-06
 0.23700001E+02  0.54660E-06
 0.23750000E+02  0.11200E-05
 0.23800001E+02  0.15338E-05
 0.23850000E+02  0.15526E-05
 0.23900000E+02  0.30596E-06
 0.23950001E+02 -0.20053E-05
 0.24000000E+02 -0.24366E-05
 0.24050001E+02 -0.14019E-05
 0.24100000E+02  0.34506E-05
 0.24150000E+02  0.86048E-05
 0.24200001E+02  0.82013E-05
 0.24250000E+02  0.90639E-05
 0.24300001E+02 -0.49444E-06
 0.24350000E+02 -0.15554E-04
 0.24400000E+02 -0.18359E-04
 0.24450001E+02 -0.18170E-04
 0.24500000E+02 -0.93532E-05
 0.24550001E+02  0.89703E-05
 0.24600000E+02  0.19723E-04
 0.24650000E+02  0.18217E-04
 0.24700001E+02  0.87195E-05
 0.24750000E+02 -0.40000E-05
 0.24800001E+02 -0.17572E-04
 0.24850000E+02 -0.21983E-04
 0.24900000E+02 -0.12351E-04
 0.24950001E+02 -0.21889E-05
 0.25000000E+02  0.86507E-05
 0.25050001E+02  0.14623E-04
 0.25100000E+02  0.11306E-04
 0.25150000E+02  0.10732E-04
 0.25200001E+02  0.79788E-05
 0.25250000E+02  0.25343E-05
 0.25300001E+02 -0.48551E-05
 0.25350000E+02 -0.10181E-04
 0.25400000E+02 -0.14591E-04
 0.25450001E+02 -0.11539E-04
 0.25500000E+02  0.12146E-05
 0.25550001E+02  0.84106E-05
 0.25600000E+02  0.21249E-04
 0.25650000E+02  0.24496E-04
 0.25700001E+02  0.98178E-05
 0.25750000E+02 -0.65220E-05
 0.25800001E+02 -0.16206E-04
 0.25850000E+02 -0.11878E-04
 0.25900000E+02 -0.10570E-04
 0.25950001E+02  0.27599E-05
 0.26000000E+02  0.15615E-04
 0.26050001E+02  0.38117E-05
 0.26100000E+02  0.39868E-05
 0.26150000E+02  0.28066E-05
 0.26200001E+02 -0.84755E-05
 0.26250000E+02 -0.94448E-05
 0.26300001E+02 -0.25328E-05
 0.26350000E+02 -0.63444E-05
 0.26400000E+02 -0.13650E-04
 0.26450001E+02 -0.32057E-05
 0.26500000E+02 -0.35534E-05
 0.26550001E+02 -0.34267E-05
 0.26600000E+02  0.53693E-05
 0.26650000E+02  0.46942E-05
 0.26700001E+02  0.89399E-06
 0.26750000E+02  0.22167E-05
 0.26800001E+02  0.84211E-05
 0.26850000E+02  0.63861E-05
 0.26900000E+02  0.15717E-05
 0.26950001E+02 -0.13324E-05
 0.27000000E+02  0.18801E-05
 0.27050001E+02 -0.10238E-05
 0.27100000E+02 -0.22189E-05
 0.27150000E+02  0.55669E-05
 0.27200001E+02  0.19359E-05
 0.27250000E+02  0.25136E-05
 0.27300001E+02  0.43931E-05
 0.27350000E+02 -0.79941E-05
 0.27400000E+02 -0.16237E-04
 0.27450001E+02 -0.58245E-05
 0.27500000E+02 -0.34966E-05
 0.27550001E+02 -0.88828E-05
 0.27600000E+02  0.40068E-05
 0.27650000E+02  0.11710E-04
 0.27700001E+02  0.43127E-05
 0.27750000E+02  0.71052E-05
 0.27800001E+02  0.85555E-05
 0.27850000E+02 -0.68725E-05
 0.27900000E+02 -0.77499E-05
 0.27950001E+02  0.14890E-05
 0.28000000E+02 -0.19196E-05
 0.28050001E+02  0.19005E-05
 0.28100000E+02  0.84981E-05
 0.28150000E+02  0.67549E-05
 0.28200001E+02  0.22786E-06
 0.28250000E+02  0.12795E-05
 0.28300001E+02  0.57898E-05
 0.28350000E+02 -0.36131E-05
 0.28400000E+02 -0.16539E-05
 0.28450001E+02 -0.25119E-05
 0.28500000E+02 -0.10247E-04
 0.28550001E+02  0.46788E-06
 0.28600000E+02  0.63348E-05
 0.28650000E+02  0.25868E-05
 0.28700001E+02 -0.13273E-05
 0.28750000E+02 -0.23297E-05
 0.28800001E+02 -0.85932E-05
 0.28850000E+02 -0.94615E-05
 0.28900000E+02 -0.21741E-05
 0.28950001E+02  0.15501E-05
 0.29000000E+02  0.67633E-05
 0.29050001E+02  0.25152E-05
 0.29100000E+02  0.76906E-06
 0.29150000E+02 -0.19996E-05
 0.29200001E+02  0.31740E-05
 0.29250000E+02  0.12941E-04
 0.29300001E+02  0.44299E-05
 0.29350000E+02  0.50268E-05
 0.29400000E+02 -0.39652E-05
 0.29450001E+02 -0.13250E-04
 0.29500000E+02 -0.69123E-06
 0.29550001E+02  0.11557E-05
 0.29600000E+02 -0.49631E-05
 0.29650000E+02 -0.70523E-05
 0.29700001E+02 -0.70180E-06
 0.29750000E+02 -0.19613E-06
 0.29800001E+02 -0.21740E-05
 0.29850000E+02 -0.23160E-05
 0.29900000E+02 -0.90456E-05
 0.29950001E+02 -0.36189E-05
 0.30000000E+02  0.36071E-05
 0.30050001E+02  0.50998E-05
 0.30100000E+02  0.69051E-05
 0.30150000E+02  0.92739E-05
 0.30200001E+02  0.56594E-05
 0.30250000E+02 -0.60096E-05
 0.30300001E+02 -0.66163E-05
 0.30350000E+02  0.70575E-06
 0.30400000E+02 -0.44344E-05
 0.30450001E+02 -0.88153E-05
 0.30500000E+02  0.51422E-05
 0.30550001E+02  0.17107E-04
 0.30600000E+02  0.18641E-04
 0.30650000E+02  0.17592E-04
 0.30700001E+02  0.62469E-05
 0.30750000E+02 -0.12099E-04
 0.30800001E+02 -0.23738E-04
 0.30850000E+02 -0.17639E-04
 0.30900000E+02  0.14908E-05
 0.30950001E+02  0.14657E-04
 0.31000000E+02  0.15036E-04
 0.31050001E+02  0.35129E-05
 0.31100000E+02 -0.65427E-05
 0.31150000E+02 -0.83297E-05
 0.31200001E+02 -0.14779E-04
 0.31250000E+02 -0.24058E-04
 0.31300001E+02 -0.11839E-04
 0.31350000E+02  0.24417E-05
 0.31400000E+02  0.73196E-05
 0.31450001E+02  0.25764E-04
 0.31500000E+02  0.26348E-04
 0.31550001E+02  0.13519E-04
 0.31600000E+02  0.74865E-05
 0.31650000E+02 -0.54634E-05
 0.31700001E+02 -0.22008E-04
 0.31750000E+02 -0.28219E-04
 0.31800001E+02 -0.13170E-04
 0.31850000E+02  0.20438E-05
 0.31900000E+02  0.75238E-05
 0.31950001E+02  0.41380E-05
 0.32000000E+02  0.49087E-06
 0.32049999E+02  0.71417E-05
 0.32100002E+02  0.31813E-05
 0.32150002E+02 -0.44413E-06
 0.32200001E+02  0.13243E-04
 0.32250000E+02  0.11647E-04
 0.32299999E+02 -0.84408E-05
 0.32350002E+02 -0.13020E-04
 0.32400002E+02 -0.91068E-05
 0.32450001E+02 -0.10983E-04
 0.32500000E+02 -0.23920E-05
 0.32549999E+02  0.14808E-04
 0.32600002E+02  0.15563E-04
 0.32650002E+02  0.27955E-05
 0.32700001E+02 -0.39040E-05
 0.32750000E+02 -0.79828E-05
 0.32799999E+02 -0.18411E-04
 0.32850002E+02 -0.22670E-04
 0.32900002E+02 -0.25195E-05
 0.32950001E+02  0.12263E-04
 0.33000000E+02  0.82155E-05
 0.33049999E+02  0.13988E-04
 0.33100002E+02  0.18121E-04
 0.33150002E+02  0.92056E-05
 0.33200001E+02  0.48962E-05
 0.33250000E+02  0.80385E-05
 0.33299999E+02  0.10124E-04
 0.33350002E+02  0.38584E-05
 0.33400002E+02 -0.11043E-04
 0.33450001E+02 -0.11866E-04
 0.33500000E+02 -0.12064E-04
 0.33549999E+02 -0.15572E-04
 0.33600002E+02 -0.68448E-05
 0.33650002E+02 -0.49377E-05
 0.33700001E+02 -0.44021E-05
 0.33750000E+02  0.27506E-05
 0.33799999E+02  0.93021E-05
 0.33850002E+02  0.76227E-05
 0.33900002E+02  0.99256E-05
 0.33950001E+02  0.12014E-04
 0.34000000E+02 -0.39089E-05
 0.34049999E+02 -0.16744E-04
 0.34100002E+02 -0.15436E-04
 0.34150002E+02 -0.34582E-05
 0.34200001E+02  0.10115E-04
 0.34250000E+02  0.13417E-04
 0.34299999E+02  0.12973E-04
 0.34350002E+02  0.69911E-05
 0.34400002E+02 -0.38312E-05
 0.34450001E+02 -0.71169E-05
 0.34500000E+02 -0.17433E-04
 0.34549999E+02 -0.24822E-04
 0.34600002E+02 -0.69117E-05
 0.34650002E+02  0.96278E-05
 0.34700001E+02  0.36959E-05
 0.34750000E+02 -0.96523E-05
 0.34799999E+02 -0.17310E-05
 0.34850002E+02  0.11474E-04
 0.34900002E+02  0.88107E-05
 0.34950001E+02  0.11414E-04
 0.35000000E+02  0.15899E-04
 0.35049999E+02  0.20399E-05
 0.35100002E+02 -0.92341E-05
 0.35150002E+02  0.98725E-06
 0.35200001E+02  0.65258E-05
 0.35250000E+02  0.56800E-05
 0.35299999E+02 -0.53383E-06
 0.35350002E+02 -0.71759E-05
 0.35400002E+02 -0.96763E-06
 0.35450001E+02 -0.26512E-05
 0.35500000E+02 -0.19679E-05
 0.35549999E+02  0.61964E-05
 0.35600002E+02  0.62502E-05
 0.35650002E+02  0.55265E-05
 0.35700001E+02 -0.20441E-05
 0.35750000E+02 -0.12023E-04
 0.35799999E+02 -0.12358E-04
 0.35850002E+02 -0.14606E-04
 0.35900002E+02 -0.95469E-05
 0.35950001E+02  0.35639E-05
 0.36000000E+02  0.46933E-05
 0.36049999E+02  0.34819E-05
 0.36100002E+02  0.94847E-05
 0.36150002E+02  0.98885E-05
 0.36200001E+02  0.17152E-06
 0.36250000E+02 -0.28978E-05
 0.36299999E+02  0.36839E-05
 0.36350002E+02  0.25914E-05
 0.36400002E+02 -0.39847E-05
 0.36450001E+02 -0.32224E-05
 0.36500000E+02 -0.16044E-05
 0.36549999E+02  0.45817E-05
 0.36600002E+02  0.15996E-04
 0.36650002E+02  0.81095E-06
 0.36700001E+02 -0.15360E-04
 0.36750000E+02 -0.91030E-05
 0.36799999E+02 -0.12164E-04
 0.36850002E+02 -0.15843E-04
 0.36900002E+02 -0.98520E-05
 0.36950001E+02  0.59547E-05
 0.37000000E+02  0.88456E-05
 0.37049999E+02  0.72394E-06
 0.37100002E+02  0.86255E-05
 0.37150002E+02  0.15777E-04
 0.37200001E+02  0.16157E-04
 0.37250000E+02  0.97906E-05
 0.37299999E+02  0.49114E-05
 0.37350002E+02 -0.15417E-05
 0.37400002E+02 -0.57444E-05
 0.37450001E+02  0.19557E-05
 0.37500000E+02 -0.49569E-06
 0.37549999E+02 -0.11065E-04
 0.37600002E+02 -0.11089E-04
 0.37650002E+02 -0.65645E-05
 0.37700001E+02 -0.18544E-05
 0.37750000E+02  0.60709E-05
 0.37799999E+02  0.51056E-05
 0.37850002E+02  0.12218E-05
 0.37900002E+02 -0.45166E-05
 0.37950001E+02 -0.12874E-04
 0.38000000E+02 -0.61813E-05
 0.38049999E+02 -0.35697E-05
 0.38100002E+02 -0.63024E-05
 0.38150002E+02  0.58003E-05
 0.38200001E+02  0.53499E-05
 0.38250000E+02  0.51989E-05
 0.38299999E+02  0.11898E-04
 0.38350002E+02  0.53372E-05
 0.38400002E+02  0.66760E-05
 0.38450001E+02  0.24141E-05
 0.38500000E+02 -0.34442E-06
 0.38549999E+02 -0.19636E-05
 0.38600002E+02 -0.11870E-04
 0.38650002E+02 -0.87258E-05
 0.38700001E+02 -0.43300E-05
 0.38750000E+02  0.95954E-06
 0.38799999E+02  0.80813E-05
 0.38850002E+02  0.11330E-04
 0.38900002E+02  0.14166E-04
 0.38950001E+02  0.86328E-05
 0.39000000E+02 -0.79745E-05
 0.39049999E+02 -0.11762E-04
 0.39100002E+02 -0.78021E-05
 0.39150002E+02 -0.93666E-05
 0.39200001E+02 -0.48585E-06
 0.39250000E+02  0.41937E-05
 0.39299999E+02 -0.13107E-05
 0.39350002E+02 -0.42627E-05
 0.39400002E+02  0.70826E-05
 0.39450001E+02  0.15810E-04
 0.39500000E+02  0.27754E-05
 0.39549999E+02 -0.53109E-05
 0.39600002E+02 -0.11351E-04
 0.39650002E+02 -0.18722E-04
 0.39700001E+02 -0.12229E-04
 0.39750000E+02 -0.28291E-05
 0.39799999E+02  0.36431E-05
 0.39850002E+02  0.80370E-05
 0.39900002E+02  0.79489E-05
 0.39950001E+02  0.10529E-04
 0.40000000E+02  0.96978E-05
 0.40049999E+02  0.17508E-05
 0.40100002E+02 -0.40235E-05
 0.40150002E+02 -0.13131E-06
 0.40200001E+02 -0.98907E-06
 0.40250000E+02 -0.46918E-05
 0.40299999E+02  0.59561E-05
 0.40350002E+02  0.12641E-05
 0.40400002E+02 -0.50483E-05
 0.40450001E+02  0.53674E-05
 0.40500000E+02  0.12908E-04
 0.40549999E+02  0.46974E-05
 0.40600002E+02 -0.94507E-05
 0.40650002E+02 -0.44990E-05
 0.40700001E+02  0.20278E-05
 0.40750000E+02  0.12585E-05
 0.40799999E+02  0.65897E-07
 0.40850002E+02  0.20682E-05
 0.40900002E+02  0.21599E-05
 0.40950001E+02 -0.10515E-04
 0.41000000E+02 -0.15580E-04
 0.41049999E+02 -0.14640E-04
 0.41100002E+02 -0.17518E-04
 0.41150002E+02 -0.11318E-04
 0.41200001E+02  0.28207E-05
 0.41250000E+02  0.18566E-04
 0.41299999E+02  0.29529E-04
 0.41350002E+02  0.21689E-04
 0.41400002E+02 -0.92243E-05
 0.41450001E+02 -0.26819E-04
 0.41500000E+02 -0.33568E-04
 0.41549999E+02 -0.33444E-04
 0.41600002E+02  0.76350E-05
 0.41650002E+02  0.47061E-04
 0.41700001E+02  0.45648E-04
 0.41750000E+02  0.26561E-04
 0.41799999E+02 -0.59316E-05
 0.41850002E+02 -0.22652E-04
 0.41900002E+02 -0.14415E-04
 0.41950001E+02 -0.43402E-04
 0.42000000E+02 -0.35884E-04
 0.42049999E+02  0.77322E-05
 0.42100002E+02  0.89090E-05
 0.42150002E+02  0.52333E-04
 0.42200001E+02  0.71360E-04
 0.42250000E+02  0.65334E-04
 0.42299999E+02  0.26061E-04
 0.42350002E+02 -0.69659E-04
 0.42400002E+02 -0.25213E-04
 0.42450001E+02 -0.37018E-04
 0.42500000E+02 -0.80832E-04
 0.42549999E+02 -0.11869E-05
 0.42600002E+02  0.56212E-05
 0.42650002E+02  0.19924E-04
 0.42700001E+02  0.31047E-06
 0.42750000E+02 -0.14944E-04
 0.42799999E+02  0.37635E-04
 0.42850002E+02  0.70779E-04
 0.42900002E+02  0.80963E-04
 0.42950001E+02 -0.35667E-04
 0.43000000E+02 -0.65837E-04
 0.43049999E+02  0.33571E-04
 0.43100002E+02  0.70151E-04
 0.43150002E+02  0.18211E-04
 0.43200001E+02 -0.16315E-04
 0.43250000E+02  0.32461E-04
 0.43299999E+02 -0.19855E-04
 0.43350002E+02  0.84539E-05
 0.43400002E+02  0.21265E-04
 0.43450001E+02 -0.10062E-03
 0.43500000E+02 -0.12471E-03
 0.43549999E+02 -0.20812E-03
 0.43600002E+02 -0.17751E-03
 0.43650002E+02  0.37048E-04
 0.43700001E+02  0.12814E-03
 0.43750000E+02  0.13470E-03
 0.43799999E+02  0.73838E-04
 0.43850002E+02  0.34629E-04
 0.43900002E+02  0.58196E-04
 0.43950001E+02 -0.52991E-05
 0.44000000E+02 -0.12837E-04
 0.44049999E+02 -0.61759E-04
 0.44100002E+02 -0.14223E-03
 0.44150002E+02 -0.45752E-04
 0.44200001E+02  0.48133E-04
 0.44250000E+02  0.13340E-03
 0.44299999E+02  0.16196E-03
 0.44350002E+02  0.12211E-04
 0.44400002E+02 -0.79703E-04
 0.44450001E+02 -0.85449E-04
 0.44500000E+02 -0.11330E-03
 0.44549999E+02 -0.11684E-04
 0.44600002E+02  0.22504E-04
 0.44650002E+02  0.29268E-04
 0.44700001E+02  0.15681E-03
 0.44750000E+02  0.13879E-03
 0.44799999E+02  0.99009E-04
 0.44850002E+02  0.14099E-04
 0.44900002E+02 -0.13935E-03
 0.44950001E+02 -0.15303E-03
 0.45000000E+02 -0.86126E-04
 0.45049999E+02 -0.27833E-07
 0.45100002E+02  0.38980E-04
 0.45150002E+02  0.36167E-04
 0.45200001E+02  0.74711E-04
 0.45250000E+02  0.82572E-04
 0.45299999E+02  0.59411E-04
 0.45350002E+02  0.43865E-04
 0.45400002E+02 -0.25778E-04
 0.45450001E+02 -0.16061E-03
 0.45500000E+02 -0.15428E-03
 0.45549999E+02 -0.40363E-04
 0.45600002E+02 -0.84625E-04
 0.45650002E+02  0.15920E-04
 0.45700001E+02  0.11238E-03
 0.45750000E+02  0.16192E-04
 0.45799999E+02  0.83018E-04
 0.45850002E+02  0.74064E-04
 0.45900002E+02 -0.19477E-05
 0.45950001E+02 -0.31949E-04
 0.46000000E+02 -0.12125E-03
 0.46049999E+02 -0.90267E-04
 0.46100002E+02 -0.17201E-04
 0.46150002E+02  0.30997E-04
 0.46200001E+02  0.34343E-04
 0.46250000E+02  0.75240E-05
 0.46299999E+02  0.64821E-04
 0.46350002E+02  0.69214E-04
 0.46400002E+02  0.51879E-04
 0.46450001E+02  0.66610E-04
 0.46500000E+02 -0.57747E-05
 0.46549999E+02 -0.84451E-04
 0.46600002E+02 -0.42324E-04
 0.46650002E+02 -0.11356E-04
 0.46700001E+02 -0.12100E-04
 0.46750000E+02  0.46309E-04
 0.46799999E+02 -0.55784E-05
 0.46850002E+02 -0.63705E-04
 0.46900002E+02 -0.83979E-05
 0.46950001E+02 -0.59125E-05
 0.47000000E+02  0.18284E-04
 0.47049999E+02  0.41903E-04
 0.47100002E+02 -0.46622E-05
 0.47150002E+02  0.11678E-05
 0.47200001E+02  0.22074E-05
 0.47250000E+02 -0.13874E-04
 0.47299999E+02  0.10174E-04
 0.47350002E+02  0.10185E-04
 0.47400002E+02 -0.21988E-04
 0.47450001E+02 -0.46146E-04
 0.47500000E+02 -0.13642E-04
 0.47549999E+02  0.21061E-04
 0.47600002E+02 -0.30340E-04
 0.47650002E+02 -0.74357E-04
 0.47700001E+02 -0.18442E-05
 0.47750000E+02  0.79721E-04
 0.47799999E+02  0.47629E-04
 0.47850002E+02  0.38281E-04
 0.47900002E+02  0.25263E-04
 0.47950001E+02 -0.61733E-04
 0.48000000E+02 -0.56586E-05
 0.48049999E+02  0.69869E-04
 0.48100002E+02 -0.32577E-04
 0.48150002E+02 -0.77473E-04
 0.48200001E+02 -0.29559E-04
 0.48250000E+02 -0.33261E-04
 0.48299999E+02  0.46531E-04
 0.48350002E+02  0.11987E-03
 0.48400002E+02  0.55410E-04
 0.48450001E+02  0.51427E-05
 0.48500000E+02 -0.34360E-04
 0.48549999E+02 -0.52747E-04
 0.48600002E+02 -0.51157E-04
 0.48650002E+02 -0.22605E-04
 0.48700001E+02  0.36474E-04
 0.48750000E+02  0.29054E-04
 0.48799999E+02  0.33870E-04
 0.48850002E+02  0.61900E-04
 0.48900002E+02  0.32554E-04
 0.48950001E+02 -0.23361E-04
 0.49000000E+02 -0.51054E-04
 0.49049999E+02 -0.39288E-04
 0.49100002E+02 -0.19441E-04
 0.49150002E+02 -0.25797E-04
 0.49200001E+02 -0.29865E-04
 0.49250000E+02 -0.87939E-05
 0.49299999E+02  0.22018E-04
 0.49350002E+02  0.59983E-04
 0.49400002E+02  0.19867E-04
 0.49450001E+02 -0.47344E-04
 0.49500000E+02 -0.49990E-04
 0.49549999E+02 -0.62026E-04
 0.49600002E+02 -0.34735E-04
 0.49650002E+02  0.30953E-04
 0.49700001E+02  0.55374E-04
 0.49750000E+02  0.71675E-04
 0.49799999E+02  0.91597E-04
 0.49850002E+02  0.73188E-04
 0.49900002E+02 -0.14021E-04
 0.49950001E+02 -0.71672E-04
 0.50000000E+02 -0.77009E-04
 0.50049999E+02 -0.77853E-04
 0.50100002E+02 -0.29795E-04
 0.50150002E+02  0.13130E-04
 0.50200001E+02  0.15992E-04
 0.50250000E+02  0.22912E-04
 0.50299999E+02  0.30957E-04
 0.50350002E+02  0.29155E-04
 0.50400002E+02  0.23607E-04
 0.50450001E+02  0.19715E-04
 0.50500000E+02 -0.10923E-04
 0.50549999E+02 -0.55571E-04
 0.50600002E+02 -0.48108E-04
 0.50650002E+02 -0.28248E-04
 0.50700001E+02 -0.18026E-04
 0.50750000E+02  0.29143E-04
 0.50799999E+02  0.42954E-04
 0.50850002E+02  0.24407E-04
 0.50900002E+02  0.45225E-04
 0.50950001E+02  0.50913E-04
 0.51000000E+02  0.34942E-04
 0.51049999E+02  0.38934E-05
 0.51100002E+02 -0.46555E-04
 0.51150002E+02 -0.72846E-04
 0.51200001E+02 -0.71380E-04
 0.51250000E+02 -0.51268E-04
 0.51299999E+02 -0.33089E-04
 0.51350002E+02  0.28298E-04
 0.51400002E+02  0.10139E-03
 0.51450001E+02  0.82947E-04
 0.51500000E+02  0.30605E-04
 0.51549999E+02 -0.18719E-04
 0.51600002E+02 -0.58432E-04
 0.51650002E+02 -0.70097E-04
 0.51700001E+02 -0.50185E-04
 0.51750000E+02  0.14150E-04
 0.51799999E+02  0.72297E-04
 0.51850002E+02  0.73480E-04
 0.51900002E+02  0.35673E-04
 0.51950001E+02  0.33729E-04
 0.52000000E+02 -0.23258E-05
 0.52049999E+02 -0.68255E-04
 0.52100002E+02 -0.62798E-04
 0.52150002E+02 -0.58863E-04
 0.52200001E+02 -0.31020E-04
 0.52250000E+02  0.22912E-04
 0.52299999E+02  0.64898E-04
 0.52350002E+02  0.68417E-04
 0.52400002E+02  0.34329E-04
 0.52450001E+02  0.23303E-04
 0.52500000E+02 -0.11533E-04
 0.52549999E+02 -0.48108E-04
 0.52600002E+02 -0.70097E-04
 0.52650002E+02 -0.95135E-04
 0.52700001E+02 -0.69020E-04
 0.52750000E+02 -0.10590E-04
 0.52799999E+02  0.34162E-04
 0.52850002E+02  0.72120E-04
 0.52900002E+02  0.68074E-04
 0.52950001E+02  0.17169E-04
 0.53000000E+02 -0.20227E-04
 0.53049999E+02 -0.36261E-04
 0.53100002E+02 -0.94438E-05
 0.53150002E+02  0.38731E-04
 0.53200001E+02  0.46424E-04
 0.53250000E+02  0.37067E-04
 0.53299999E+02  0.40137E-04
 0.53350002E+02  0.33271E-04
 0.53400002E+02 -0.69141E-05
 0.53450001E+02 -0.65688E-04
 0.53500000E+02 -0.96245E-04
 0.53549999E+02 -0.65630E-04
 0.53600002E+02 -0.20524E-04
 0.53650002E+02  0.13055E-04
 0.53700001E+02  0.29431E-04
 0.53750000E+02  0.25581E-04
 0.53799999E+02  0.52587E-04
 0.53850002E+02  0.66185E-04
 0.53900002E+02  0.45663E-04
 0.53950001E+02  0.23783E-04
 0.54000000E+02 -0.15744E-04
 0.54049999E+02 -0.58962E-04
 0.54100002E+02 -0.76275E-04
 0.54150002E+02 -0.46683E-04
 0.54200001E+02 -0.70923E-05
 0.54250000E+02  0.91211E-05
 0.54299999E+02  0.89352E-05
 0.54350002E+02  0.13597E-04
 0.54400002E+02  0.23079E-04
 0.54450001E+02  0.35280E-04
 0.54500000E+02  0.40513E-04
 0.54549999E+02 -0.71936E-05
 0.54600002E+02 -0.43701E-04
 0.54650002E+02 -0.43378E-04
 0.54700001E+02 -0.29035E-04
 0.54750000E+02  0.14015E-04
 0.54799999E+02  0.44140E-04
 0.54850002E+02  0.45173E-04
 0.54900002E+02  0.23775E-04
 0.54950001E+02 -0.12734E-05
 0.55000000E+02 -0.36884E-04
 0.55049999E+02 -0.68051E-04
 0.55100002E+02 -0.61849E-04
 0.55150002E+02 -0.46869E-04
 0.55200001E+02 -0.88985E-05
 0.55250000E+02  0.43930E-04
 0.55299999E+02  0.54369E-04
 0.55350002E+02  0.33730E-04
 0.55400002E+02  0.29438E-04
 0.55450001E+02  0.34020E-04
 0.55500000E+02  0.16281E-04
 0.55549999E+02  0.93403E-05
 0.55600002E+02  0.14579E-04
 0.55650002E+02 -0.56491E-05
 0.55700001E+02 -0.10587E-04
 0.55750000E+02 -0.47325E-05
 0.55799999E+02 -0.97366E-05
 0.55850002E+02 -0.82362E-05
 0.55900002E+02 -0.21454E-04
 0.55950001E+02 -0.28496E-04
 0.56000000E+02 -0.13978E-04
 0.56049999E+02 -0.31712E-05
 0.56100002E+02  0.23817E-05
 0.56150002E+02  0.66503E-05
 0.56200001E+02  0.54367E-05
 0.56250000E+02  0.86716E-05
 0.56299999E+02  0.15171E-04
 0.56350002E+02  0.34971E-05
 0.56400002E+02 -0.75092E-06
 0.56450001E+02  0.25084E-05
 0.56500000E+02 -0.11201E-04
 0.56549999E+02 -0.22666E-04
 0.56600002E+02 -0.38191E-04
 0.56650002E+02 -0.22002E-04
 0.56700001E+02  0.28158E-04
 0.56750000E+02  0.31346E-04
 0.56799999E+02  0.29417E-04
 0.56850002E+02  0.31106E-04
 0.56900002E+02  0.21397E-06
 0.56950001E+02  0.67062E-06
 0.57000000E+02  0.96332E-05
 0.57049999E+02 -0.15325E-04
 0.57100002E+02 -0.36058E-04
 0.57150002E+02 -0.24307E-04
 0.57200001E+02 -0.81367E-06
 0.57250000E+02  0.16050E-04
 0.57299999E+02  0.37988E-04
 0.57350002E+02  0.39942E-04
 0.57400002E+02  0.27173E-04
 0.57450001E+02  0.38203E-05
 0.57500000E+02 -0.37848E-04
 0.57549999E+02 -0.59179E-04
 0.57600002E+02 -0.58267E-04
 0.57650002E+02 -0.49289E-04
 0.57700001E+02 -0.37752E-04
 0.57750000E+02 -0.16653E-04
 0.57799999E+02  0.19724E-04
 0.57850002E+02  0.45726E-04
 0.57900002E+02  0.55009E-04
 0.57950001E+02  0.54986E-04
 0.58000000E+02  0.37921E-04
 0.58049999E+02  0.12839E-04
 0.58100002E+02  0.49586E-05
 0.58150002E+02 -0.15823E-04
 0.58200001E+02 -0.56919E-04
 0.58250000E+02 -0.63057E-04
 0.58299999E+02 -0.51601E-04
 0.58350002E+02 -0.33002E-04
 0.58400002E+02  0.19011E-04
 0.58450001E+02  0.54595E-04
 0.58500000E+02  0.52263E-04
 0.58549999E+02  0.49780E-04
 0.58600002E+02  0.36026E-04
 0.58650002E+02  0.27713E-05
 0.58700001E+02 -0.17268E-04
 0.58750000E+02 -0.80266E-05
 0.58799999E+02 -0.49400E-05
 0.58850002E+02 -0.86942E-05
 0.58900002E+02  0.15021E-04
 0.58950001E+02  0.37101E-04
 0.59000000E+02  0.39485E-04
 0.59049999E+02  0.33552E-04
 0.59100002E+02  0.12861E-04
 0.59150002E+02 -0.34558E-04
 0.59200001E+02 -0.68085E-04
 0.59250000E+02 -0.68435E-04
 0.59299999E+02 -0.68658E-04
 0.59350002E+02 -0.40512E-04
 0.59400002E+02  0.67800E-05
 0.59450001E+02  0.27288E-04
 0.59500000E+02  0.27312E-04
 0.59549999E+02  0.14914E-04
 0.59600002E+02  0.10802E-04
 0.59650002E+02 -0.44317E-06
 0.59700001E+02 -0.27017E-04
 0.59750000E+02 -0.15446E-04
 0.59799999E+02  0.67171E-06
 0.59850002E+02 -0.22607E-06
 0.59900002E+02 -0.26405E-06
 0.59950001E+02 -0.83170E-05
 0.60000000E+02  0.17331E-04
 0.60049999E+02  0.44127E-04
 0.60100002E+02  0.27801E-04
 0.60150002E+02  0.54655E-05
 0.60200001E+02 -0.88866E-05
 0.60250000E+02 -0.46946E-05
 0.60299999E+02  0.12412E-04
 0.60350002E+02  0.18873E-04
 0.60400002E+02  0.12447E-04
 0.60450001E+02 -0.21695E-05
 0.60500000E+02 -0.53532E-05
 0.60549999E+02  0.10495E-05
 0.60600002E+02  0.28442E-05
 0.60650002E+02  0.53518E-05
 0.60700001E+02 -0.19011E-05
 0.60750000E+02 -0.80668E-05
 0.60799999E+02 -0.33802E-05
 0.60850002E+02  0.61474E-05
 0.60900002E+02  0.11645E-04
 0.60950001E+02 -0.12954E-05
 0.61000000E+02 -0.16518E-04
 0.61049999E+02 -0.20475E-04
 0.61100002E+02 -0.16718E-04
 0.61150002E+02 -0.21163E-04
 0.61200001E+02 -0.39580E-04
 0.61250000E+02 -0.39070E-04
 0.61299999E+02 -0.11097E-04
 0.61350002E+02  0.18338E-04
 0.61400002E+02  0.39957E-04
 0.61450001E+02  0.40794E-04
 0.61500000E+02  0.27637E-04
 0.61549999E+02  0.18676E-04
 0.61600002E+02  0.10950E-04
 0.61650002E+02 -0.17861E-05
 0.61700001E+02 -0.17190E-04
 0.61750000E+02 -0.22743E-04
 0.61799999E+02 -0.22650E-04
 0.61850002E+02 -0.11779E-04
 0.61900002E+02  0.81908E-05
 0.61950001E+02  0.13458E-04
 0.62000000E+02  0.80848E-06
 0.62049999E+02 -0.11594E-04
 0.62100002E+02 -0.93768E-05
 0.62150002E+02 -0.24594E-05
 0.62200001E+02  0.23953E-05
 0.62250000E+02  0.11428E-04
 0.62299999E+02  0.20824E-04
 0.62350002E+02  0.24410E-04
 0.62400002E+02  0.20350E-04
 0.62450001E+02  0.12483E-04
 0.62500000E+02  0.48583E-05
 0.62549999E+02  0.42983E-05
 0.62600002E+02 -0.12995E-05
 0.62650002E+02 -0.21136E-04
 0.62700001E+02 -0.30078E-04
 0.62750000E+02 -0.32761E-04
 0.62799999E+02 -0.27853E-04
 0.62850002E+02 -0.87573E-05
 0.62900002E+02  0.83392E-05
 0.62950001E+02  0.19298E-04
 0.63000000E+02  0.24070E-04
 0.63049999E+02  0.20234E-04
 0.63100002E+02  0.10323E-04
 0.63150002E+02  0.91012E-05
 0.63200001E+02  0.38049E-07
 0.63250000E+02 -0.14367E-04
 0.63299999E+02 -0.20048E-04
 0.63350002E+02 -0.23841E-04
 0.63400002E+02 -0.17236E-04
 0.63450001E+02 -0.16749E-04
 0.63500000E+02 -0.10548E-04
 0.63549999E+02  0.54524E-05
 0.63600002E+02  0.71068E-05
 0.63650002E+02 -0.19388E-05
 0.63700001E+02 -0.11027E-04
 0.63750000E+02  0.23013E-06
 0.63799999E+02  0.15651E-04
 0.63850002E+02  0.27569E-04
 0.63900002E+02  0.34952E-04
 0.63950001E+02  0.28345E-04
 0.64000000E+02  0.23585E-04
 0.64050003E+02  0.64211E-05
 0.64099998E+02 -0.23533E-04
 0.64150002E+02 -0.34629E-04
 0.64200005E+02 -0.22687E-04
 0.64250000E+02 -0.51814E-05
 0.64300003E+02  0.46525E-05
 0.64349998E+02  0.41950E-05
 0.64400002E+02  0.69864E-05
 0.64450005E+02  0.13006E-04
 0.64500000E+02  0.22024E-04
 0.64550003E+02  0.26230E-04
 0.64599998E+02  0.15288E-04
 0.64650002E+02 -0.11598E-05
 0.64700005E+02 -0.26438E-04
 0.64750000E+02 -0.37436E-04
 0.64800003E+02 -0.27326E-04
 0.64849998E+02 -0.17388E-04
 0.64900002E+02 -0.82433E-05
 0.64950005E+02 -0.36083E-05
 0.65000000E+02 -0.33598E-05
 0.65050003E+02  0.65199E-05
 0.65099998E+02  0.19582E-04
 0.65150002E+02  0.18120E-04
 0.65200005E+02  0.94409E-05
 0.65250000E+02 -0.26360E-05
 0.65300003E+02 -0.19989E-04
 0.65349998E+02 -0.30079E-04
 0.65400002E+02 -0.15429E-04
 0.65450005E+02  0.11353E-04
 0.65500000E+02  0.27669E-04
 0.65550003E+02  0.31569E-04
 0.65599998E+02  0.18627E-04
 0.65650002E+02  0.14268E-05
 0.65700005E+02 -0.61748E-05
 0.65750000E+02 -0.17369E-04
 0.65800003E+02 -0.28644E-04
 0.65849998E+02 -0.23087E-04
 0.65900002E+02 -0.38910E-05
 0.65950005E+02  0.84820E-05
 0.66000000E+02  0.12836E-04
 0.66050003E+02  0.19404E-04
 0.66099998E+02  0.20882E-04
 0.66150002E+02  0.30320E-04
 0.66200005E+02  0.39837E-04
 0.66250000E+02  0.17378E-04
 0.66300003E+02 -0.10071E-04
 0.66349998E+02 -0.29198E-04
 0.66400002E+02 -0.49661E-04
 0.66450005E+02 -0.41826E-04
 0.66500000E+02 -0.21347E-04
 0.66550003E+02 -0.35999E-05
 0.66599998E+02  0.18724E-04
 0.66650002E+02  0.26427E-04
 0.66700005E+02  0.24795E-04
 0.66750000E+02  0.15316E-04
 0.66800003E+02  0.16471E-05
 0.66849998E+02 -0.63515E-05
 0.66900002E+02 -0.13148E-04
 0.66950005E+02 -0.89225E-05
 0.67000000E+02  0.49610E-06
 0.67050003E+02  0.30398E-05
 0.67099998E+02  0.91977E-05
 0.67150002E+02  0.16892E-04
 0.67200005E+02  0.16143E-04
 0.67250000E+02  0.65704E-05
 0.67300003E+02 -0.40312E-05
 0.67349998E+02 -0.17969E-04
 0.67400002E+02 -0.35222E-04
 0.67450005E+02 -0.45909E-04
 0.67500000E+02 -0.41858E-04
 0.67550003E+02 -0.13342E-04
 0.67599998E+02  0.15356E-04
 0.67650002E+02  0.20249E-04
 0.67700005E+02  0.13741E-04
 0.67750000E+02  0.85288E-05
 0.67800003E+02  0.86795E-05
 0.67849998E+02  0.15095E-04
 0.67900002E+02  0.15419E-04
 0.67950005E+02  0.53570E-05
 0.68000000E+02 -0.56633E-05
 0.68050003E+02 -0.10986E-04
 0.68099998E+02 -0.25550E-05
 0.68150002E+02  0.15398E-04
 0.68200005E+02  0.30126E-04
 0.68250000E+02  0.28233E-04
 0.68300003E+02  0.15888E-04
 0.68349998E+02  0.43020E-05
 0.68400002E+02 -0.73736E-05
 0.68450005E+02 -0.15382E-04
 0.68500000E+02 -0.21101E-04
 0.68550003E+02 -0.24054E-04
 0.68599998E+02 -0.26906E-04
 0.68650002E+02 -0.26791E-04
 0.68700005E+02 -0.15732E-04
 0.68750000E+02  0.51390E-05
 0.68800003E+02  0.26157E-04
 0.68849998E+02  0.27665E-04
 0.68900002E+02  0.15804E-04
 0.68950005E+02  0.91919E-05
 0.69000000E+02  0.19227E-05
 0.69050003E+02 -0.26572E-06
 0.69099998E+02  0.71212E-05
 0.69150002E+02  0.91210E-05
 0.69200005E+02  0.44663E-05
 0.69250000E+02 -0.61543E-05
 0.69300003E+02 -0.16953E-04
 0.69349998E+02 -0.15714E-04
 0.69400002E+02 -0.11339E-04
 0.69450005E+02 -0.13215E-04
 0.69500000E+02 -0.50843E-05
 0.69550003E+02  0.65917E-05
 0.69599998E+02  0.88164E-05
 0.69650002E+02  0.78714E-05
 0.69700005E+02  0.34938E-05
 0.69750000E+02  0.91434E-06
 0.69800003E+02 -0.80165E-05
 0.69849998E+02 -0.12540E-04
 0.69900002E+02 -0.37229E-05
 0.69950005E+02  0.64877E-05
 0.70000000E+02  0.21473E-04
 0.70050003E+02  0.26026E-04
 0.70099998E+02  0.13313E-04
 0.70150002E+02 -0.93274E-05
 0.70200005E+02 -0.32224E-04
 0.70250000E+02 -0.37700E-04
 0.70300003E+02 -0.30232E-04
 0.70349998E+02 -0.14106E-04
 0.70400002E+02  0.91011E-05
 0.70450005E+02  0.18202E-04
 0.70500000E+02  0.16492E-04
 0.70550003E+02  0.20758E-04
 0.70599998E+02  0.26096E-04
 0.70650002E+02  0.21099E-04
 0.70700005E+02  0.75036E-05
 0.70750000E+02 -0.16180E-05
 0.70800003E+02 -0.85635E-05
 0.70849998E+02 -0.94120E-05
 0.70900002E+02 -0.69085E-05
 0.70950005E+02 -0.56318E-05
 0.71000000E+02  0.12350E-06
 0.71050003E+02 -0.48414E-06
 0.71099998E+02 -0.26568E-05
 0.71150002E+02  0.15054E-05
 0.71200005E+02  0.69506E-05
 0.71250000E+02  0.68343E-05
 0.71300003E+02  0.30844E-05
 0.71349998E+02  0.15320E-05
 0.71400002E+02 -0.82468E-05
 0.71450005E+02 -0.21099E-04
 0.71500000E+02 -0.21874E-04
 0.71550003E+02 -0.22329E-04
 0.71599998E+02 -0.23764E-04
 0.71650002E+02 -0.82170E-05
 0.71700005E+02  0.15410E-04
 0.71750000E+02  0.28665E-04
 0.71800003E+02  0.35645E-04
 0.71849998E+02  0.42338E-04
 0.71900002E+02  0.38106E-04
 0.71950005E+02  0.26096E-04
 0.72000000E+02  0.98074E-05
 0.72050003E+02 -0.11750E-04
 0.72099998E+02 -0.20616E-04
 0.72150002E+02 -0.25459E-04
 0.72200005E+02 -0.33305E-04
 0.72250000E+02 -0.29865E-04
 0.72300003E+02 -0.25075E-04
 0.72349998E+02 -0.30871E-04
 0.72400002E+02 -0.32199E-04
 0.72450005E+02 -0.18068E-04
 0.72500000E+02 -0.30177E-05
 0.72550003E+02  0.92297E-05
 0.72599998E+02  0.22443E-04
 0.72650002E+02  0.31288E-04
 0.72700005E+02  0.28181E-04
 0.72750000E+02  0.22158E-04
 0.72800003E+02  0.21154E-04
 0.72849998E+02  0.20748E-04
 0.72900002E+02  0.18938E-04
 0.72950005E+02  0.32235E-05
 0.73000000E+02 -0.12485E-04
 0.73050003E+02 -0.21375E-04
 0.73099998E+02 -0.28032E-04
 0.73150002E+02 -0.20569E-04
 0.73200005E+02 -0.38287E-05
 0.73250000E+02  0.13663E-04
 0.73300003E+02  0.17980E-04
 0.73349998E+02  0.16745E-04
 0.73400002E+02  0.16980E-04
 0.73450005E+02  0.94219E-05
 0.73500000E+02 -0.44235E-05
 0.73550003E+02 -0.20880E-04
 0.73599998E+02 -0.21784E-04
 0.73650002E+02 -0.12620E-04
 0.73700005E+02 -0.12891E-05
 0.73750000E+02  0.12812E-04
 0.73800003E+02  0.11202E-04
 0.73849998E+02  0.51355E-05
 0.73900002E+02 -0.28732E-05
 0.73950005E+02 -0.13408E-04
 0.74000000E+02 -0.25261E-05
 0.74050003E+02  0.54429E-05
 0.74099998E+02 -0.19281E-05
 0.74150002E+02 -0.10045E-04
 0.74200005E+02 -0.24522E-04
 0.74250000E+02 -0.28856E-04
 0.74300003E+02 -0.16103E-04
 0.74349998E+02  0.48115E-05
 0.74400002E+02  0.26456E-04
 0.74450005E+02  0.34435E-04
 0.74500000E+02  0.27601E-04
 0.74550003E+02  0.18668E-04
 0.74599998E+02  0.86719E-05
 0.74650002E+02 -0.45150E-05
 0.74700005E+02 -0.15214E-04
 0.74750000E+02 -0.20982E-04
 0.74800003E+02 -0.17510E-04
 0.74849998E+02 -0.98150E-05
 0.74900002E+02 -0.97173E-06
 0.74950005E+02  0.68906E-05
 0.75000000E+02  0.83461E-05
 0.75050003E+02  0.57522E-05
 0.75099998E+02  0.48542E-05
 0.75150002E+02  0.49611E-05
 0.75200005E+02  0.15105E-05
 0.75250000E+02  0.92392E-08
 0.75300003E+02 -0.29853E-05
 0.75349998E+02 -0.42341E-05
 0.75400002E+02 -0.22581E-05
 0.75450005E+02 -0.42311E-05
 0.75500000E+02 -0.35062E-05
 0.75550003E+02 -0.11618E-05
 0.75599998E+02 -0.45657E-05
 0.75650002E+02 -0.14156E-04
 0.75700005E+02 -0.14998E-04
 0.75750000E+02 -0.68056E-05
 0.75800003E+02  0.41812E-05
 0.75849998E+02  0.13725E-04
 0.75900002E+02  0.11295E-04
 0.75950005E+02  0.96523E-05
 0.76000000E+02  0.75756E-05
 0.76050003E+02  0.20073E-05
 0.76099998E+02  0.60518E-06
 0.76150002E+02 -0.84009E-06
 0.76200005E+02 -0.18508E-05
 0.76250000E+02 -0.89628E-06
 0.76300003E+02  0.66179E-05
 0.76349998E+02  0.14703E-04
 0.76400002E+02  0.15592E-04
 0.76450005E+02  0.13843E-04
 0.76500000E+02  0.11215E-04
 0.76550003E+02  0.44593E-05
 0.76599998E+02 -0.80500E-05
 0.76650002E+02 -0.19320E-04
 0.76700005E+02 -0.25614E-04
 0.76750000E+02 -0.22298E-04
 0.76800003E+02 -0.12289E-04
 0.76849998E+02  0.87313E-06
 0.76900002E+02  0.12151E-04
 0.76950005E+02  0.11301E-04
 0.77000000E+02  0.11539E-04
 0.77050003E+02  0.13663E-04
 0.77099998E+02  0.14478E-04
 0.77150002E+02  0.17042E-04
 0.77200005E+02  0.79909E-05
 0.77250000E+02 -0.88105E-05
 0.77300003E+02 -0.19706E-04
 0.77349998E+02 -0.25981E-04
 0.77400002E+02 -0.26877E-04
 0.77450005E+02 -0.20647E-04
 0.77500000E+02 -0.11068E-04
 0.77550003E+02 -0.50799E-05
 0.77599998E+02 -0.76760E-05
 0.77650002E+02 -0.97647E-05
 0.77700005E+02 -0.30358E-05
 0.77750000E+02  0.11672E-04
 0.77800003E+02  0.22786E-04
 0.77849998E+02  0.19022E-04
 0.77900002E+02  0.88835E-05
 0.77950005E+02  0.45401E-05
 0.78000000E+02  0.72985E-05
 0.78050003E+02  0.13290E-04
 0.78099998E+02  0.18589E-04
 0.78150002E+02  0.19853E-04
 0.78200005E+02  0.14483E-04
 0.78250000E+02  0.29556E-05
 0.78300003E+02 -0.10645E-04
 0.78349998E+02 -0.22944E-04
 0.78400002E+02 -0.26920E-04
 0.78450005E+02 -0.17983E-04
 0.78500000E+02 -0.73715E-05
 0.78550003E+02 -0.43236E-06
 0.78599998E+02  0.63473E-05
 0.78650002E+02  0.59415E-05
 0.78700005E+02  0.86608E-06
 0.78750000E+02 -0.34341E-06
 0.78800003E+02  0.23436E-07
 0.78849998E+02  0.66239E-06
 0.78900002E+02  0.23796E-05
 0.78950005E+02  0.51110E-05
 0.79000000E+02  0.61827E-05
 0.79050003E+02  0.51487E-05
 0.79099998E+02  0.44540E-05
 0.79150002E+02 -0.48093E-06
 0.79200005E+02 -0.72500E-05
 0.79250000E+02 -0.77178E-05
 0.79300003E+02 -0.61817E-05
 0.79349998E+02 -0.56723E-05
 0.79400002E+02 -0.63544E-05
 0.79450005E+02 -0.25329E-05
 0.79500000E+02  0.78449E-05
 0.79550003E+02  0.11529E-04
 0.79599998E+02  0.80842E-05
 0.79650002E+02 -0.93039E-07
 0.79700005E+02 -0.10948E-04
 0.79750000E+02 -0.16903E-04
 0.79800003E+02 -0.15845E-04
 0.79849998E+02 -0.77506E-05
 0.79900002E+02  0.13182E-05
 0.79950005E+02  0.84586E-05
 0.80000000E+02  0.10545E-04
 0.80050003E+02  0.77744E-05
 0.80099998E+02  0.78898E-05
 0.80150002E+02  0.89043E-05
 0.80200005E+02  0.55970E-05
 0.80250000E+02  0.42907E-05
 0.80300003E+02  0.72940E-05
 0.80349998E+02  0.87074E-05
 0.80400002E+02  0.11689E-04
 0.80450005E+02  0.10823E-04
 0.80500000E+02  0.96524E-06
 0.80550003E+02 -0.10822E-04
 0.80599998E+02 -0.17765E-04
 0.80650002E+02 -0.17517E-04
 0.80700005E+02 -0.14134E-04
 0.80750000E+02 -0.11106E-04
 0.80800003E+02 -0.93385E-05
 0.80849998E+02 -0.76419E-05
 0.80900002E+02 -0.48072E-05
 0.80950005E+02 -0.10833E-05
 0.81000000E+02  0.42255E-05
 0.81050003E+02  0.10121E-04
 0.81099998E+02  0.93507E-05
 0.81150002E+02  0.75326E-05
 0.81200005E+02  0.11874E-04
 0.81250000E+02  0.15591E-04
 0.81300003E+02  0.12593E-04
 0.81349998E+02  0.48256E-05
 0.81400002E+02 -0.26077E-05
 0.81450005E+02 -0.12084E-04
 0.81500000E+02 -0.14650E-04
 0.81550003E+02 -0.90333E-05
 0.81599998E+02 -0.65902E-05
 0.81650002E+02 -0.46020E-05
 0.81700005E+02 -0.38744E-05
 0.81750000E+02 -0.57435E-05
 0.81800003E+02 -0.27593E-05
 0.81849998E+02  0.54257E-05
 0.81900002E+02  0.11390E-04
 0.81950005E+02  0.12504E-04
 0.82000000E+02  0.12168E-04
 0.82050003E+02  0.10419E-04
 0.82099998E+02  0.53674E-05
 0.82150002E+02  0.17452E-05
 0.82200005E+02 -0.25753E-06
 0.82250000E+02 -0.63038E-05
 0.82300003E+02 -0.14579E-04
 0.82349998E+02 -0.17179E-04
 0.82400002E+02 -0.17277E-04
 0.82450005E+02 -0.14366E-04
 0.82500000E+02 -0.38335E-05
 0.82550003E+02  0.40630E-05
 0.82599998E+02  0.80799E-05
 0.82650002E+02  0.75353E-05
 0.82700005E+02  0.24389E-05
 0.82750000E+02  0.93673E-06
 0.82800003E+02  0.40453E-07
 0.82849998E+02 -0.54208E-06
 0.82900002E+02  0.37285E-05
 0.82950005E+02  0.13559E-04
 0.83000000E+02  0.22211E-04
 0.83050003E+02  0.20820E-04
 0.83099998E+02  0.17029E-04
 0.83150002E+02  0.13659E-04
 0.83200005E+02  0.52858E-05
 0.83250000E+02 -0.54684E-05
 0.83300003E+02 -0.14657E-04
 0.83349998E+02 -0.18667E-04
 0.83400002E+02 -0.18462E-04
 0.83450005E+02 -0.17329E-04
 0.83500000E+02 -0.15743E-04
 0.83550003E+02 -0.10578E-04
 0.83599998E+02 -0.14539E-05
 0.83650002E+02  0.52523E-05
 0.83700005E+02  0.55402E-05
 0.83750000E+02  0.19596E-05
 0.83800003E+02 -0.36643E-05
 0.83849998E+02 -0.76812E-05
 0.83900002E+02 -0.94582E-05
 0.83950005E+02 -0.69363E-05
 0.84000000E+02  0.33038E-05
 0.84050003E+02  0.10222E-04
 0.84099998E+02  0.12685E-04
 0.84150002E+02  0.13449E-04
 0.84200005E+02  0.10094E-04
 0.84250000E+02  0.39486E-05
 0.84300003E+02 -0.47947E-05
 0.84349998E+02 -0.96906E-05
 0.84400002E+02 -0.92444E-05
 0.84450005E+02 -0.60654E-05
 0.84500000E+02  0.65036E-06
 0.84550003E+02  0.93216E-05
 0.84599998E+02  0.17080E-04
 0.84650002E+02  0.18126E-04
 0.84700005E+02  0.87289E-05
 0.84750000E+02 -0.21952E-05
 0.84800003E+02 -0.96556E-05
 0.84849998E+02 -0.17113E-04
 0.84900002E+02 -0.19228E-04
 0.84950005E+02 -0.14125E-04
 0.85000000E+02 -0.54607E-05
 0.85050003E+02  0.15559E-05
 0.85099998E+02  0.25749E-05
 0.85150002E+02  0.50224E-05
 0.85200005E+02  0.84697E-05
 0.85250000E+02  0.82255E-05
 0.85300003E+02  0.83880E-05
 0.85349998E+02  0.66417E-05
 0.85400002E+02  0.15705E-05
 0.85450005E+02 -0.49572E-05
 0.85500000E+02 -0.75559E-05
 0.85550003E+02 -0.18377E-05
 0.85599998E+02  0.63799E-05
 0.85650002E+02  0.98325E-05
 0.85700005E+02  0.37436E-05
 0.85750000E+02 -0.67539E-05
 0.85800003E+02 -0.12413E-04
 0.85849998E+02 -0.10507E-04
 0.85900002E+02 -0.33432E-05
 0.85950005E+02  0.47082E-05
 0.86000000E+02  0.10423E-04
 0.86050003E+02  0.12193E-04
 0.86099998E+02  0.11104E-04
 0.86150002E+02  0.52641E-05
 0.86200005E+02 -0.51771E-05
 0.86250000E+02 -0.14272E-04
 0.86300003E+02 -0.15550E-04
 0.86349998E+02 -0.96192E-05
 0.86400002E+02 -0.57217E-05
 0.86450005E+02  0.61310E-06
 0.86500000E+02  0.10283E-04
 0.86550003E+02  0.99664E-05
 0.86599998E+02  0.58146E-05
 0.86650002E+02  0.62531E-05
 0.86700005E+02  0.70175E-05
 0.86750000E+02  0.72025E-05
 0.86800003E+02  0.32447E-05
 0.86849998E+02 -0.30364E-05
 0.86900002E+02 -0.48017E-05
 0.86950005E+02 -0.29238E-05
 0.87000000E+02 -0.22909E-05
 0.87050003E+02 -0.68524E-05
 0.87099998E+02 -0.12896E-04
 0.87150002E+02 -0.15286E-04
 0.87200005E+02 -0.13516E-04
 0.87250000E+02 -0.86024E-05
 0.87300003E+02 -0.22824E-05
 0.87349998E+02  0.10396E-05
 0.87400002E+02  0.40685E-05
 0.87450005E+02  0.10025E-04
 0.87500000E+02  0.13543E-04
 0.87550003E+02  0.13733E-04
 0.87599998E+02  0.11315E-04
 0.87650002E+02  0.73599E-05
 0.87700005E+02  0.31135E-05
 0.87750000E+02  0.34893E-05
 0.87800003E+02  0.68384E-05
 0.87849998E+02  0.57482E-05
 0.87900002E+02  0.31048E-05
 0.87950005E+02 -0.47384E-05
 0.88000000E+02 -0.15984E-04
 0.88050003E+02 -0.20897E-04
 0.88099998E+02 -0.20680E-04
 0.88150002E+02 -0.12813E-04
 0.88200005E+02  0.11683E-05
 0.88250000E+02  0.97823E-05
 0.88300003E+02  0.11572E-04
 0.88349998E+02  0.99032E-05
 0.88400002E+02  0.55756E-05
 0.88450005E+02  0.24049E-05
 0.88500000E+02  0.18418E-05
 0.88550003E+02  0.29050E-05
 0.88599998E+02  0.45349E-05
 0.88650002E+02  0.23786E-05
 0.88700005E+02 -0.35049E-05
 0.88750000E+02 -0.48616E-05
 0.88800003E+02 -0.20677E-05
 0.88849998E+02 -0.16599E-05
 0.88900002E+02 -0.15967E-05
 0.88950005E+02 -0.31297E-05
 0.89000000E+02 -0.49532E-05
 0.89050003E+02 -0.23166E-05
 0.89099998E+02  0.15952E-05
 0.89150002E+02  0.51465E-05
 0.89200005E+02  0.76225E-05
 0.89250000E+02  0.76415E-05
 0.89300003E+02  0.55848E-05
 0.89349998E+02  0.42474E-05
 0.89400002E+02  0.48715E-05
 0.89450005E+02  0.20425E-05
 0.89500000E+02 -0.70497E-05
 0.89550003E+02 -0.15601E-04
 0.89599998E+02 -0.18828E-04
 0.89650002E+02 -0.18843E-04
 0.89700005E+02 -0.17117E-04
 0.89750000E+02 -0.10628E-04
 0.89800003E+02  0.14656E-05
 0.89849998E+02  0.98579E-05
 0.89900002E+02  0.13091E-04
 0.89950005E+02  0.15541E-04
 0.90000000E+02  0.12960E-04
 0.90050003E+02  0.45888E-05
 0.90099998E+02 -0.44722E-05
 0.90150002E+02 -0.96351E-05
 0.90200005E+02 -0.68901E-05
 0.90250000E+02  0.50997E-05
 0.90300003E+02  0.15619E-04
 0.90349998E+02  0.18109E-04
 0.90400002E+02  0.15578E-04
 0.90450005E+02  0.86036E-05
 0.90500000E+02  0.39392E-05
 0.90550003E+02  0.22182E-05
 0.90599998E+02 -0.48387E-06
 0.90650002E+02 -0.40116E-05
 0.90700005E+02 -0.98214E-05
 0.90750000E+02 -0.14536E-04
 0.90800003E+02 -0.15262E-04
 0.90849998E+02 -0.12442E-04
 0.90900002E+02 -0.60833E-05
 0.90950005E+02 -0.13821E-05
 0.91000000E+02 -0.17444E-05
 0.91050003E+02 -0.30286E-05
 0.91099998E+02 -0.14428E-05
 0.91150002E+02  0.31987E-05
 0.91200005E+02  0.70316E-05
 0.91250000E+02  0.11648E-04
 0.91300003E+02  0.15352E-04
 0.91349998E+02  0.12520E-04
 0.91400002E+02  0.70796E-05
 0.91450005E+02 -0.32880E-05
 0.91500000E+02 -0.16375E-04
 0.91550003E+02 -0.22242E-04
 0.91599998E+02 -0.21464E-04
 0.91650002E+02 -0.15162E-04
 0.91700005E+02 -0.60702E-05
 0.91750000E+02  0.11031E-05
 0.91800003E+02  0.46581E-05
 0.91849998E+02  0.37730E-05
 0.91900002E+02  0.37181E-05
 0.91950005E+02  0.82894E-05
 0.92000000E+02  0.12164E-04
 0.92050003E+02  0.95637E-05
 0.92099998E+02  0.12737E-05
 0.92150002E+02 -0.51367E-05
 0.92200005E+02 -0.37049E-05
 0.92250000E+02  0.33385E-05
 0.92300003E+02  0.11194E-04
 0.92349998E+02  0.13590E-04
 0.92400002E+02  0.11684E-04
 0.92450005E+02  0.10774E-04
 0.92500000E+02  0.88852E-05
 0.92550003E+02  0.65757E-05
 0.92599998E+02  0.39045E-05
 0.92650002E+02 -0.73364E-06
 0.92700005E+02 -0.90214E-05
 0.92750000E+02 -0.17887E-04
 0.92800003E+02 -0.20762E-04
 0.92849998E+02 -0.16907E-04
 0.92900002E+02 -0.82489E-05
 0.92950005E+02  0.93892E-06
 0.93000000E+02  0.67898E-05
 0.93050003E+02  0.61793E-05
 0.93099998E+02  0.14774E-05
 0.93150002E+02 -0.18654E-05
 0.93200005E+02 -0.34854E-05
 0.93250000E+02 -0.45708E-05
 0.93300003E+02 -0.43978E-05
 0.93349998E+02 -0.14981E-05
 0.93400002E+02  0.17798E-05
 0.93450005E+02  0.28558E-05
 0.93500000E+02  0.31963E-05
 0.93550003E+02  0.20605E-05
 0.93599998E+02 -0.27459E-06
 0.93650002E+02 -0.11952E-05
 0.93700005E+02 -0.13273E-05
 0.93750000E+02  0.68143E-06
 0.93800003E+02  0.45028E-05
 0.93849998E+02  0.74554E-05
 0.93900002E+02  0.95464E-05
 0.93950005E+02  0.10409E-04
 0.94000000E+02  0.83691E-05
 0.94050003E+02  0.35855E-05
 0.94099998E+02 -0.27031E-05
 0.94150002E+02 -0.71097E-05
 0.94200005E+02 -0.71835E-05
 0.94250000E+02 -0.55003E-05
 0.94300003E+02 -0.56545E-05
 0.94349998E+02 -0.94298E-05
 0.94400002E+02 -0.12562E-04
 0.94450005E+02 -0.14819E-04
 0.94500000E+02 -0.14797E-04
 0.94550003E+02 -0.74879E-05
 0.94599998E+02 -0.21450E-06
 0.94650002E+02  0.36761E-05
 0.94700005E+02  0.82541E-05
 0.94750000E+02  0.11948E-04
 0.94800003E+02  0.14695E-04
 0.94849998E+02  0.15810E-04
 0.94900002E+02  0.13273E-04
 0.94950005E+02  0.10339E-04
 0.95000000E+02  0.59217E-05
 0.95050003E+02  0.47549E-06
 0.95099998E+02 -0.17945E-05
 0.95150002E+02 -0.36169E-05
 0.95200005E+02 -0.28031E-05
 0.95250000E+02 -0.12702E-05
 0.95300003E+02 -0.39985E-05
 0.95349998E+02 -0.53879E-05
 0.95400002E+02 -0.43696E-05
 0.95450005E+02 -0.10468E-05
 0.95500000E+02  0.46677E-05
 0.95550003E+02  0.80760E-05
 0.95599998E+02  0.59262E-05
 0.95650002E+02  0.59269E-06
 0.95700005E+02 -0.46310E-05
 0.95750000E+02 -0.98003E-05
 0.95800003E+02 -0.10972E-04
 0.95849998E+02 -0.86534E-05
 0.95900002E+02 -0.84420E-05
 0.95950005E+02 -0.77853E-05
 0.96000000E+02 -0.44910E-05
 0.96050003E+02 -0.11888E-05
 0.96099998E+02  0.14842E-05
 0.96150002E+02  0.36418E-05
 0.96200005E+02  0.53030E-05
 0.96250000E+02  0.69508E-05
 0.96300003E+02  0.85979E-05
 0.96349998E+02  0.81792E-05
 0.96400002E+02  0.47611E-05
 0.96450005E+02  0.97232E-06
 0.96500000E+02 -0.18367E-05
 0.96550003E+02 -0.31504E-05
 0.96599998E+02 -0.17390E-05
 0.96650002E+02  0.93444E-06
 0.96700005E+02  0.20502E-05
 0.96750000E+02  0.90387E-06
 0.96800003E+02 -0.10685E-05
 0.96849998E+02 -0.19002E-05
 0.96900002E+02 -0.14502E-05
 0.96950005E+02 -0.10645E-05
 0.97000000E+02 -0.22899E-05
 0.97050003E+02 -0.47233E-05
 0.97099998E+02 -0.43623E-05
 0.97150002E+02 -0.23816E-05
 0.97200005E+02 -0.14529E-05
 0.97250000E+02  0.78117E-06
 0.97300003E+02  0.14530E-05
 0.97349998E+02  0.74369E-06
 0.97400002E+02  0.25251E-05
 0.97450005E+02  0.52170E-05
 0.97500000E+02  0.66988E-05
 0.97550003E+02  0.73221E-05
 0.97599998E+02  0.56604E-05
 0.97650002E+02  0.14578E-05
 0.97700005E+02 -0.31787E-06
 0.97750000E+02 -0.58415E-06
 0.97800003E+02  0.90247E-06
 0.97849998E+02  0.31685E-05
 0.97900002E+02  0.24546E-05
 0.97950005E+02  0.10886E-05
 0.98000000E+02  0.70249E-06
 0.98050003E+02  0.18920E-05
 0.98099998E+02  0.29134E-06
 0.98150002E+02 -0.51775E-05
 0.98200005E+02 -0.10580E-04
 0.98250000E+02 -0.14801E-04
 0.98300003E+02 -0.16839E-04
 0.98349998E+02 -0.16535E-04
 0.98400002E+02 -0.13313E-04
 0.98450005E+02 -0.79441E-05
 0.98500000E+02 -0.21639E-05
 0.98550003E+02  0.30190E-05
 0.98599998E+02  0.82357E-05
 0.98650002E+02  0.14140E-04
 0.98700005E+02  0.18523E-04
 0.98750000E+02  0.19142E-04
 0.98800003E+02  0.15651E-04
 0.98849998E+02  0.99251E-05
 0.98900002E+02  0.38326E-05
 0.98950005E+02 -0.27525E-05
 0.99000000E+02 -0.88251E-05
 0.99050003E+02 -0.12077E-04
 0.99099998E+02 -0.11317E-04
 0.99150002E+02 -0.53984E-05
 0.99200005E+02  0.20883E-05
 0.99250000E+02  0.56629E-05
 0.99300003E+02  0.67714E-05
 0.99349998E+02  0.61279E-05
 0.99400002E+02  0.28070E-05
 0.99450005E+02 -0.34705E-06
 0.99500000E+02 -0.25508E-05
 0.99550003E+02 -0.37152E-05
 0.99599998E+02 -0.21744E-05
 0.99650002E+02  0.63479E-06
 0.99700005E+02  0.15842E-05
 0.99750000E+02  0.20424E-05
 0.99800003E+02  0.41735E-05
 0.99849998E+02  0.41839E-05
 0.99900002E+02  0.17802E-05
 0.99950005E+02 -0.19048E-05
 0.10000000E+03 -0.80262E-05
