 0.00000000E+00  0.23534E-07
 0.50000001E-01  0.16482E-06
 0.10000000E+00  0.33373E-06
 0.15000001E+00  0.33580E-06
 0.20000000E+00  0.20335E-06
 0.25000000E+00  0.22539E-06
 0.30000001E+00  0.45630E-06
 0.34999999E+00  0.34411E-07
 0.40000001E+00  0.54111E-07
 0.45000002E+00  0.21305E-06
 0.50000000E+00  0.40110E-07
 0.55000001E+00  0.33718E-07
 0.60000002E+00  0.22778E-06
 0.65000004E+00  0.55993E-06
 0.69999999E+00 -0.35155E-07
 0.75000000E+00 -0.21629E-06
 0.80000001E+00  0.36751E-07
 0.85000002E+00 -0.30132E-06
 0.90000004E+00 -0.42465E-06
 0.94999999E+00 -0.57770E-06
 0.10000000E+01 -0.63358E-06
 0.10500001E+01 -0.77744E-06
 0.11000000E+01 -0.72048E-06
 0.11500000E+01 -0.42488E-06
 0.12000000E+01 -0.36962E-06
 0.12500000E+01 -0.17894E-06
 0.13000001E+01 -0.13889E-06
 0.13500000E+01 -0.12967E-08
 0.14000000E+01  0.14268E-06
 0.14500000E+01  0.20130E-06
 0.15000000E+01  0.37275E-06
 0.15500001E+01  0.47851E-06
 0.16000000E+01  0.60134E-06
 0.16500000E+01  0.64865E-06
 0.17000000E+01  0.77246E-06
 0.17500000E+01  0.87658E-06
 0.18000001E+01  0.95748E-06
 0.18500000E+01  0.10199E-05
 0.19000000E+01  0.94487E-06
 0.19500000E+01  0.70805E-06
 0.20000000E+01  0.48339E-06
 0.20500000E+01  0.34560E-06
 0.21000001E+01  0.78498E-07
 0.21500001E+01 -0.72417E-07
 0.22000000E+01 -0.23236E-06
 0.22500000E+01 -0.32390E-06
 0.23000000E+01 -0.20594E-06
 0.23500001E+01 -0.12137E-06
 0.24000001E+01 -0.15622E-06
 0.24500000E+01 -0.17715E-06
 0.25000000E+01 -0.10483E-06
 0.25500000E+01 -0.18193E-06
 0.26000001E+01 -0.32864E-06
 0.26500001E+01 -0.47547E-06
 0.27000000E+01 -0.64841E-06
 0.27500000E+01 -0.91192E-06
 0.28000000E+01 -0.10738E-05
 0.28500001E+01 -0.11307E-05
 0.29000001E+01 -0.11216E-05
 0.29500000E+01 -0.93309E-06
 0.30000000E+01 -0.84945E-06
 0.30500000E+01 -0.64874E-06
 0.31000001E+01 -0.39417E-06
 0.31500001E+01 -0.85763E-07
 0.32000000E+01  0.82689E-07
 0.32500000E+01  0.86190E-07
 0.33000000E+01  0.30749E-06
 0.33500001E+01  0.30935E-06
 0.34000001E+01  0.39693E-06
 0.34500000E+01  0.34875E-06
 0.35000000E+01  0.26981E-06
 0.35500000E+01  0.41967E-06
 0.36000001E+01  0.38132E-06
 0.36500001E+01  0.52505E-06
 0.37000000E+01  0.47494E-06
 0.37500000E+01  0.48124E-06
 0.38000000E+01  0.62716E-06
 0.38500001E+01  0.70691E-06
 0.39000001E+01  0.73591E-06
 0.39500000E+01  0.66425E-06
 0.40000000E+01  0.72702E-06
 0.40500002E+01  0.37165E-06
 0.40999999E+01  0.28837E-06
 0.41500001E+01  0.15617E-06
 0.42000003E+01 -0.28728E-06
 0.42500000E+01 -0.24254E-06
 0.43000002E+01 -0.43337E-06
 0.43499999E+01 -0.34359E-06
 0.44000001E+01 -0.17514E-06
 0.44500003E+01 -0.31652E-06
 0.45000000E+01 -0.78551E-07
 0.45500002E+01 -0.46117E-07
 0.45999999E+01 -0.85178E-07
 0.46500001E+01  0.15025E-06
 0.47000003E+01  0.18369E-07
 0.47500000E+01 -0.62600E-07
 0.48000002E+01  0.66262E-07
 0.48499999E+01 -0.15677E-06
 0.49000001E+01 -0.80942E-07
 0.49500003E+01  0.92744E-07
 0.50000000E+01  0.12026E-07
 0.50500002E+01  0.11185E-06
 0.50999999E+01  0.15545E-06
 0.51500001E+01  0.48872E-07
 0.52000003E+01  0.11237E-07
 0.52500000E+01 -0.29694E-07
 0.53000002E+01 -0.14764E-06
 0.53499999E+01 -0.11925E-06
 0.54000001E+01 -0.16171E-06
 0.54500003E+01 -0.20932E-06
 0.55000000E+01 -0.20905E-06
 0.55500002E+01 -0.33893E-06
 0.55999999E+01 -0.32317E-06
 0.56500001E+01 -0.28455E-06
 0.57000003E+01 -0.40983E-06
 0.57500000E+01 -0.50017E-06
 0.58000002E+01 -0.40159E-06
 0.58499999E+01 -0.38907E-06
 0.59000001E+01 -0.39491E-06
 0.59500003E+01 -0.22391E-06
 0.60000000E+01 -0.12962E-06
 0.60500002E+01 -0.16680E-06
 0.60999999E+01 -0.73949E-07
 0.61500001E+01  0.19082E-06
 0.62000003E+01  0.29255E-06
 0.62500000E+01  0.40230E-06
 0.63000002E+01  0.53763E-06
 0.63499999E+01  0.61842E-06
 0.64000001E+01  0.71146E-06
 0.64500003E+01  0.68092E-06
 0.65000000E+01  0.59201E-06
 0.65500002E+01  0.50396E-06
 0.65999999E+01  0.45245E-06
 0.66500001E+01  0.30330E-06
 0.67000003E+01  0.16706E-06
 0.67500000E+01  0.11457E-06
 0.68000002E+01 -0.24596E-07
 0.68499999E+01 -0.13858E-06
 0.69000001E+01 -0.13284E-06
 0.69500003E+01 -0.72411E-07
 0.70000000E+01 -0.43156E-08
 0.70500002E+01  0.68310E-07
 0.70999999E+01  0.15639E-07
 0.71500001E+01 -0.55313E-07
 0.72000003E+01 -0.12657E-06
 0.72500000E+01 -0.21327E-06
 0.73000002E+01 -0.20948E-06
 0.73499999E+01 -0.36184E-06
 0.74000001E+01 -0.42033E-06
 0.74500003E+01 -0.41835E-06
 0.75000000E+01 -0.45880E-06
 0.75500002E+01 -0.52194E-06
 0.75999999E+01 -0.74553E-06
 0.76500001E+01 -0.65169E-06
 0.77000003E+01 -0.61639E-06
 0.77500000E+01 -0.58555E-06
 0.78000002E+01 -0.39350E-06
 0.78499999E+01 -0.36490E-06
 0.79000001E+01 -0.18439E-06
 0.79500003E+01 -0.89723E-07
 0.80000000E+01  0.53846E-07
 0.80500002E+01  0.18133E-06
 0.81000004E+01  0.75301E-07
 0.81500006E+01  0.16144E-06
 0.81999998E+01  0.41095E-06
 0.82500000E+01  0.66477E-06
 0.83000002E+01  0.71409E-06
 0.83500004E+01  0.73030E-06
 0.84000006E+01  0.92518E-06
 0.84499998E+01  0.10467E-05
 0.85000000E+01  0.11407E-05
 0.85500002E+01  0.12168E-05
 0.86000004E+01  0.10775E-05
 0.86500006E+01  0.74213E-06
 0.86999998E+01  0.44292E-06
 0.87500000E+01  0.14107E-06
 0.88000002E+01 -0.29524E-06
 0.88500004E+01 -0.63176E-06
 0.89000006E+01 -0.80415E-06
 0.89499998E+01 -0.91590E-06
 0.90000000E+01 -0.89524E-06
 0.90500002E+01 -0.77639E-06
 0.91000004E+01 -0.69786E-06
 0.91500006E+01 -0.64706E-06
 0.91999998E+01 -0.58887E-06
 0.92500000E+01 -0.43814E-06
 0.93000002E+01 -0.39463E-06
 0.93500004E+01 -0.36776E-06
 0.94000006E+01 -0.13854E-06
 0.94499998E+01 -0.74803E-07
 0.95000000E+01  0.33110E-07
 0.95500002E+01  0.55799E-07
 0.96000004E+01 -0.45692E-07
 0.96500006E+01  0.44473E-08
 0.96999998E+01 -0.18242E-06
 0.97500000E+01 -0.18337E-06
 0.98000002E+01 -0.66266E-07
 0.98500004E+01 -0.94856E-07
 0.99000006E+01  0.36183E-07
 0.99499998E+01  0.28959E-07
 0.10000000E+02  0.13579E-06
 0.10050000E+02  0.21691E-06
 0.10100000E+02  0.19844E-06
 0.10150001E+02  0.34196E-06
 0.10200000E+02  0.29180E-06
 0.10250000E+02  0.35633E-06
 0.10300000E+02  0.40818E-06
 0.10350000E+02  0.51703E-06
 0.10400001E+02  0.64701E-06
 0.10450000E+02  0.44893E-06
 0.10500000E+02  0.57632E-06
 0.10550000E+02  0.66385E-06
 0.10600000E+02  0.42129E-06
 0.10650001E+02  0.32278E-07
 0.10700000E+02 -0.72967E-07
 0.10750000E+02 -0.34805E-07
 0.10800000E+02 -0.36319E-06
 0.10850000E+02 -0.23156E-06
 0.10900001E+02 -0.16540E-06
 0.10950000E+02 -0.26924E-06
 0.11000000E+02 -0.20614E-06
 0.11050000E+02 -0.14975E-06
 0.11100000E+02  0.21768E-07
 0.11150001E+02 -0.87060E-07
 0.11200000E+02  0.14269E-08
 0.11250000E+02  0.12068E-06
 0.11300000E+02  0.29500E-07
 0.11350000E+02 -0.70759E-07
 0.11400001E+02 -0.13955E-06
 0.11450000E+02 -0.58032E-07
 0.11500000E+02 -0.22230E-06
 0.11550000E+02 -0.15406E-06
 0.11600000E+02  0.24765E-07
 0.11650001E+02 -0.88196E-07
 0.11700000E+02 -0.11033E-06
 0.11750000E+02 -0.16366E-06
 0.11800000E+02 -0.29929E-07
 0.11850000E+02  0.29411E-08
 0.11900001E+02 -0.23048E-06
 0.11950000E+02 -0.24153E-06
 0.12000000E+02 -0.23748E-06
 0.12050000E+02 -0.34961E-06
 0.12100000E+02 -0.44207E-06
 0.12150001E+02 -0.27960E-06
 0.12200000E+02 -0.18187E-06
 0.12250000E+02 -0.23520E-06
 0.12300000E+02 -0.11639E-06
 0.12350000E+02 -0.60399E-07
 0.12400001E+02  0.60141E-07
 0.12450000E+02  0.17839E-06
 0.12500000E+02  0.26691E-06
 0.12550000E+02  0.43128E-06
 0.12600000E+02  0.53702E-06
 0.12650001E+02  0.61572E-06
 0.12700000E+02  0.57256E-06
 0.12750000E+02  0.52749E-06
 0.12800000E+02  0.35132E-06
 0.12850000E+02  0.37842E-07
 0.12900001E+02 -0.66764E-07
 0.12950000E+02 -0.26166E-06
 0.13000000E+02 -0.43811E-06
 0.13050000E+02 -0.35875E-06
 0.13100000E+02 -0.36516E-06
 0.13150001E+02 -0.33613E-06
 0.13200000E+02 -0.29559E-06
 0.13250000E+02 -0.32658E-06
 0.13300000E+02 -0.21469E-06
 0.13350000E+02 -0.81509E-07
 0.13400001E+02 -0.95680E-08
 0.13450000E+02  0.57682E-07
 0.13500000E+02  0.15816E-06
 0.13550000E+02  0.22197E-06
 0.13600000E+02  0.26445E-06
 0.13650001E+02  0.32099E-06
 0.13700000E+02  0.20465E-06
 0.13750000E+02  0.41125E-07
 0.13800000E+02 -0.46713E-07
 0.13850000E+02 -0.18861E-06
 0.13900001E+02 -0.25842E-06
 0.13950000E+02 -0.22395E-06
 0.14000000E+02 -0.60856E-07
 0.14050000E+02  0.14946E-07
 0.14100000E+02 -0.18418E-08
 0.14150001E+02  0.15027E-06
 0.14200000E+02  0.75886E-07
 0.14250000E+02  0.93277E-07
 0.14300000E+02  0.11378E-06
 0.14350000E+02  0.74569E-07
 0.14400001E+02  0.18900E-06
 0.14450000E+02  0.10068E-06
 0.14500000E+02  0.20345E-06
 0.14550000E+02  0.12715E-06
 0.14600000E+02  0.86760E-07
 0.14650001E+02  0.69775E-07
 0.14700000E+02 -0.75765E-07
 0.14750000E+02  0.49929E-07
 0.14800000E+02 -0.10517E-06
 0.14850000E+02 -0.27106E-07
 0.14900001E+02  0.51201E-07
 0.14950000E+02  0.35482E-08
 0.15000000E+02  0.15164E-06
 0.15050000E+02  0.73934E-07
 0.15100000E+02  0.17517E-06
 0.15150001E+02  0.27338E-06
 0.15200000E+02  0.29025E-06
 0.15250000E+02  0.43794E-06
 0.15300000E+02  0.39832E-06
 0.15350000E+02  0.37174E-06
 0.15400001E+02  0.28224E-06
 0.15450000E+02  0.57409E-08
 0.15500000E+02 -0.19780E-06
 0.15550000E+02 -0.44053E-06
 0.15600000E+02 -0.55161E-06
 0.15650001E+02 -0.59220E-06
 0.15700000E+02 -0.72735E-06
 0.15750000E+02 -0.68218E-06
 0.15800000E+02 -0.58029E-06
 0.15850000E+02 -0.60436E-06
 0.15900001E+02 -0.58333E-06
 0.15950000E+02 -0.46767E-06
 0.16000000E+02 -0.34893E-06
 0.16050001E+02 -0.70894E-07
 0.16100000E+02  0.27554E-06
 0.16150000E+02  0.46128E-06
 0.16200001E+02  0.50585E-06
 0.16250000E+02  0.44803E-06
 0.16300001E+02  0.26880E-06
 0.16350000E+02  0.11286E-06
 0.16400000E+02  0.54961E-07
 0.16450001E+02 -0.94972E-07
 0.16500000E+02 -0.12979E-06
 0.16550001E+02 -0.50473E-07
 0.16600000E+02 -0.34946E-08
 0.16650000E+02  0.66963E-07
 0.16700001E+02  0.91515E-07
 0.16750000E+02  0.17015E-06
 0.16800001E+02  0.27112E-06
 0.16850000E+02  0.27754E-06
 0.16900000E+02  0.22027E-06
 0.16950001E+02  0.24690E-06
 0.17000000E+02  0.30739E-06
 0.17050001E+02  0.24521E-06
 0.17100000E+02  0.18849E-06
 0.17150000E+02  0.21898E-06
 0.17200001E+02  0.28069E-06
 0.17250000E+02  0.29200E-06
 0.17300001E+02  0.27357E-06
 0.17350000E+02  0.29476E-06
 0.17400000E+02  0.15118E-06
 0.17450001E+02 -0.11356E-06
 0.17500000E+02 -0.29361E-06
 0.17550001E+02 -0.43159E-06
 0.17600000E+02 -0.58108E-06
 0.17650000E+02 -0.72022E-06
 0.17700001E+02 -0.66038E-06
 0.17750000E+02 -0.56292E-06
 0.17800001E+02 -0.38622E-06
 0.17850000E+02 -0.11377E-06
 0.17900000E+02 -0.10026E-06
 0.17950001E+02 -0.18303E-06
 0.18000000E+02 -0.20106E-06
 0.18050001E+02 -0.52497E-07
 0.18100000E+02 -0.28960E-07
 0.18150000E+02 -0.14153E-06
 0.18200001E+02  0.60488E-07
 0.18250000E+02  0.92387E-07
 0.18300001E+02 -0.10339E-06
 0.18350000E+02 -0.55378E-07
 0.18400000E+02  0.12226E-06
 0.18450001E+02  0.21428E-06
 0.18500000E+02  0.20301E-06
 0.18550001E+02  0.40641E-06
 0.18600000E+02  0.66408E-06
 0.18650000E+02  0.77663E-06
 0.18700001E+02  0.90465E-06
 0.18750000E+02  0.86355E-06
 0.18800001E+02  0.67501E-06
 0.18850000E+02  0.33968E-06
 0.18900000E+02  0.10368E-06
 0.18950001E+02  0.19604E-06
 0.19000000E+02  0.63441E-07
 0.19050001E+02 -0.34771E-06
 0.19100000E+02 -0.49702E-06
 0.19150000E+02 -0.47498E-06
 0.19200001E+02 -0.52090E-06
 0.19250000E+02 -0.49802E-06
 0.19300001E+02 -0.24596E-06
 0.19350000E+02 -0.76300E-07
 0.19400000E+02 -0.15270E-06
 0.19450001E+02  0.96623E-07
 0.19500000E+02  0.28881E-06
 0.19550001E+02  0.23790E-06
 0.19600000E+02  0.93643E-07
 0.19650000E+02 -0.10779E-06
 0.19700001E+02 -0.11676E-06
 0.19750000E+02 -0.11345E-06
 0.19800001E+02  0.84996E-07
 0.19850000E+02 -0.62497E-07
 0.19900000E+02 -0.14953E-06
 0.19950001E+02 -0.30426E-06
 0.20000000E+02 -0.62728E-06
 0.20050001E+02 -0.51899E-06
 0.20100000E+02 -0.76159E-06
 0.20150000E+02 -0.67770E-06
 0.20200001E+02 -0.81895E-06
 0.20250000E+02 -0.90732E-06
 0.20300001E+02 -0.30185E-06
 0.20350000E+02 -0.49462E-07
 0.20400000E+02  0.38590E-06
 0.20450001E+02  0.58581E-06
 0.20500000E+02  0.43145E-06
 0.20550001E+02  0.35976E-06
 0.20600000E+02  0.35005E-06
 0.20650000E+02  0.42630E-06
 0.20700001E+02  0.25788E-06
 0.20750000E+02  0.16857E-06
 0.20800001E+02  0.17307E-06
 0.20850000E+02  0.13694E-06
 0.20900000E+02  0.67175E-07
 0.20950001E+02  0.13845E-06
 0.21000000E+02  0.28587E-06
 0.21050001E+02  0.26496E-06
 0.21100000E+02  0.45148E-06
 0.21150000E+02  0.65657E-06
 0.21200001E+02  0.64477E-06
 0.21250000E+02  0.46368E-06
 0.21300001E+02  0.24704E-06
 0.21350000E+02  0.10732E-06
 0.21400000E+02  0.75197E-07
 0.21450001E+02  0.67944E-07
 0.21500000E+02  0.15562E-07
 0.21550001E+02  0.63036E-07
 0.21600000E+02  0.24216E-07
 0.21650000E+02 -0.38859E-07
 0.21700001E+02 -0.66974E-07
 0.21750000E+02 -0.23441E-06
 0.21800001E+02 -0.38558E-06
 0.21850000E+02 -0.49192E-06
 0.21900000E+02 -0.57718E-06
 0.21950001E+02 -0.51875E-06
 0.22000000E+02 -0.52955E-06
 0.22050001E+02 -0.60708E-06
 0.22100000E+02 -0.56291E-06
 0.22150000E+02 -0.41403E-06
 0.22200001E+02 -0.29609E-06
 0.22250000E+02 -0.29297E-06
 0.22300001E+02 -0.19783E-06
 0.22350000E+02 -0.31286E-07
 0.22400000E+02  0.10982E-06
 0.22450001E+02  0.26778E-06
 0.22500000E+02  0.37459E-06
 0.22550001E+02  0.43525E-06
 0.22600000E+02  0.47129E-06
 0.22650000E+02  0.44510E-06
 0.22700001E+02  0.41671E-06
 0.22750000E+02  0.29001E-06
 0.22800001E+02  0.22995E-06
 0.22850000E+02  0.21682E-06
 0.22900000E+02  0.12646E-06
 0.22950001E+02  0.20138E-06
 0.23000000E+02  0.96259E-07
 0.23050001E+02  0.10620E-07
 0.23100000E+02  0.37162E-07
 0.23150000E+02  0.75354E-07
 0.23200001E+02  0.87439E-07
 0.23250000E+02  0.14983E-06
 0.23300001E+02  0.18543E-06
 0.23350000E+02  0.12980E-06
 0.23400000E+02  0.17587E-06
 0.23450001E+02 -0.24828E-06
 0.23500000E+02 -0.45860E-07
 0.23550001E+02 -0.36940E-06
 0.23600000E+02  0.26516E-06
 0.23650000E+02  0.13561E-05
 0.23700001E+02  0.30625E-05
 0.23750000E+02  0.52893E-05
 0.23800001E+02  0.36472E-05
 0.23850000E+02  0.42141E-05
 0.23900000E+02 -0.26557E-05
 0.23950001E+02 -0.10925E-04
 0.24000000E+02 -0.75157E-05
 0.24050001E+02 -0.49081E-05
 0.24100000E+02  0.59129E-05
 0.24150000E+02  0.17783E-04
 0.24200001E+02  0.19385E-04
 0.24250000E+02  0.13067E-04
 0.24300001E+02 -0.58423E-05
 0.24350000E+02 -0.25680E-04
 0.24400000E+02 -0.34032E-04
 0.24450001E+02 -0.28023E-04
 0.24500000E+02 -0.12631E-04
 0.24550001E+02  0.71591E-05
 0.24600000E+02  0.16540E-04
 0.24650000E+02  0.16423E-04
 0.24700001E+02  0.13614E-04
 0.24750000E+02 -0.29062E-05
 0.24800001E+02 -0.13388E-04
 0.24850000E+02 -0.80072E-05
 0.24900000E+02 -0.12890E-04
 0.24950001E+02 -0.16097E-04
 0.25000000E+02 -0.46348E-05
 0.25050001E+02  0.24258E-05
 0.25100000E+02  0.98369E-05
 0.25150000E+02  0.22969E-04
 0.25200001E+02  0.33057E-04
 0.25250000E+02  0.24940E-04
 0.25300001E+02  0.11664E-04
 0.25350000E+02 -0.24028E-05
 0.25400000E+02 -0.23550E-04
 0.25450001E+02 -0.25380E-04
 0.25500000E+02 -0.11703E-04
 0.25550001E+02  0.85605E-05
 0.25600000E+02  0.25609E-04
 0.25650000E+02  0.33234E-04
 0.25700001E+02  0.28087E-04
 0.25750000E+02 -0.19530E-05
 0.25800001E+02 -0.22048E-04
 0.25850000E+02 -0.17861E-04
 0.25900000E+02 -0.21559E-04
 0.25950001E+02 -0.23637E-04
 0.26000000E+02  0.19392E-05
 0.26050001E+02  0.20482E-04
 0.26100000E+02  0.11671E-04
 0.26150000E+02  0.18139E-05
 0.26200001E+02  0.37961E-05
 0.26250000E+02  0.12479E-05
 0.26300001E+02 -0.12638E-04
 0.26350000E+02 -0.16009E-04
 0.26400000E+02 -0.14239E-04
 0.26450001E+02 -0.12534E-04
 0.26500000E+02 -0.90625E-05
 0.26550001E+02  0.24673E-05
 0.26600000E+02  0.10137E-04
 0.26650000E+02  0.62254E-05
 0.26700001E+02 -0.14511E-06
 0.26750000E+02 -0.52053E-06
 0.26800001E+02 -0.75469E-05
 0.26850000E+02 -0.10299E-04
 0.26900000E+02  0.86549E-05
 0.26950001E+02  0.32505E-05
 0.27000000E+02  0.44815E-05
 0.27050001E+02  0.87559E-05
 0.27100000E+02  0.53285E-06
 0.27150000E+02 -0.16306E-05
 0.27200001E+02  0.30898E-05
 0.27250000E+02  0.10262E-04
 0.27300001E+02 -0.59258E-05
 0.27350000E+02 -0.57846E-05
 0.27400000E+02  0.44231E-05
 0.27450001E+02  0.10529E-04
 0.27500000E+02  0.95868E-05
 0.27550001E+02 -0.28912E-05
 0.27600000E+02  0.29140E-05
 0.27650000E+02  0.41833E-05
 0.27700001E+02  0.16501E-05
 0.27750000E+02 -0.16854E-05
 0.27800001E+02 -0.76279E-05
 0.27850000E+02  0.44693E-06
 0.27900000E+02  0.48254E-05
 0.27950001E+02 -0.64890E-05
 0.28000000E+02 -0.14050E-04
 0.28050001E+02  0.68053E-05
 0.28100000E+02  0.74765E-05
 0.28150000E+02 -0.11191E-04
 0.28200001E+02 -0.59811E-05
 0.28250000E+02 -0.18070E-05
 0.28300001E+02  0.11359E-05
 0.28350000E+02 -0.52721E-05
 0.28400000E+02 -0.44700E-05
 0.28450001E+02  0.99437E-05
 0.28500000E+02  0.31915E-05
 0.28550001E+02  0.49632E-05
 0.28600000E+02  0.11799E-04
 0.28650000E+02  0.27893E-05
 0.28700001E+02  0.94729E-05
 0.28750000E+02  0.45850E-05
 0.28800001E+02 -0.14349E-04
 0.28850000E+02 -0.13942E-04
 0.28900000E+02 -0.11579E-04
 0.28950001E+02 -0.12341E-04
 0.29000000E+02 -0.65496E-05
 0.29050001E+02  0.13281E-04
 0.29100000E+02  0.16813E-04
 0.29150000E+02  0.13824E-04
 0.29200001E+02  0.13896E-04
 0.29250000E+02 -0.71107E-05
 0.29300001E+02 -0.17757E-04
 0.29350000E+02 -0.26182E-04
 0.29400000E+02 -0.19593E-04
 0.29450001E+02  0.29408E-05
 0.29500000E+02  0.88343E-05
 0.29550001E+02  0.62609E-05
 0.29600000E+02  0.31845E-05
 0.29650000E+02  0.15855E-04
 0.29700001E+02  0.15511E-04
 0.29750000E+02  0.67476E-05
 0.29800001E+02 -0.32748E-05
 0.29850000E+02 -0.18388E-04
 0.29900000E+02 -0.24406E-04
 0.29950001E+02 -0.26561E-04
 0.30000000E+02  0.56825E-05
 0.30050001E+02  0.24233E-04
 0.30100000E+02  0.10516E-04
 0.30150000E+02  0.91133E-05
 0.30200001E+02  0.87709E-05
 0.30250000E+02  0.28535E-05
 0.30300001E+02 -0.88574E-05
 0.30350000E+02 -0.10728E-04
 0.30400000E+02 -0.59514E-05
 0.30450001E+02 -0.90054E-05
 0.30500000E+02  0.26898E-05
 0.30550001E+02  0.23999E-04
 0.30600000E+02  0.23428E-04
 0.30650000E+02  0.25309E-04
 0.30700001E+02  0.14574E-04
 0.30750000E+02 -0.12196E-04
 0.30800001E+02 -0.73119E-05
 0.30850000E+02 -0.10839E-04
 0.30900000E+02 -0.23683E-04
 0.30950001E+02 -0.14514E-04
 0.31000000E+02 -0.21022E-05
 0.31050001E+02  0.10012E-04
 0.31100000E+02  0.27840E-04
 0.31150000E+02  0.29956E-04
 0.31200001E+02 -0.75799E-06
 0.31250000E+02 -0.25422E-04
 0.31300001E+02 -0.20920E-04
 0.31350000E+02 -0.11805E-04
 0.31400000E+02 -0.66297E-05
 0.31450001E+02 -0.28405E-06
 0.31500000E+02  0.97718E-05
 0.31550001E+02  0.13805E-04
 0.31600000E+02 -0.34145E-05
 0.31650000E+02 -0.14711E-04
 0.31700001E+02 -0.12429E-04
 0.31750000E+02 -0.17677E-04
 0.31800001E+02 -0.13560E-04
 0.31850000E+02 -0.31839E-05
 0.31900000E+02  0.27276E-05
 0.31950001E+02  0.99197E-05
 0.32000000E+02  0.54978E-05
 0.32049999E+02  0.43630E-05
 0.32100002E+02  0.73758E-05
 0.32150002E+02 -0.75395E-06
 0.32200001E+02  0.44100E-06
 0.32250000E+02  0.84374E-05
 0.32299999E+02  0.16573E-05
 0.32350002E+02 -0.49553E-05
 0.32400002E+02  0.40385E-05
 0.32450001E+02  0.11550E-04
 0.32500000E+02  0.39197E-05
 0.32549999E+02 -0.13035E-04
 0.32600002E+02 -0.53714E-05
 0.32650002E+02  0.11900E-04
 0.32700001E+02  0.50259E-05
 0.32750000E+02 -0.22762E-05
 0.32799999E+02 -0.55122E-05
 0.32850002E+02 -0.36160E-06
 0.32900002E+02  0.45197E-06
 0.32950001E+02 -0.32859E-05
 0.33000000E+02  0.91461E-05
 0.33049999E+02  0.74831E-05
 0.33100002E+02 -0.78858E-06
 0.33150002E+02 -0.10871E-04
 0.33200001E+02 -0.35238E-05
 0.33250000E+02  0.25831E-04
 0.33299999E+02  0.14415E-04
 0.33350002E+02 -0.20403E-05
 0.33400002E+02 -0.36866E-05
 0.33450001E+02 -0.59703E-05
 0.33500000E+02  0.51255E-05
 0.33549999E+02 -0.21216E-05
 0.33600002E+02 -0.16731E-04
 0.33650002E+02 -0.18257E-04
 0.33700001E+02 -0.22229E-05
 0.33750000E+02  0.97989E-05
 0.33799999E+02 -0.28796E-05
 0.33850002E+02  0.78159E-05
 0.33900002E+02  0.15593E-04
 0.33950001E+02  0.76793E-06
 0.34000000E+02 -0.17596E-05
 0.34049999E+02 -0.12335E-04
 0.34100002E+02 -0.19739E-04
 0.34150002E+02 -0.77128E-05
 0.34200001E+02  0.53547E-06
 0.34250000E+02  0.14618E-05
 0.34299999E+02  0.71240E-05
 0.34350002E+02  0.63672E-05
 0.34400002E+02 -0.46427E-05
 0.34450001E+02 -0.68791E-05
 0.34500000E+02 -0.65482E-05
 0.34549999E+02 -0.20325E-05
 0.34600002E+02  0.97099E-06
 0.34650002E+02  0.19869E-05
 0.34700001E+02  0.13614E-04
 0.34750000E+02  0.10578E-04
 0.34799999E+02  0.43444E-05
 0.34850002E+02  0.15344E-05
 0.34900002E+02 -0.64935E-05
 0.34950001E+02 -0.11790E-04
 0.35000000E+02 -0.17556E-04
 0.35049999E+02 -0.61393E-05
 0.35100002E+02  0.11408E-04
 0.35150002E+02  0.18189E-04
 0.35200001E+02  0.11373E-04
 0.35250000E+02  0.13642E-04
 0.35299999E+02  0.16669E-04
 0.35350002E+02 -0.25110E-05
 0.35400002E+02 -0.31107E-05
 0.35450001E+02 -0.11958E-04
 0.35500000E+02 -0.23860E-04
 0.35549999E+02 -0.97646E-05
 0.35600002E+02 -0.26801E-05
 0.35650002E+02  0.15994E-04
 0.35700001E+02  0.26195E-04
 0.35750000E+02  0.63258E-05
 0.35799999E+02 -0.54597E-05
 0.35850002E+02 -0.13486E-04
 0.35900002E+02 -0.12030E-04
 0.35950001E+02  0.27847E-06
 0.36000000E+02  0.29245E-05
 0.36049999E+02  0.38278E-05
 0.36100002E+02  0.54276E-05
 0.36150002E+02 -0.31685E-05
 0.36200001E+02 -0.12599E-04
 0.36250000E+02 -0.33912E-05
 0.36299999E+02  0.30189E-05
 0.36350002E+02  0.20253E-05
 0.36400002E+02  0.48181E-05
 0.36450001E+02 -0.23120E-05
 0.36500000E+02 -0.64776E-05
 0.36549999E+02 -0.97753E-05
 0.36600002E+02 -0.13166E-04
 0.36650002E+02 -0.56843E-05
 0.36700001E+02 -0.57801E-05
 0.36750000E+02 -0.44348E-06
 0.36799999E+02  0.10794E-04
 0.36850002E+02  0.18008E-04
 0.36900002E+02  0.25333E-04
 0.36950001E+02  0.11195E-04
 0.37000000E+02 -0.10707E-04
 0.37049999E+02 -0.15554E-04
 0.37100002E+02 -0.11239E-04
 0.37150002E+02 -0.23722E-05
 0.37200001E+02  0.44208E-05
 0.37250000E+02  0.43090E-05
 0.37299999E+02  0.10538E-04
 0.37350002E+02  0.18586E-04
 0.37400002E+02  0.18779E-04
 0.37450001E+02  0.12297E-05
 0.37500000E+02 -0.26149E-04
 0.37549999E+02 -0.26219E-04
 0.37600002E+02 -0.14525E-04
 0.37650002E+02 -0.52916E-05
 0.37700001E+02  0.87945E-05
 0.37750000E+02  0.98463E-05
 0.37799999E+02  0.10359E-04
 0.37850002E+02  0.23000E-04
 0.37900002E+02  0.17080E-04
 0.37950001E+02 -0.60983E-05
 0.38000000E+02 -0.16935E-04
 0.38049999E+02 -0.21618E-04
 0.38100002E+02 -0.20167E-04
 0.38150002E+02 -0.10660E-04
 0.38200001E+02  0.49839E-05
 0.38250000E+02  0.19031E-04
 0.38299999E+02  0.20036E-04
 0.38350002E+02  0.17489E-04
 0.38400002E+02  0.61684E-05
 0.38450001E+02 -0.55460E-05
 0.38500000E+02 -0.10984E-04
 0.38549999E+02 -0.16788E-04
 0.38600002E+02 -0.20299E-04
 0.38650002E+02 -0.25030E-04
 0.38700001E+02 -0.12412E-04
 0.38750000E+02  0.15834E-04
 0.38799999E+02  0.25257E-04
 0.38850002E+02  0.20277E-04
 0.38900002E+02  0.17494E-04
 0.38950001E+02  0.11110E-04
 0.39000000E+02  0.61881E-06
 0.39049999E+02 -0.95113E-05
 0.39100002E+02 -0.20188E-04
 0.39150002E+02 -0.15274E-04
 0.39200001E+02 -0.37611E-05
 0.39250000E+02  0.59538E-06
 0.39299999E+02  0.11768E-04
 0.39350002E+02  0.14256E-04
 0.39400002E+02  0.16098E-04
 0.39450001E+02  0.11268E-04
 0.39500000E+02 -0.74410E-05
 0.39549999E+02 -0.10495E-04
 0.39600002E+02 -0.16089E-04
 0.39650002E+02 -0.18680E-04
 0.39700001E+02 -0.32760E-06
 0.39750000E+02  0.79845E-05
 0.39799999E+02  0.78211E-05
 0.39850002E+02  0.66055E-05
 0.39900002E+02 -0.23185E-05
 0.39950001E+02 -0.33498E-05
 0.40000000E+02 -0.28095E-05
 0.40049999E+02 -0.56820E-05
 0.40100002E+02 -0.81393E-05
 0.40150002E+02 -0.59450E-05
 0.40200001E+02  0.20395E-06
 0.40250000E+02  0.83104E-05
 0.40299999E+02  0.95777E-05
 0.40350002E+02 -0.23489E-05
 0.40400002E+02  0.27722E-05
 0.40450001E+02  0.79005E-05
 0.40500000E+02  0.16922E-06
 0.40549999E+02 -0.51159E-05
 0.40600002E+02 -0.16186E-04
 0.40650002E+02 -0.90649E-05
 0.40700001E+02  0.27331E-05
 0.40750000E+02  0.46836E-05
 0.40799999E+02  0.18269E-04
 0.40850002E+02  0.13375E-04
 0.40900002E+02  0.70489E-05
 0.40950001E+02  0.12717E-05
 0.41000000E+02 -0.92985E-05
 0.41049999E+02 -0.67791E-06
 0.41100002E+02 -0.12303E-04
 0.41150002E+02 -0.20406E-04
 0.41200001E+02 -0.63097E-05
 0.41250000E+02  0.13857E-04
 0.41299999E+02  0.24818E-04
 0.41350002E+02  0.11539E-04
 0.41400002E+02  0.27603E-05
 0.41450001E+02 -0.82068E-05
 0.41500000E+02 -0.11781E-04
 0.41549999E+02  0.18180E-04
 0.41600002E+02  0.45622E-04
 0.41650002E+02  0.16767E-04
 0.41700001E+02 -0.77910E-04
 0.41750000E+02 -0.10951E-03
 0.41799999E+02 -0.11483E-04
 0.41850002E+02  0.50943E-04
 0.41900002E+02  0.65484E-04
 0.41950001E+02  0.56122E-04
 0.42000000E+02  0.66976E-05
 0.42049999E+02 -0.13322E-04
 0.42100002E+02 -0.43313E-04
 0.42150002E+02 -0.26337E-04
 0.42200001E+02 -0.30290E-04
 0.42250000E+02 -0.68865E-04
 0.42299999E+02 -0.34697E-04
 0.42350002E+02  0.23232E-04
 0.42400002E+02  0.11124E-03
 0.42450001E+02  0.91094E-04
 0.42500000E+02  0.47932E-04
 0.42549999E+02  0.29951E-04
 0.42600002E+02 -0.42830E-04
 0.42650002E+02 -0.43757E-04
 0.42700001E+02 -0.48308E-04
 0.42750000E+02 -0.64631E-04
 0.42799999E+02 -0.10175E-03
 0.42850002E+02 -0.27966E-04
 0.42900002E+02  0.93061E-04
 0.42950001E+02 -0.12336E-04
 0.43000000E+02  0.52214E-04
 0.43049999E+02  0.14870E-03
 0.43100002E+02  0.38183E-04
 0.43150002E+02 -0.20555E-04
 0.43200001E+02 -0.58352E-04
 0.43250000E+02 -0.32593E-04
 0.43299999E+02 -0.10397E-03
 0.43350002E+02 -0.92125E-04
 0.43400002E+02 -0.48468E-04
 0.43450001E+02 -0.71428E-04
 0.43500000E+02  0.12980E-03
 0.43549999E+02  0.16067E-03
 0.43600002E+02  0.18501E-03
 0.43650002E+02  0.21416E-03
 0.43700001E+02  0.56966E-05
 0.43750000E+02 -0.68135E-04
 0.43799999E+02 -0.15410E-03
 0.43850002E+02 -0.25488E-03
 0.43900002E+02 -0.16537E-03
 0.43950001E+02 -0.38169E-04
 0.44000000E+02  0.26067E-04
 0.44049999E+02  0.65855E-04
 0.44100002E+02  0.12688E-03
 0.44150002E+02  0.12790E-03
 0.44200001E+02  0.11693E-03
 0.44250000E+02  0.44973E-04
 0.44299999E+02 -0.16258E-03
 0.44350002E+02 -0.22515E-03
 0.44400002E+02 -0.76983E-04
 0.44450001E+02  0.72767E-04
 0.44500000E+02  0.88395E-04
 0.44549999E+02  0.34391E-04
 0.44600002E+02  0.36733E-04
 0.44650002E+02  0.98119E-04
 0.44700001E+02  0.71240E-04
 0.44750000E+02 -0.51649E-04
 0.44799999E+02 -0.37125E-04
 0.44850002E+02 -0.47759E-04
 0.44900002E+02 -0.10795E-03
 0.44950001E+02 -0.91018E-04
 0.45000000E+02 -0.61176E-04
 0.45049999E+02  0.76237E-04
 0.45100002E+02  0.13843E-03
 0.45150002E+02  0.61185E-04
 0.45200001E+02 -0.28141E-04
 0.45250000E+02 -0.35624E-04
 0.45299999E+02  0.18612E-04
 0.45350002E+02 -0.13248E-04
 0.45400002E+02 -0.20372E-04
 0.45450001E+02  0.11757E-04
 0.45500000E+02  0.39265E-04
 0.45549999E+02  0.74210E-04
 0.45600002E+02  0.84887E-04
 0.45650002E+02 -0.41098E-04
 0.45700001E+02 -0.18429E-03
 0.45750000E+02 -0.74321E-04
 0.45799999E+02  0.63353E-04
 0.45850002E+02  0.43025E-04
 0.45900002E+02  0.27078E-05
 0.45950001E+02  0.13568E-05
 0.46000000E+02  0.30742E-04
 0.46049999E+02  0.40637E-04
 0.46100002E+02  0.62806E-05
 0.46150002E+02  0.27595E-04
 0.46200001E+02  0.52433E-05
 0.46250000E+02 -0.91506E-04
 0.46299999E+02 -0.53348E-04
 0.46350002E+02 -0.91313E-05
 0.46400002E+02 -0.27053E-04
 0.46450001E+02  0.13902E-04
 0.46500000E+02 -0.93589E-05
 0.46549999E+02 -0.57310E-04
 0.46600002E+02  0.87199E-05
 0.46650002E+02  0.31422E-04
 0.46700001E+02 -0.11187E-04
 0.46750000E+02  0.93968E-05
 0.46799999E+02  0.33175E-04
 0.46850002E+02  0.27598E-04
 0.46900002E+02  0.32159E-04
 0.46950001E+02  0.41319E-04
 0.47000000E+02  0.48714E-04
 0.47049999E+02  0.97085E-05
 0.47100002E+02 -0.64161E-04
 0.47150002E+02 -0.58955E-04
 0.47200001E+02 -0.37984E-05
 0.47250000E+02  0.32970E-04
 0.47299999E+02  0.34155E-04
 0.47350002E+02 -0.17519E-04
 0.47400002E+02 -0.23610E-04
 0.47450001E+02  0.18311E-05
 0.47500000E+02  0.24270E-04
 0.47549999E+02  0.32872E-04
 0.47600002E+02 -0.26847E-04
 0.47650002E+02 -0.40142E-04
 0.47700001E+02 -0.16791E-04
 0.47750000E+02 -0.18021E-05
 0.47799999E+02  0.30344E-04
 0.47850002E+02  0.60377E-05
 0.47900002E+02 -0.13495E-04
 0.47950001E+02 -0.55940E-05
 0.48000000E+02 -0.15185E-04
 0.48049999E+02  0.11677E-04
 0.48100002E+02  0.73663E-04
 0.48150002E+02  0.95400E-04
 0.48200001E+02  0.39748E-04
 0.48250000E+02 -0.27410E-04
 0.48299999E+02 -0.84559E-04
 0.48350002E+02 -0.92677E-04
 0.48400002E+02 -0.84319E-04
 0.48450001E+02 -0.11596E-03
 0.48500000E+02 -0.89614E-04
 0.48549999E+02 -0.57591E-05
 0.48600002E+02  0.88181E-04
 0.48650002E+02  0.12081E-03
 0.48700001E+02  0.93965E-04
 0.48750000E+02  0.80115E-04
 0.48799999E+02  0.42930E-04
 0.48850002E+02 -0.23531E-05
 0.48900002E+02 -0.27415E-04
 0.48950001E+02 -0.44870E-04
 0.49000000E+02 -0.23677E-04
 0.49049999E+02 -0.98679E-05
 0.49100002E+02 -0.44768E-04
 0.49150002E+02 -0.29376E-04
 0.49200001E+02  0.20778E-04
 0.49250000E+02  0.13353E-04
 0.49299999E+02 -0.14524E-04
 0.49350002E+02 -0.54809E-04
 0.49400002E+02 -0.55998E-04
 0.49450001E+02  0.28855E-04
 0.49500000E+02  0.95128E-04
 0.49549999E+02  0.90455E-04
 0.49600002E+02  0.57974E-04
 0.49650002E+02  0.55681E-04
 0.49700001E+02  0.38317E-04
 0.49750000E+02 -0.38737E-04
 0.49799999E+02 -0.10965E-03
 0.49850002E+02 -0.10772E-03
 0.49900002E+02 -0.42940E-04
 0.49950001E+02  0.22192E-04
 0.50000000E+02  0.14684E-04
 0.50049999E+02 -0.31229E-04
 0.50100002E+02  0.92140E-05
 0.50150002E+02  0.64979E-04
 0.50200001E+02  0.44149E-04
 0.50250000E+02  0.27505E-04
 0.50299999E+02  0.35351E-04
 0.50350002E+02  0.14000E-05
 0.50400002E+02 -0.44911E-04
 0.50450001E+02 -0.88288E-04
 0.50500000E+02 -0.79708E-04
 0.50549999E+02  0.73981E-05
 0.50600002E+02  0.17356E-04
 0.50650002E+02 -0.20680E-04
 0.50700001E+02 -0.16970E-04
 0.50750000E+02 -0.21161E-05
 0.50799999E+02  0.46524E-04
 0.50850002E+02  0.66555E-04
 0.50900002E+02  0.38587E-04
 0.50950001E+02  0.33612E-04
 0.51000000E+02  0.33121E-05
 0.51049999E+02 -0.14015E-04
 0.51100002E+02  0.23737E-04
 0.51150002E+02  0.48462E-05
 0.51200001E+02 -0.53297E-04
 0.51250000E+02 -0.17430E-04
 0.51299999E+02  0.32180E-04
 0.51350002E+02 -0.10840E-04
 0.51400002E+02 -0.50925E-04
 0.51450001E+02 -0.41870E-04
 0.51500000E+02 -0.15948E-05
 0.51549999E+02 -0.76316E-05
 0.51600002E+02 -0.16814E-04
 0.51650002E+02  0.39405E-04
 0.51700001E+02  0.53580E-04
 0.51750000E+02  0.29502E-04
 0.51799999E+02 -0.36273E-04
 0.51850002E+02 -0.64753E-04
 0.51900002E+02  0.28893E-04
 0.51950001E+02  0.67621E-04
 0.52000000E+02  0.16112E-04
 0.52049999E+02 -0.31920E-04
 0.52100002E+02 -0.50984E-04
 0.52150002E+02 -0.14773E-05
 0.52200001E+02  0.53568E-04
 0.52250000E+02  0.46157E-04
 0.52299999E+02  0.21367E-04
 0.52350002E+02 -0.14229E-04
 0.52400002E+02 -0.46309E-04
 0.52450001E+02 -0.32649E-04
 0.52500000E+02  0.13747E-04
 0.52549999E+02  0.30397E-04
 0.52600002E+02 -0.46600E-05
 0.52650002E+02 -0.34378E-04
 0.52700001E+02 -0.58574E-04
 0.52750000E+02 -0.50683E-04
 0.52799999E+02  0.67051E-05
 0.52850002E+02  0.48416E-04
 0.52900002E+02  0.59472E-04
 0.52950001E+02  0.52493E-04
 0.53000000E+02  0.47896E-04
 0.53049999E+02  0.53224E-05
 0.53100002E+02 -0.52995E-04
 0.53150002E+02 -0.66865E-04
 0.53200001E+02 -0.59729E-04
 0.53250000E+02 -0.21129E-04
 0.53299999E+02  0.19673E-04
 0.53350002E+02  0.30242E-04
 0.53400002E+02  0.12883E-04
 0.53450001E+02  0.12514E-04
 0.53500000E+02  0.29683E-04
 0.53549999E+02  0.17013E-04
 0.53600002E+02  0.25641E-04
 0.53650002E+02  0.11647E-04
 0.53700001E+02 -0.27775E-04
 0.53750000E+02 -0.29357E-04
 0.53799999E+02 -0.54589E-04
 0.53850002E+02 -0.65754E-04
 0.53900002E+02 -0.41221E-04
 0.53950001E+02 -0.63636E-05
 0.54000000E+02  0.61094E-04
 0.54049999E+02  0.75736E-04
 0.54100002E+02  0.50378E-04
 0.54150002E+02  0.53169E-04
 0.54200001E+02  0.37297E-04
 0.54250000E+02  0.15985E-04
 0.54299999E+02  0.33525E-06
 0.54350002E+02 -0.27455E-04
 0.54400002E+02 -0.52929E-04
 0.54450001E+02 -0.59835E-04
 0.54500000E+02 -0.32133E-04
 0.54549999E+02  0.42691E-06
 0.54600002E+02  0.93264E-05
 0.54650002E+02  0.49974E-06
 0.54700001E+02 -0.19487E-04
 0.54750000E+02 -0.23273E-04
 0.54799999E+02 -0.63794E-05
 0.54850002E+02  0.32611E-04
 0.54900002E+02  0.52861E-04
 0.54950001E+02  0.31861E-04
 0.55000000E+02  0.17598E-04
 0.55049999E+02 -0.15593E-04
 0.55100002E+02 -0.21281E-04
 0.55150002E+02  0.40465E-05
 0.55200001E+02 -0.11443E-04
 0.55250000E+02 -0.23157E-04
 0.55299999E+02 -0.20107E-04
 0.55350002E+02 -0.16645E-04
 0.55400002E+02 -0.12369E-04
 0.55450001E+02  0.66753E-05
 0.55500000E+02  0.29038E-04
 0.55549999E+02  0.19416E-04
 0.55600002E+02  0.50159E-05
 0.55650002E+02  0.13022E-04
 0.55700001E+02  0.24545E-04
 0.55750000E+02  0.11571E-04
 0.55799999E+02 -0.15727E-04
 0.55850002E+02 -0.29960E-04
 0.55900002E+02 -0.20512E-04
 0.55950001E+02 -0.90469E-05
 0.56000000E+02 -0.10876E-04
 0.56049999E+02 -0.15668E-04
 0.56100002E+02 -0.92798E-05
 0.56150002E+02 -0.68305E-06
 0.56200001E+02  0.14235E-05
 0.56250000E+02  0.22816E-04
 0.56299999E+02  0.26683E-04
 0.56350002E+02 -0.62080E-05
 0.56400002E+02 -0.38842E-05
 0.56450001E+02  0.27021E-04
 0.56500000E+02  0.19775E-04
 0.56549999E+02 -0.12469E-05
 0.56600002E+02 -0.66351E-05
 0.56650002E+02  0.92184E-06
 0.56700001E+02  0.22947E-04
 0.56750000E+02  0.22635E-04
 0.56799999E+02  0.77206E-05
 0.56850002E+02 -0.14552E-04
 0.56900002E+02 -0.39903E-04
 0.56950001E+02 -0.16932E-04
 0.57000000E+02  0.15320E-04
 0.57049999E+02  0.25082E-04
 0.57100002E+02  0.21659E-04
 0.57150002E+02 -0.99326E-05
 0.57200001E+02 -0.31354E-04
 0.57250000E+02 -0.27243E-04
 0.57299999E+02 -0.93865E-05
 0.57350002E+02 -0.19567E-05
 0.57400002E+02 -0.33714E-04
 0.57450001E+02 -0.37123E-04
 0.57500000E+02  0.27754E-05
 0.57549999E+02  0.27516E-04
 0.57600002E+02  0.41967E-04
 0.57650002E+02  0.26250E-04
 0.57700001E+02 -0.15241E-04
 0.57750000E+02 -0.24089E-04
 0.57799999E+02 -0.14958E-04
 0.57850002E+02 -0.43269E-05
 0.57900002E+02  0.18530E-04
 0.57950001E+02  0.99814E-05
 0.58000000E+02 -0.19468E-04
 0.58049999E+02 -0.22165E-04
 0.58100002E+02 -0.14263E-04
 0.58150002E+02 -0.50583E-06
 0.58200001E+02  0.18467E-04
 0.58250000E+02  0.23340E-04
 0.58299999E+02  0.15572E-04
 0.58350002E+02  0.18020E-04
 0.58400002E+02  0.38482E-04
 0.58450001E+02  0.43461E-04
 0.58500000E+02  0.13037E-04
 0.58549999E+02 -0.19540E-04
 0.58600002E+02 -0.28268E-04
 0.58650002E+02 -0.19162E-04
 0.58700001E+02 -0.12453E-05
 0.58750000E+02  0.68701E-05
 0.58799999E+02  0.18866E-05
 0.58850002E+02  0.11025E-04
 0.58900002E+02  0.92516E-05
 0.58950001E+02 -0.17170E-04
 0.59000000E+02 -0.31271E-04
 0.59049999E+02 -0.17806E-04
 0.59100002E+02  0.90854E-05
 0.59150002E+02  0.95033E-05
 0.59200001E+02  0.51463E-06
 0.59250000E+02 -0.77780E-05
 0.59299999E+02 -0.13768E-04
 0.59350002E+02 -0.21200E-05
 0.59400002E+02 -0.10954E-04
 0.59450001E+02 -0.34680E-04
 0.59500000E+02 -0.34401E-04
 0.59549999E+02 -0.89881E-05
 0.59600002E+02  0.21867E-04
 0.59650002E+02  0.32711E-04
 0.59700001E+02  0.21027E-04
 0.59750000E+02  0.19737E-04
 0.59799999E+02  0.20625E-04
 0.59850002E+02  0.16332E-04
 0.59900002E+02  0.16758E-04
 0.59950001E+02  0.60327E-05
 0.60000000E+02 -0.85435E-06
 0.60049999E+02 -0.10675E-04
 0.60100002E+02 -0.30029E-04
 0.60150002E+02 -0.33329E-04
 0.60200001E+02 -0.24866E-04
 0.60250000E+02 -0.14361E-04
 0.60299999E+02  0.22218E-06
 0.60350002E+02  0.14533E-04
 0.60400002E+02  0.24261E-04
 0.60450001E+02  0.23754E-04
 0.60500000E+02  0.15870E-04
 0.60549999E+02  0.32490E-05
 0.60600002E+02 -0.13792E-04
 0.60650002E+02 -0.12538E-04
 0.60700001E+02  0.62827E-05
 0.60750000E+02  0.10937E-04
 0.60799999E+02  0.15188E-05
 0.60850002E+02  0.56523E-06
 0.60900002E+02 -0.76874E-05
 0.60950001E+02 -0.17239E-04
 0.61000000E+02 -0.34770E-05
 0.61049999E+02  0.59396E-05
 0.61100002E+02  0.19255E-04
 0.61150002E+02  0.33675E-04
 0.61200001E+02  0.25884E-05
 0.61250000E+02 -0.26003E-04
 0.61299999E+02 -0.11204E-04
 0.61350002E+02  0.76461E-05
 0.61400002E+02  0.10764E-04
 0.61450001E+02  0.58128E-05
 0.61500000E+02  0.10280E-04
 0.61549999E+02  0.52984E-05
 0.61600002E+02 -0.19892E-04
 0.61650002E+02 -0.39281E-04
 0.61700001E+02 -0.29509E-04
 0.61750000E+02  0.31250E-05
 0.61799999E+02  0.17429E-04
 0.61850002E+02  0.13036E-04
 0.61900002E+02 -0.12204E-06
 0.61950001E+02 -0.69014E-05
 0.62000000E+02  0.11781E-05
 0.62049999E+02  0.10053E-04
 0.62100002E+02  0.22057E-04
 0.62150002E+02  0.17309E-04
 0.62200001E+02  0.38217E-05
 0.62250000E+02 -0.11146E-04
 0.62299999E+02 -0.37468E-04
 0.62350002E+02 -0.41683E-04
 0.62400002E+02 -0.27650E-04
 0.62450001E+02 -0.15311E-04
 0.62500000E+02 -0.41117E-05
 0.62549999E+02  0.44434E-05
 0.62600002E+02  0.25052E-04
 0.62650002E+02  0.40309E-04
 0.62700001E+02  0.34717E-04
 0.62750000E+02  0.23413E-04
 0.62799999E+02  0.82887E-05
 0.62850002E+02 -0.17265E-06
 0.62900002E+02 -0.86027E-05
 0.62950001E+02 -0.17668E-04
 0.63000000E+02 -0.12931E-04
 0.63049999E+02 -0.10306E-04
 0.63100002E+02 -0.10978E-04
 0.63150002E+02 -0.12142E-04
 0.63200001E+02 -0.10348E-04
 0.63250000E+02  0.43399E-05
 0.63299999E+02  0.18614E-04
 0.63350002E+02  0.28165E-04
 0.63400002E+02  0.32148E-04
 0.63450001E+02  0.22476E-04
 0.63500000E+02  0.12744E-04
 0.63549999E+02  0.88803E-05
 0.63600002E+02 -0.44735E-05
 0.63650002E+02 -0.25537E-04
 0.63700001E+02 -0.43797E-04
 0.63750000E+02 -0.49034E-04
 0.63799999E+02 -0.34609E-04
 0.63850002E+02 -0.79423E-05
 0.63900002E+02  0.21851E-04
 0.63950001E+02  0.42933E-04
 0.64000000E+02  0.47582E-04
 0.64050003E+02  0.39660E-04
 0.64099998E+02  0.14161E-04
 0.64150002E+02 -0.10886E-04
 0.64200005E+02 -0.10350E-04
 0.64250000E+02 -0.58543E-05
 0.64300003E+02 -0.15603E-04
 0.64349998E+02 -0.28838E-04
 0.64400002E+02 -0.36455E-04
 0.64450005E+02 -0.31318E-04
 0.64500000E+02 -0.11504E-04
 0.64550003E+02 -0.39374E-05
 0.64599998E+02 -0.46521E-05
 0.64650002E+02  0.34230E-05
 0.64700005E+02  0.58406E-05
 0.64750000E+02  0.45938E-05
 0.64800003E+02  0.52476E-05
 0.64849998E+02  0.98298E-05
 0.64900002E+02  0.13888E-04
 0.64950005E+02  0.17422E-04
 0.65000000E+02  0.19385E-04
 0.65050003E+02  0.40800E-05
 0.65099998E+02 -0.47442E-05
 0.65150002E+02  0.90171E-05
 0.65200005E+02  0.12173E-04
 0.65250000E+02  0.50773E-05
 0.65300003E+02 -0.91674E-05
 0.65349998E+02 -0.24779E-04
 0.65400002E+02 -0.18377E-04
 0.65450005E+02 -0.84779E-05
 0.65500000E+02 -0.27145E-05
 0.65550003E+02 -0.65705E-05
 0.65599998E+02 -0.14377E-04
 0.65650002E+02  0.82565E-05
 0.65700005E+02  0.33095E-04
 0.65750000E+02  0.29036E-04
 0.65800003E+02  0.20090E-04
 0.65849998E+02  0.16657E-04
 0.65900002E+02  0.19427E-04
 0.65950005E+02  0.21085E-04
 0.66000000E+02  0.50939E-05
 0.66050003E+02 -0.15157E-04
 0.66099998E+02 -0.24203E-04
 0.66150002E+02 -0.27444E-04
 0.66200005E+02 -0.26955E-04
 0.66250000E+02 -0.19989E-04
 0.66300003E+02 -0.53336E-05
 0.66349998E+02  0.50799E-05
 0.66400002E+02  0.10749E-05
 0.66450005E+02 -0.31957E-06
 0.66500000E+02 -0.40678E-05
 0.66550003E+02 -0.14633E-04
 0.66599998E+02 -0.14587E-04
 0.66650002E+02 -0.12475E-04
 0.66700005E+02 -0.65535E-05
 0.66750000E+02 -0.68098E-06
 0.66800003E+02  0.47362E-05
 0.66849998E+02  0.17481E-04
 0.66900002E+02  0.24091E-04
 0.66950005E+02  0.18519E-04
 0.67000000E+02  0.14982E-05
 0.67050003E+02 -0.74635E-05
 0.67099998E+02 -0.11697E-04
 0.67150002E+02 -0.11542E-04
 0.67200005E+02  0.35859E-05
 0.67250000E+02  0.19904E-04
 0.67300003E+02  0.34384E-04
 0.67349998E+02  0.30747E-04
 0.67400002E+02  0.11980E-04
 0.67450005E+02 -0.82886E-05
 0.67500000E+02 -0.23549E-04
 0.67550003E+02 -0.21654E-04
 0.67599998E+02 -0.21759E-04
 0.67650002E+02 -0.30008E-04
 0.67700005E+02 -0.31022E-04
 0.67750000E+02 -0.16522E-04
 0.67800003E+02  0.12560E-04
 0.67849998E+02  0.38275E-04
 0.67900002E+02  0.47855E-04
 0.67950005E+02  0.34798E-04
 0.68000000E+02  0.10953E-04
 0.68050003E+02 -0.10849E-05
 0.68099998E+02 -0.72164E-05
 0.68150002E+02 -0.12467E-04
 0.68200005E+02 -0.54132E-05
 0.68250000E+02  0.49764E-05
 0.68300003E+02  0.41720E-05
 0.68349998E+02 -0.46382E-05
 0.68400002E+02 -0.17153E-04
 0.68450005E+02 -0.18857E-04
 0.68500000E+02 -0.89873E-05
 0.68550003E+02 -0.38631E-05
 0.68599998E+02 -0.78643E-05
 0.68650002E+02 -0.17183E-04
 0.68700005E+02 -0.14271E-04
 0.68750000E+02 -0.28981E-05
 0.68800003E+02  0.57376E-05
 0.68849998E+02  0.10841E-04
 0.68900002E+02  0.15647E-04
 0.68950005E+02  0.23472E-04
 0.69000000E+02  0.14757E-04
 0.69050003E+02  0.21169E-05
 0.69099998E+02 -0.46317E-05
 0.69150002E+02 -0.10844E-04
 0.69200005E+02 -0.10550E-04
 0.69250000E+02 -0.20323E-04
 0.69300003E+02 -0.25028E-04
 0.69349998E+02 -0.10093E-04
 0.69400002E+02  0.79197E-05
 0.69450005E+02  0.19229E-04
 0.69500000E+02  0.20600E-04
 0.69550003E+02  0.16334E-04
 0.69599998E+02  0.35464E-05
 0.69650002E+02 -0.84925E-05
 0.69700005E+02 -0.11888E-04
 0.69750000E+02 -0.66403E-05
 0.69800003E+02  0.76707E-05
 0.69849998E+02  0.12516E-04
 0.69900002E+02  0.15287E-04
 0.69950005E+02  0.14821E-04
 0.70000000E+02 -0.97564E-06
 0.70050003E+02 -0.85945E-05
 0.70099998E+02 -0.10349E-04
 0.70150002E+02 -0.10410E-04
 0.70200005E+02 -0.49893E-05
 0.70250000E+02 -0.24940E-05
 0.70300003E+02  0.43785E-05
 0.70349998E+02  0.18940E-04
 0.70400002E+02  0.32765E-04
 0.70450005E+02  0.30100E-04
 0.70500000E+02  0.14588E-04
 0.70550003E+02 -0.78392E-05
 0.70599998E+02 -0.29951E-04
 0.70650002E+02 -0.31576E-04
 0.70700005E+02 -0.25907E-04
 0.70750000E+02 -0.21485E-04
 0.70800003E+02 -0.20970E-04
 0.70849998E+02 -0.20064E-04
 0.70900002E+02 -0.88072E-05
 0.70950005E+02 -0.13830E-06
 0.71000000E+02  0.76524E-05
 0.71050003E+02  0.12138E-04
 0.71099998E+02  0.13718E-04
 0.71150002E+02  0.17493E-04
 0.71200005E+02  0.17691E-04
 0.71250000E+02  0.19618E-04
 0.71300003E+02  0.15714E-04
 0.71349998E+02 -0.30618E-05
 0.71400002E+02 -0.21127E-04
 0.71450005E+02 -0.23597E-04
 0.71500000E+02 -0.16385E-04
 0.71550003E+02 -0.75678E-05
 0.71599998E+02  0.51029E-05
 0.71650002E+02  0.15046E-04
 0.71700005E+02  0.15236E-04
 0.71750000E+02  0.13893E-04
 0.71800003E+02  0.10449E-04
 0.71849998E+02 -0.33023E-06
 0.71900002E+02 -0.78683E-05
 0.71950005E+02 -0.98653E-05
 0.72000000E+02 -0.79828E-05
 0.72050003E+02  0.54719E-05
 0.72099998E+02  0.19462E-04
 0.72150002E+02  0.19764E-04
 0.72200005E+02  0.12075E-04
 0.72250000E+02 -0.53087E-06
 0.72300003E+02 -0.57395E-05
 0.72349998E+02  0.48744E-05
 0.72400002E+02  0.67494E-05
 0.72450005E+02 -0.60464E-05
 0.72500000E+02 -0.16624E-04
 0.72550003E+02 -0.26058E-04
 0.72599998E+02 -0.26990E-04
 0.72650002E+02 -0.17548E-04
 0.72700005E+02 -0.10441E-04
 0.72750000E+02 -0.12528E-05
 0.72800003E+02  0.58509E-05
 0.72849998E+02  0.76980E-05
 0.72900002E+02  0.77545E-05
 0.72950005E+02  0.82878E-05
 0.73000000E+02  0.13671E-04
 0.73050003E+02  0.90682E-05
 0.73099998E+02 -0.10841E-04
 0.73150002E+02 -0.22395E-04
 0.73200005E+02 -0.16734E-04
 0.73250000E+02  0.57089E-07
 0.73300003E+02  0.21202E-04
 0.73349998E+02  0.29629E-04
 0.73400002E+02  0.26882E-04
 0.73450005E+02  0.19243E-04
 0.73500000E+02  0.94546E-05
 0.73550003E+02 -0.45916E-06
 0.73599998E+02 -0.14155E-04
 0.73650002E+02 -0.21020E-04
 0.73700005E+02 -0.21861E-04
 0.73750000E+02 -0.19179E-04
 0.73800003E+02 -0.11902E-04
 0.73849998E+02 -0.59658E-05
 0.73900002E+02 -0.10314E-06
 0.73950005E+02 -0.45779E-06
 0.74000000E+02 -0.48979E-05
 0.74050003E+02 -0.69286E-06
 0.74099998E+02  0.10435E-04
 0.74150002E+02  0.22476E-04
 0.74200005E+02  0.23695E-04
 0.74250000E+02  0.14677E-04
 0.74300003E+02  0.10492E-04
 0.74349998E+02  0.88194E-05
 0.74400002E+02  0.98901E-05
 0.74450005E+02  0.85828E-05
 0.74500000E+02 -0.23174E-05
 0.74550003E+02 -0.15480E-04
 0.74599998E+02 -0.27734E-04
 0.74650002E+02 -0.29491E-04
 0.74700005E+02 -0.18567E-04
 0.74750000E+02 -0.10169E-04
 0.74800003E+02 -0.10053E-04
 0.74849998E+02 -0.13702E-04
 0.74900002E+02 -0.15071E-04
 0.74950005E+02 -0.93452E-05
 0.75000000E+02  0.86656E-06
 0.75050003E+02  0.12045E-04
 0.75099998E+02  0.21194E-04
 0.75150002E+02  0.27744E-04
 0.75200005E+02  0.29310E-04
 0.75250000E+02  0.21958E-04
 0.75300003E+02  0.10499E-04
 0.75349998E+02 -0.32849E-05
 0.75400002E+02 -0.19238E-04
 0.75450005E+02 -0.28043E-04
 0.75500000E+02 -0.24499E-04
 0.75550003E+02 -0.12174E-04
 0.75599998E+02  0.54296E-05
 0.75650002E+02  0.13760E-04
 0.75700005E+02  0.10965E-04
 0.75750000E+02  0.10537E-04
 0.75800003E+02  0.13754E-04
 0.75849998E+02  0.21108E-04
 0.75900002E+02  0.21518E-04
 0.75950005E+02  0.86153E-05
 0.76000000E+02 -0.19107E-05
 0.76050003E+02 -0.47560E-05
 0.76099998E+02 -0.58765E-05
 0.76150002E+02 -0.62963E-05
 0.76200005E+02 -0.95749E-05
 0.76250000E+02 -0.22849E-04
 0.76300003E+02 -0.28713E-04
 0.76349998E+02 -0.15997E-04
 0.76400002E+02 -0.32632E-05
 0.76450005E+02  0.10471E-04
 0.76500000E+02  0.23413E-04
 0.76550003E+02  0.25240E-04
 0.76599998E+02  0.21809E-04
 0.76650002E+02  0.16918E-04
 0.76700005E+02  0.12499E-04
 0.76750000E+02  0.60851E-05
 0.76800003E+02 -0.56963E-05
 0.76849998E+02 -0.18679E-04
 0.76900002E+02 -0.28842E-04
 0.76950005E+02 -0.32534E-04
 0.77000000E+02 -0.27469E-04
 0.77050003E+02 -0.18543E-04
 0.77099998E+02 -0.83271E-05
 0.77150002E+02  0.11781E-05
 0.77200005E+02  0.75515E-05
 0.77250000E+02  0.10496E-04
 0.77300003E+02  0.90710E-05
 0.77349998E+02  0.49506E-05
 0.77400002E+02  0.46411E-05
 0.77450005E+02  0.77760E-05
 0.77500000E+02  0.91861E-05
 0.77550003E+02  0.14863E-04
 0.77599998E+02  0.16588E-04
 0.77650002E+02  0.10735E-04
 0.77700005E+02  0.65573E-05
 0.77750000E+02 -0.17647E-05
 0.77800003E+02 -0.14133E-04
 0.77849998E+02 -0.22543E-04
 0.77900002E+02 -0.22649E-04
 0.77950005E+02 -0.14280E-04
 0.78000000E+02 -0.37605E-06
 0.78050003E+02  0.11679E-04
 0.78099998E+02  0.16655E-04
 0.78150002E+02  0.15690E-04
 0.78200005E+02  0.11167E-04
 0.78250000E+02  0.77379E-05
 0.78300003E+02  0.45021E-05
 0.78349998E+02 -0.17153E-05
 0.78400002E+02 -0.95093E-05
 0.78450005E+02 -0.14532E-04
 0.78500000E+02 -0.11716E-04
 0.78550003E+02 -0.76034E-05
 0.78599998E+02 -0.59740E-05
 0.78650002E+02 -0.21934E-05
 0.78700005E+02  0.57474E-05
 0.78750000E+02  0.15302E-04
 0.78800003E+02  0.17129E-04
 0.78849998E+02  0.12645E-04
 0.78900002E+02  0.74630E-05
 0.78950005E+02  0.66441E-06
 0.79000000E+02 -0.70042E-05
 0.79050003E+02 -0.82285E-05
 0.79099998E+02 -0.66656E-05
 0.79150002E+02 -0.10388E-04
 0.79200005E+02 -0.77482E-05
 0.79250000E+02 -0.42854E-05
 0.79300003E+02 -0.98168E-05
 0.79349998E+02 -0.13881E-04
 0.79400002E+02 -0.11223E-04
 0.79450005E+02  0.14017E-05
 0.79500000E+02  0.13407E-04
 0.79550003E+02  0.11820E-04
 0.79599998E+02  0.60090E-05
 0.79650002E+02  0.21780E-05
 0.79700005E+02  0.25190E-06
 0.79750000E+02  0.25008E-05
 0.79800003E+02  0.62071E-05
 0.79849998E+02  0.69327E-05
 0.79900002E+02  0.44980E-05
 0.79950005E+02 -0.70104E-06
 0.80000000E+02 -0.42102E-05
 0.80050003E+02 -0.25530E-05
 0.80099998E+02 -0.20885E-05
 0.80150002E+02 -0.43181E-05
 0.80200005E+02 -0.72411E-05
 0.80250000E+02 -0.69287E-05
 0.80300003E+02 -0.23056E-05
 0.80349998E+02  0.30524E-05
 0.80400002E+02  0.46581E-05
 0.80450005E+02  0.18328E-07
 0.80500000E+02 -0.37223E-05
 0.80550003E+02 -0.39252E-05
 0.80599998E+02 -0.36088E-05
 0.80650002E+02 -0.44527E-05
 0.80700005E+02  0.10705E-05
 0.80750000E+02  0.13855E-04
 0.80800003E+02  0.19650E-04
 0.80849998E+02  0.16094E-04
 0.80900002E+02  0.81005E-05
 0.80950005E+02  0.11629E-05
 0.81000000E+02 -0.21971E-05
 0.81050003E+02 -0.69594E-05
 0.81099998E+02 -0.10235E-04
 0.81150002E+02 -0.95826E-05
 0.81200005E+02 -0.78246E-05
 0.81250000E+02 -0.32185E-05
 0.81300003E+02 -0.23120E-05
 0.81349998E+02 -0.28216E-05
 0.81400002E+02  0.30726E-05
 0.81450005E+02  0.67121E-05
 0.81500000E+02  0.74167E-05
 0.81550003E+02  0.78718E-05
 0.81599998E+02  0.36939E-05
 0.81650002E+02 -0.45963E-05
 0.81700005E+02 -0.10293E-04
 0.81750000E+02 -0.88571E-05
 0.81800003E+02 -0.75491E-05
 0.81849998E+02 -0.10670E-04
 0.81900002E+02 -0.11930E-04
 0.81950005E+02 -0.11714E-04
 0.82000000E+02 -0.54601E-05
 0.82050003E+02  0.11895E-04
 0.82099998E+02  0.29040E-04
 0.82150002E+02  0.37217E-04
 0.82200005E+02  0.31358E-04
 0.82250000E+02  0.15444E-04
 0.82300003E+02 -0.40204E-06
 0.82349998E+02 -0.12685E-04
 0.82400002E+02 -0.15580E-04
 0.82450005E+02 -0.13236E-04
 0.82500000E+02 -0.14652E-04
 0.82550003E+02 -0.15337E-04
 0.82599998E+02 -0.13490E-04
 0.82650002E+02 -0.77462E-05
 0.82700005E+02  0.15694E-05
 0.82750000E+02  0.44335E-05
 0.82800003E+02  0.44580E-06
 0.82849998E+02 -0.40965E-05
 0.82900002E+02 -0.39542E-05
 0.82950005E+02  0.76043E-06
 0.83000000E+02  0.58612E-05
 0.83050003E+02  0.55399E-05
 0.83099998E+02 -0.98226E-06
 0.83150002E+02 -0.49497E-05
 0.83200005E+02 -0.27676E-05
 0.83250000E+02  0.34717E-05
 0.83300003E+02  0.32589E-05
 0.83349998E+02 -0.99561E-06
 0.83400002E+02  0.34895E-05
 0.83450005E+02  0.76838E-05
 0.83500000E+02  0.51610E-05
 0.83550003E+02  0.20887E-05
 0.83599998E+02 -0.44103E-06
 0.83650002E+02 -0.19038E-05
 0.83700005E+02  0.24239E-06
 0.83750000E+02  0.84586E-05
 0.83800003E+02  0.12137E-04
 0.83849998E+02  0.60708E-05
 0.83900002E+02  0.33455E-05
 0.83950005E+02  0.24013E-05
 0.84000000E+02  0.18215E-06
 0.84050003E+02 -0.37177E-05
 0.84099998E+02 -0.10891E-04
 0.84150002E+02 -0.15167E-04
 0.84200005E+02 -0.13388E-04
 0.84250000E+02 -0.67610E-05
 0.84300003E+02  0.26482E-06
 0.84349998E+02  0.61213E-05
 0.84400002E+02  0.65957E-05
 0.84450005E+02  0.31694E-06
 0.84500000E+02 -0.49349E-05
 0.84550003E+02 -0.68246E-05
 0.84599998E+02 -0.76414E-05
 0.84650002E+02 -0.73322E-05
 0.84700005E+02 -0.51145E-05
 0.84750000E+02 -0.14961E-05
 0.84800003E+02  0.20931E-05
 0.84849998E+02  0.62127E-05
 0.84900002E+02  0.12121E-04
 0.84950005E+02  0.13469E-04
 0.85000000E+02  0.86308E-05
 0.85050003E+02  0.12073E-05
 0.85099998E+02 -0.45327E-05
 0.85150002E+02 -0.34496E-05
 0.85200005E+02  0.30179E-05
 0.85250000E+02  0.93997E-05
 0.85300003E+02  0.66538E-05
 0.85349998E+02  0.38405E-06
 0.85400002E+02 -0.22536E-05
 0.85450005E+02 -0.19471E-05
 0.85500000E+02  0.30675E-05
 0.85550003E+02  0.63624E-05
 0.85599998E+02  0.27745E-05
 0.85650002E+02 -0.46260E-05
 0.85700005E+02 -0.11233E-04
 0.85750000E+02 -0.16169E-04
 0.85800003E+02 -0.17736E-04
 0.85849998E+02 -0.13521E-04
 0.85900002E+02 -0.40817E-05
 0.85950005E+02  0.39540E-05
 0.86000000E+02  0.50117E-05
 0.86050003E+02  0.20318E-05
 0.86099998E+02  0.29505E-05
 0.86150002E+02  0.80181E-05
 0.86200005E+02  0.85238E-05
 0.86250000E+02  0.77544E-05
 0.86300003E+02  0.80860E-05
 0.86349998E+02  0.74155E-05
 0.86400002E+02  0.68379E-05
 0.86450005E+02  0.44355E-05
 0.86500000E+02  0.26315E-05
 0.86550003E+02  0.27817E-05
 0.86599998E+02  0.28475E-05
 0.86650002E+02 -0.23021E-05
 0.86700005E+02 -0.12180E-04
 0.86750000E+02 -0.14024E-04
 0.86800003E+02 -0.63524E-05
 0.86849998E+02  0.10649E-05
 0.86900002E+02  0.68574E-05
 0.86950005E+02  0.95801E-05
 0.87000000E+02  0.62154E-05
 0.87050003E+02 -0.29813E-06
 0.87099998E+02 -0.88340E-05
 0.87150002E+02 -0.13112E-04
 0.87200005E+02 -0.11827E-04
 0.87250000E+02 -0.10146E-04
 0.87300003E+02 -0.53633E-05
 0.87349998E+02 -0.84286E-06
 0.87400002E+02  0.44937E-06
 0.87450005E+02  0.24743E-05
 0.87500000E+02  0.38456E-05
 0.87550003E+02  0.49117E-05
 0.87599998E+02  0.82101E-05
 0.87650002E+02  0.78401E-05
 0.87700005E+02  0.12611E-05
 0.87750000E+02 -0.79063E-05
 0.87800003E+02 -0.13941E-04
 0.87849998E+02 -0.11925E-04
 0.87900002E+02 -0.46748E-05
 0.87950005E+02  0.43913E-05
 0.88000000E+02  0.12213E-04
 0.88050003E+02  0.13320E-04
 0.88099998E+02  0.59552E-05
 0.88150002E+02  0.21022E-06
 0.88200005E+02  0.16282E-05
 0.88250000E+02  0.15610E-05
 0.88300003E+02 -0.17372E-05
 0.88349998E+02 -0.41115E-05
 0.88400002E+02 -0.70673E-05
 0.88450005E+02 -0.87293E-05
 0.88500000E+02 -0.64153E-06
 0.88550003E+02  0.10843E-04
 0.88599998E+02  0.14100E-04
 0.88650002E+02  0.13279E-04
 0.88700005E+02  0.10870E-04
 0.88750000E+02  0.60120E-05
 0.88800003E+02  0.21700E-05
 0.88849998E+02  0.32621E-05
 0.88900002E+02  0.46803E-05
 0.88950005E+02 -0.91019E-06
 0.89000000E+02 -0.75160E-05
 0.89050003E+02 -0.10064E-04
 0.89099998E+02 -0.10873E-04
 0.89150002E+02 -0.11129E-04
 0.89200005E+02 -0.12582E-04
 0.89250000E+02 -0.13945E-04
 0.89300003E+02 -0.10998E-04
 0.89349998E+02 -0.27570E-05
 0.89400002E+02  0.90496E-05
 0.89450005E+02  0.14516E-04
 0.89500000E+02  0.10057E-04
 0.89550003E+02  0.48720E-05
 0.89599998E+02 -0.31041E-06
 0.89650002E+02 -0.41082E-05
 0.89700005E+02 -0.51949E-05
 0.89750000E+02 -0.62317E-05
 0.89800003E+02 -0.59192E-05
 0.89849998E+02 -0.40559E-05
 0.89900002E+02  0.58330E-06
 0.89950005E+02  0.66790E-05
 0.90000000E+02  0.11018E-04
 0.90050003E+02  0.11560E-04
 0.90099998E+02  0.82225E-05
 0.90150002E+02  0.59063E-05
 0.90200005E+02  0.49475E-05
 0.90250000E+02  0.23505E-05
 0.90300003E+02 -0.32678E-05
 0.90349998E+02 -0.11443E-04
 0.90400002E+02 -0.15466E-04
 0.90450005E+02 -0.11857E-04
 0.90500000E+02 -0.71233E-05
 0.90550003E+02 -0.53974E-05
 0.90599998E+02 -0.41674E-05
 0.90650002E+02 -0.32097E-05
 0.90700005E+02  0.15387E-05
 0.90750000E+02  0.97718E-05
 0.90800003E+02  0.12464E-04
 0.90849998E+02  0.85422E-05
 0.90900002E+02  0.45076E-05
 0.90950005E+02  0.68539E-05
 0.91000000E+02  0.95047E-05
 0.91050003E+02  0.93365E-05
 0.91099998E+02  0.74666E-05
 0.91150002E+02  0.12909E-05
 0.91200005E+02 -0.36146E-05
 0.91250000E+02 -0.71988E-05
 0.91300003E+02 -0.95721E-05
 0.91349998E+02 -0.81118E-05
 0.91400002E+02 -0.50085E-05
 0.91450005E+02 -0.35687E-05
 0.91500000E+02 -0.68055E-05
 0.91550003E+02 -0.12243E-04
 0.91599998E+02 -0.13858E-04
 0.91650002E+02 -0.97356E-05
 0.91700005E+02 -0.54022E-05
 0.91750000E+02 -0.69681E-06
 0.91800003E+02  0.72567E-05
 0.91849998E+02  0.14541E-04
 0.91900002E+02  0.18962E-04
 0.91950005E+02  0.19752E-04
 0.92000000E+02  0.16238E-04
 0.92050003E+02  0.81981E-05
 0.92099998E+02 -0.95675E-06
 0.92150002E+02 -0.72345E-05
 0.92200005E+02 -0.11151E-04
 0.92250000E+02 -0.13174E-04
 0.92300003E+02 -0.11409E-04
 0.92349998E+02 -0.45081E-05
 0.92400002E+02  0.23446E-05
 0.92450005E+02  0.32350E-05
 0.92500000E+02  0.13464E-05
 0.92550003E+02  0.14108E-05
 0.92599998E+02  0.13821E-05
 0.92650002E+02  0.35598E-06
 0.92700005E+02  0.67492E-06
 0.92750000E+02  0.14644E-05
 0.92800003E+02 -0.62662E-06
 0.92849998E+02 -0.46857E-05
 0.92900002E+02 -0.36097E-05
 0.92950005E+02  0.30858E-05
 0.93000000E+02  0.66349E-05
 0.93050003E+02  0.44551E-05
 0.93099998E+02  0.12419E-05
 0.93150002E+02  0.15443E-05
 0.93200005E+02  0.37363E-05
 0.93250000E+02  0.45563E-05
 0.93300003E+02  0.35208E-05
 0.93349998E+02 -0.11318E-05
 0.93400002E+02 -0.40897E-05
 0.93450005E+02 -0.37779E-05
 0.93500000E+02 -0.20008E-05
 0.93550003E+02  0.41374E-05
 0.93599998E+02  0.80094E-05
 0.93650002E+02  0.47645E-05
 0.93700005E+02 -0.20984E-05
 0.93750000E+02 -0.11026E-04
 0.93800003E+02 -0.18008E-04
 0.93849998E+02 -0.20367E-04
 0.93900002E+02 -0.21105E-04
 0.93950005E+02 -0.17190E-04
 0.94000000E+02 -0.59070E-05
 0.94050003E+02  0.61814E-05
 0.94099998E+02  0.14022E-04
 0.94150002E+02  0.18659E-04
 0.94200005E+02  0.19349E-04
 0.94250000E+02  0.15627E-04
 0.94300003E+02  0.11928E-04
 0.94349998E+02  0.88072E-05
 0.94400002E+02  0.65404E-05
 0.94450005E+02  0.38625E-05
 0.94500000E+02 -0.20495E-05
 0.94550003E+02 -0.56682E-05
 0.94599998E+02 -0.40961E-05
 0.94650002E+02 -0.12646E-05
 0.94700005E+02 -0.69050E-06
 0.94750000E+02 -0.26026E-05
 0.94800003E+02 -0.86134E-05
 0.94849998E+02 -0.16298E-04
 0.94900002E+02 -0.19012E-04
 0.94950005E+02 -0.17724E-04
 0.95000000E+02 -0.13131E-04
 0.95050003E+02 -0.54752E-05
 0.95099998E+02  0.43615E-05
 0.95150002E+02  0.14173E-04
 0.95200005E+02  0.20009E-04
 0.95250000E+02  0.23102E-04
 0.95300003E+02  0.23617E-04
 0.95349998E+02  0.18409E-04
 0.95400002E+02  0.95043E-05
 0.95450005E+02  0.23876E-05
 0.95500000E+02 -0.24346E-05
 0.95550003E+02 -0.76097E-05
 0.95599998E+02 -0.14413E-04
 0.95650002E+02 -0.21031E-04
 0.95700005E+02 -0.23202E-04
 0.95750000E+02 -0.17734E-04
 0.95800003E+02 -0.92882E-05
 0.95849998E+02 -0.32833E-05
 0.95900002E+02  0.11843E-05
 0.95950005E+02  0.38997E-05
 0.96000000E+02  0.65593E-05
 0.96050003E+02  0.85279E-05
 0.96099998E+02  0.97319E-05
 0.96150002E+02  0.10776E-04
 0.96200005E+02  0.88341E-05
 0.96250000E+02  0.69208E-05
 0.96300003E+02  0.48046E-05
 0.96349998E+02  0.80449E-06
 0.96400002E+02 -0.36846E-05
 0.96450005E+02 -0.64915E-05
 0.96500000E+02 -0.60488E-05
 0.96550003E+02 -0.43801E-05
 0.96599998E+02 -0.11025E-05
 0.96650002E+02  0.36543E-05
 0.96700005E+02  0.75228E-05
 0.96750000E+02  0.90892E-05
 0.96800003E+02  0.93799E-05
 0.96849998E+02  0.85258E-05
 0.96900002E+02  0.51694E-05
 0.96950005E+02  0.61370E-06
 0.97000000E+02 -0.37155E-05
 0.97050003E+02 -0.79388E-05
 0.97099998E+02 -0.11264E-04
 0.97150002E+02 -0.11945E-04
 0.97200005E+02 -0.10321E-04
 0.97250000E+02 -0.86496E-05
 0.97300003E+02 -0.81082E-05
 0.97349998E+02 -0.69933E-05
 0.97400002E+02 -0.42582E-05
 0.97450005E+02  0.81452E-06
 0.97500000E+02  0.50463E-05
 0.97550003E+02  0.58907E-05
 0.97599998E+02  0.70625E-05
 0.97650002E+02  0.59147E-05
 0.97700005E+02  0.61284E-06
 0.97750000E+02 -0.20062E-05
 0.97800003E+02 -0.10491E-06
 0.97849998E+02  0.12831E-05
 0.97900002E+02  0.13764E-05
 0.97950005E+02  0.66587E-06
 0.98000000E+02 -0.39224E-06
 0.98050003E+02  0.12107E-06
 0.98099998E+02  0.19964E-05
 0.98150002E+02  0.47251E-05
 0.98200005E+02  0.50258E-05
 0.98250000E+02  0.32537E-05
 0.98300003E+02  0.26717E-05
 0.98349998E+02  0.16839E-05
 0.98400002E+02  0.15616E-06
 0.98450005E+02 -0.25013E-06
 0.98500000E+02 -0.14845E-05
 0.98550003E+02 -0.44399E-05
 0.98599998E+02 -0.44404E-05
 0.98650002E+02 -0.21668E-05
 0.98700005E+02 -0.20121E-05
 0.98750000E+02 -0.11691E-05
 0.98800003E+02  0.21214E-05
 0.98849998E+02  0.47612E-05
 0.98900002E+02  0.60441E-05
 0.98950005E+02  0.73956E-05
 0.99000000E+02  0.84552E-05
 0.99050003E+02  0.65787E-05
 0.99099998E+02  0.28234E-05
 0.99150002E+02  0.67599E-06
 0.99200005E+02 -0.28383E-05
 0.99250000E+02 -0.65697E-05
 0.99300003E+02 -0.76536E-05
 0.99349998E+02 -0.87862E-05
 0.99400002E+02 -0.95416E-05
 0.99450005E+02 -0.10995E-04
 0.99500000E+02 -0.11862E-04
 0.99550003E+02 -0.11131E-04
 0.99599998E+02 -0.93241E-05
 0.99650002E+02 -0.38787E-05
 0.99700005E+02  0.14405E-05
 0.99750000E+02  0.34166E-05
 0.99800003E+02  0.46803E-05
 0.99849998E+02  0.80525E-05
 0.99900002E+02  0.12148E-04
 0.99950005E+02  0.12811E-04
 0.10000000E+03  0.10169E-04
