 0.00000000E+00  0.11468E-06
 0.50000001E-01  0.11737E-06
 0.10000000E+00  0.12177E-06
 0.15000001E+00  0.11179E-06
 0.20000000E+00  0.99434E-07
 0.25000000E+00  0.10519E-06
 0.30000001E+00  0.10229E-06
 0.34999999E+00  0.82666E-07
 0.40000001E+00  0.51323E-07
 0.45000002E+00  0.22439E-07
 0.50000000E+00 -0.16163E-08
 0.55000001E+00 -0.32057E-07
 0.60000002E+00 -0.55762E-07
 0.65000004E+00 -0.72309E-07
 0.69999999E+00 -0.93654E-07
 0.75000000E+00 -0.11147E-06
 0.80000001E+00 -0.12046E-06
 0.85000002E+00 -0.12121E-06
 0.90000004E+00 -0.11848E-06
 0.94999999E+00 -0.11699E-06
 0.10000000E+01 -0.10688E-06
 0.10500001E+01 -0.99722E-07
 0.11000000E+01 -0.88986E-07
 0.11500000E+01 -0.74253E-07
 0.12000000E+01 -0.64431E-07
 0.12500000E+01 -0.45500E-07
 0.13000001E+01 -0.28073E-07
 0.13500000E+01 -0.85832E-08
 0.14000000E+01  0.12294E-07
 0.14500000E+01  0.28191E-07
 0.15000000E+01  0.41946E-07
 0.15500001E+01  0.57881E-07
 0.16000000E+01  0.78828E-07
 0.16500000E+01  0.10433E-06
 0.17000000E+01  0.13864E-06
 0.17500000E+01  0.15486E-06
 0.18000001E+01  0.15492E-06
 0.18500000E+01  0.14997E-06
 0.19000000E+01  0.14476E-06
 0.19500000E+01  0.14074E-06
 0.20000000E+01  0.12500E-06
 0.20500000E+01  0.11254E-06
 0.21000001E+01  0.95749E-07
 0.21500001E+01  0.72161E-07
 0.22000000E+01  0.48906E-07
 0.22500000E+01  0.21442E-07
 0.23000000E+01  0.70786E-09
 0.23500001E+01 -0.22665E-07
 0.24000001E+01 -0.50744E-07
 0.24500000E+01 -0.89139E-07
 0.25000000E+01 -0.12757E-06
 0.25500000E+01 -0.14686E-06
 0.26000001E+01 -0.16351E-06
 0.26500001E+01 -0.16641E-06
 0.27000000E+01 -0.16749E-06
 0.27500000E+01 -0.17615E-06
 0.28000000E+01 -0.18177E-06
 0.28500001E+01 -0.18848E-06
 0.29000001E+01 -0.19045E-06
 0.29500000E+01 -0.18015E-06
 0.30000000E+01 -0.14905E-06
 0.30500000E+01 -0.11946E-06
 0.31000001E+01 -0.87157E-07
 0.31500001E+01 -0.39636E-07
 0.32000000E+01 -0.34116E-08
 0.32500000E+01  0.22891E-07
 0.33000000E+01  0.55161E-07
 0.33500001E+01  0.84006E-07
 0.34000001E+01  0.10461E-06
 0.34500000E+01  0.12946E-06
 0.35000000E+01  0.14082E-06
 0.35500000E+01  0.14564E-06
 0.36000001E+01  0.14659E-06
 0.36500001E+01  0.12471E-06
 0.37000000E+01  0.11114E-06
 0.37500000E+01  0.10818E-06
 0.38000000E+01  0.10505E-06
 0.38500001E+01  0.10253E-06
 0.39000001E+01  0.85913E-07
 0.39500000E+01  0.58572E-07
 0.40000000E+01  0.34002E-07
 0.40500002E+01  0.12950E-07
 0.40999999E+01 -0.16036E-07
 0.41500001E+01 -0.44754E-07
 0.42000003E+01 -0.64936E-07
 0.42500000E+01 -0.74526E-07
 0.43000002E+01 -0.78185E-07
 0.43499999E+01 -0.92655E-07
 0.44000001E+01 -0.10661E-06
 0.44500003E+01 -0.11561E-06
 0.45000000E+01 -0.11303E-06
 0.45500002E+01 -0.96936E-07
 0.45999999E+01 -0.76731E-07
 0.46500001E+01 -0.46425E-07
 0.47000003E+01 -0.30015E-07
 0.47500000E+01 -0.13818E-07
 0.48000002E+01  0.47621E-09
 0.48499999E+01  0.61108E-08
 0.49000001E+01  0.23911E-07
 0.49500003E+01  0.37833E-07
 0.50000000E+01  0.53274E-07
 0.50500002E+01  0.57966E-07
 0.50999999E+01  0.53523E-07
 0.51500001E+01  0.51965E-07
 0.52000003E+01  0.53780E-07
 0.52500000E+01  0.53420E-07
 0.53000002E+01  0.35152E-07
 0.53499999E+01  0.28067E-07
 0.54000001E+01  0.27093E-07
 0.54500003E+01  0.13342E-07
 0.55000000E+01  0.85760E-08
 0.55500002E+01  0.10655E-07
 0.55999999E+01  0.18354E-07
 0.56500001E+01  0.35098E-07
 0.57000003E+01  0.47676E-07
 0.57500000E+01  0.59601E-07
 0.58000002E+01  0.60830E-07
 0.58499999E+01  0.43453E-07
 0.59000001E+01  0.28817E-07
 0.59500003E+01  0.17115E-07
 0.60000000E+01  0.14526E-07
 0.60500002E+01  0.13329E-07
 0.60999999E+01  0.54055E-09
 0.61500001E+01 -0.22149E-07
 0.62000003E+01 -0.59384E-07
 0.62500000E+01 -0.83619E-07
 0.63000002E+01 -0.90115E-07
 0.63499999E+01 -0.91236E-07
 0.64000001E+01 -0.78335E-07
 0.64500003E+01 -0.71922E-07
 0.65000000E+01 -0.74379E-07
 0.65500002E+01 -0.69514E-07
 0.65999999E+01 -0.67798E-07
 0.66500001E+01 -0.63115E-07
 0.67000003E+01 -0.51780E-07
 0.67500000E+01 -0.39651E-07
 0.68000002E+01 -0.19369E-07
 0.68499999E+01 -0.75999E-08
 0.69000001E+01 -0.13420E-07
 0.69500003E+01 -0.25620E-08
 0.70000000E+01  0.18353E-07
 0.70500002E+01  0.24235E-07
 0.70999999E+01  0.24896E-07
 0.71500001E+01  0.18660E-07
 0.72000003E+01  0.23180E-07
 0.72500000E+01  0.40291E-07
 0.73000002E+01  0.55950E-07
 0.73499999E+01  0.78738E-07
 0.74000001E+01  0.78175E-07
 0.74500003E+01  0.67806E-07
 0.75000000E+01  0.60602E-07
 0.75500002E+01  0.34106E-07
 0.75999999E+01  0.16469E-07
 0.76500001E+01 -0.40860E-08
 0.77000003E+01 -0.24629E-07
 0.77500000E+01 -0.31865E-07
 0.78000002E+01 -0.38140E-07
 0.78499999E+01 -0.25122E-07
 0.79000001E+01 -0.11493E-07
 0.79500003E+01 -0.10216E-07
 0.80000000E+01 -0.67122E-08
 0.80500002E+01 -0.48579E-08
 0.81000004E+01  0.32449E-08
 0.81500006E+01  0.15869E-07
 0.81999998E+01  0.20827E-07
 0.82500000E+01  0.28624E-07
 0.83000002E+01  0.38081E-07
 0.83500004E+01  0.41553E-07
 0.84000006E+01  0.44170E-07
 0.84499998E+01  0.46027E-07
 0.85000000E+01  0.42589E-07
 0.85500002E+01  0.31138E-07
 0.86000004E+01  0.21526E-07
 0.86500006E+01  0.12001E-07
 0.86999998E+01  0.21320E-08
 0.87500000E+01 -0.39025E-08
 0.88000002E+01 -0.90901E-08
 0.88500004E+01 -0.65615E-08
 0.89000006E+01 -0.51116E-08
 0.89499998E+01 -0.42370E-08
 0.90000000E+01 -0.13587E-07
 0.90500002E+01 -0.28509E-07
 0.91000004E+01 -0.36256E-07
 0.91500006E+01 -0.46232E-07
 0.91999998E+01 -0.51945E-07
 0.92500000E+01 -0.50505E-07
 0.93000002E+01 -0.54609E-07
 0.93500004E+01 -0.65436E-07
 0.94000006E+01 -0.60366E-07
 0.94499998E+01 -0.56226E-07
 0.95000000E+01 -0.62100E-07
 0.95500002E+01 -0.64606E-07
 0.96000004E+01 -0.58228E-07
 0.96500006E+01 -0.33851E-07
 0.96999998E+01 -0.21088E-07
 0.97500000E+01 -0.25187E-07
 0.98000002E+01 -0.28588E-07
 0.98500004E+01 -0.30104E-07
 0.99000006E+01 -0.18174E-07
 0.99499998E+01  0.14214E-08
 0.10000000E+02  0.18068E-07
 0.10050000E+02  0.30555E-07
 0.10100000E+02  0.42864E-07
 0.10150001E+02  0.53140E-07
 0.10200000E+02  0.54530E-07
 0.10250000E+02  0.58496E-07
 0.10300000E+02  0.61931E-07
 0.10350000E+02  0.64518E-07
 0.10400001E+02  0.70313E-07
 0.10450000E+02  0.73040E-07
 0.10500000E+02  0.74746E-07
 0.10550000E+02  0.79854E-07
 0.10600000E+02  0.87664E-07
 0.10650001E+02  0.83301E-07
 0.10700000E+02  0.71016E-07
 0.10750000E+02  0.43686E-07
 0.10800000E+02  0.18222E-07
 0.10850000E+02  0.15337E-07
 0.10900001E+02  0.43335E-08
 0.10950000E+02 -0.44694E-08
 0.11000000E+02 -0.15348E-07
 0.11050000E+02 -0.32274E-07
 0.11100000E+02 -0.43566E-07
 0.11150001E+02 -0.64548E-07
 0.11200000E+02 -0.80042E-07
 0.11250000E+02 -0.87742E-07
 0.11300000E+02 -0.79575E-07
 0.11350000E+02 -0.67012E-07
 0.11400001E+02 -0.67550E-07
 0.11450000E+02 -0.58042E-07
 0.11500000E+02 -0.47515E-07
 0.11550000E+02 -0.42304E-07
 0.11600000E+02 -0.26245E-07
 0.11650001E+02 -0.87116E-08
 0.11700000E+02  0.81257E-08
 0.11750000E+02  0.23397E-07
 0.11800000E+02  0.21061E-07
 0.11850000E+02  0.20200E-07
 0.11900001E+02  0.18026E-07
 0.11950000E+02  0.11921E-07
 0.12000000E+02  0.18697E-07
 0.12050000E+02  0.31093E-07
 0.12100000E+02  0.40040E-07
 0.12150001E+02  0.50482E-07
 0.12200000E+02  0.57550E-07
 0.12250000E+02  0.65382E-07
 0.12300000E+02  0.89614E-07
 0.12350000E+02  0.10238E-06
 0.12400001E+02  0.10724E-06
 0.12450000E+02  0.10803E-06
 0.12500000E+02  0.10219E-06
 0.12550000E+02  0.98620E-07
 0.12600000E+02  0.82351E-07
 0.12650001E+02  0.72990E-07
 0.12700000E+02  0.70907E-07
 0.12750000E+02  0.59216E-07
 0.12800000E+02  0.42534E-07
 0.12850000E+02  0.16304E-07
 0.12900001E+02 -0.81192E-08
 0.12950000E+02 -0.24528E-07
 0.13000000E+02 -0.47759E-07
 0.13050000E+02 -0.64413E-07
 0.13100000E+02 -0.75977E-07
 0.13150001E+02 -0.94297E-07
 0.13200000E+02 -0.11245E-06
 0.13250000E+02 -0.13276E-06
 0.13300000E+02 -0.13606E-06
 0.13350000E+02 -0.11979E-06
 0.13400001E+02 -0.10299E-06
 0.13450000E+02 -0.10025E-06
 0.13500000E+02 -0.10465E-06
 0.13550000E+02 -0.99069E-07
 0.13600000E+02 -0.82170E-07
 0.13650001E+02 -0.62635E-07
 0.13700000E+02 -0.45540E-07
 0.13750000E+02 -0.34878E-07
 0.13800000E+02 -0.39683E-07
 0.13850000E+02 -0.41673E-07
 0.13900001E+02 -0.43562E-07
 0.13950000E+02 -0.48962E-07
 0.14000000E+02 -0.51754E-07
 0.14050000E+02 -0.56376E-07
 0.14100000E+02 -0.56443E-07
 0.14150001E+02 -0.58008E-07
 0.14200000E+02 -0.63904E-07
 0.14250000E+02 -0.64416E-07
 0.14300000E+02 -0.57705E-07
 0.14350000E+02 -0.38981E-07
 0.14400001E+02 -0.35720E-08
 0.14450000E+02  0.28976E-07
 0.14500000E+02  0.60570E-07
 0.14550000E+02  0.96002E-07
 0.14600000E+02  0.12499E-06
 0.14650001E+02  0.14450E-06
 0.14700000E+02  0.15891E-06
 0.14750000E+02  0.17309E-06
 0.14800000E+02  0.17178E-06
 0.14850000E+02  0.16645E-06
 0.14900001E+02  0.15759E-06
 0.14950000E+02  0.13528E-06
 0.15000000E+02  0.12059E-06
 0.15050000E+02  0.11010E-06
 0.15100000E+02  0.95464E-07
 0.15150001E+02  0.85861E-07
 0.15200000E+02  0.87015E-07
 0.15250000E+02  0.77271E-07
 0.15300000E+02  0.51535E-07
 0.15350000E+02  0.29957E-07
 0.15400001E+02  0.92845E-08
 0.15450000E+02  0.18038E-08
 0.15500000E+02 -0.36048E-08
 0.15550000E+02 -0.30314E-07
 0.15600000E+02 -0.60851E-07
 0.15650001E+02 -0.93021E-07
 0.15700000E+02 -0.11457E-06
 0.15750000E+02 -0.11545E-06
 0.15800000E+02 -0.11816E-06
 0.15850000E+02 -0.12742E-06
 0.15900001E+02 -0.13616E-06
 0.15950000E+02 -0.14574E-06
 0.16000000E+02 -0.14530E-06
 0.16050001E+02 -0.12986E-06
 0.16100000E+02 -0.10952E-06
 0.16150000E+02 -0.74394E-07
 0.16200001E+02 -0.38204E-07
 0.16250000E+02 -0.56340E-08
 0.16300001E+02  0.22697E-07
 0.16350000E+02  0.47430E-07
 0.16400000E+02  0.66472E-07
 0.16450001E+02  0.69850E-07
 0.16500000E+02  0.72928E-07
 0.16550001E+02  0.67413E-07
 0.16600000E+02  0.70808E-07
 0.16650000E+02  0.73121E-07
 0.16700001E+02  0.50559E-07
 0.16750000E+02  0.20146E-07
 0.16800001E+02 -0.10763E-07
 0.16850000E+02 -0.24597E-07
 0.16900000E+02 -0.21242E-07
 0.16950001E+02 -0.13191E-07
 0.17000000E+02 -0.11394E-07
 0.17050001E+02 -0.79281E-08
 0.17100000E+02 -0.36707E-08
 0.17150000E+02 -0.99642E-08
 0.17200001E+02 -0.16229E-07
 0.17250000E+02 -0.11721E-07
 0.17300001E+02  0.49257E-08
 0.17350000E+02  0.19866E-07
 0.17400000E+02  0.28550E-07
 0.17450001E+02  0.37651E-07
 0.17500000E+02  0.45822E-07
 0.17550001E+02  0.54137E-07
 0.17600000E+02  0.63741E-07
 0.17650000E+02  0.68042E-07
 0.17700001E+02  0.62072E-07
 0.17750000E+02  0.58849E-07
 0.17800001E+02  0.65100E-07
 0.17850000E+02  0.71568E-07
 0.17900000E+02  0.72762E-07
 0.17950001E+02  0.67683E-07
 0.18000000E+02  0.64114E-07
 0.18050001E+02  0.62498E-07
 0.18100000E+02  0.58072E-07
 0.18150000E+02  0.57092E-07
 0.18200001E+02  0.50246E-07
 0.18250000E+02  0.33432E-07
 0.18300001E+02  0.16467E-07
 0.18350000E+02 -0.62189E-08
 0.18400000E+02 -0.28424E-07
 0.18450001E+02 -0.56689E-07
 0.18500000E+02 -0.80048E-07
 0.18550001E+02 -0.90929E-07
 0.18600000E+02 -0.11157E-06
 0.18650000E+02 -0.12423E-06
 0.18700001E+02 -0.12284E-06
 0.18750000E+02 -0.10439E-06
 0.18800001E+02 -0.80210E-07
 0.18850000E+02 -0.73869E-07
 0.18900000E+02 -0.81806E-07
 0.18950001E+02 -0.86382E-07
 0.19000000E+02 -0.71195E-07
 0.19050001E+02 -0.51076E-07
 0.19100000E+02 -0.48514E-07
 0.19150000E+02 -0.54389E-07
 0.19200001E+02 -0.57049E-07
 0.19250000E+02 -0.64190E-07
 0.19300001E+02 -0.65244E-07
 0.19350000E+02 -0.59980E-07
 0.19400000E+02 -0.49223E-07
 0.19450001E+02 -0.34409E-07
 0.19500000E+02 -0.27735E-07
 0.19550001E+02 -0.21460E-07
 0.19600000E+02 -0.12915E-07
 0.19650000E+02  0.35820E-09
 0.19700001E+02  0.60468E-08
 0.19750000E+02  0.80447E-08
 0.19800001E+02  0.52556E-09
 0.19850000E+02 -0.82995E-08
 0.19900000E+02 -0.37408E-08
 0.19950001E+02  0.60066E-08
 0.20000000E+02  0.24356E-07
 0.20050001E+02  0.28810E-07
 0.20100000E+02  0.22129E-07
 0.20150000E+02  0.18863E-07
 0.20200001E+02  0.87294E-08
 0.20250000E+02 -0.47613E-08
 0.20300001E+02 -0.10002E-07
 0.20350000E+02 -0.11395E-07
 0.20400000E+02 -0.81119E-08
 0.20450001E+02 -0.14906E-07
 0.20500000E+02 -0.25055E-07
 0.20550001E+02 -0.14409E-07
 0.20600000E+02 -0.18071E-07
 0.20650000E+02 -0.20833E-07
 0.20700001E+02 -0.17668E-07
 0.20750000E+02 -0.15384E-07
 0.20800001E+02  0.12943E-07
 0.20850000E+02  0.33333E-07
 0.20900000E+02  0.46295E-07
 0.20950001E+02  0.58810E-07
 0.21000000E+02  0.68636E-07
 0.21050001E+02  0.93886E-07
 0.21100000E+02  0.11978E-06
 0.21150000E+02  0.14004E-06
 0.21200001E+02  0.14598E-06
 0.21250000E+02  0.14575E-06
 0.21300001E+02  0.14042E-06
 0.21350000E+02  0.12921E-06
 0.21400000E+02  0.11141E-06
 0.21450001E+02  0.79397E-07
 0.21500000E+02  0.54117E-07
 0.21550001E+02  0.37983E-07
 0.21600000E+02  0.25981E-07
 0.21650000E+02  0.13169E-07
 0.21700001E+02  0.31942E-08
 0.21750000E+02 -0.22330E-07
 0.21800001E+02 -0.50885E-07
 0.21850000E+02 -0.52763E-07
 0.21900000E+02 -0.59747E-07
 0.21950001E+02 -0.57795E-07
 0.22000000E+02 -0.44446E-07
 0.22050001E+02 -0.30916E-07
 0.22100000E+02 -0.16493E-07
 0.22150000E+02 -0.33409E-07
 0.22200001E+02 -0.65803E-07
 0.22250000E+02 -0.81526E-07
 0.22300001E+02 -0.78304E-07
 0.22350000E+02 -0.65754E-07
 0.22400000E+02 -0.54753E-07
 0.22450001E+02 -0.40736E-07
 0.22500000E+02 -0.38724E-07
 0.22550001E+02 -0.45739E-07
 0.22600000E+02 -0.47495E-07
 0.22650000E+02 -0.52261E-07
 0.22700001E+02 -0.44830E-07
 0.22750000E+02 -0.36928E-07
 0.22800001E+02 -0.42872E-07
 0.22850000E+02 -0.45104E-07
 0.22900000E+02 -0.30797E-07
 0.22950001E+02 -0.86640E-08
 0.23000000E+02 -0.14608E-08
 0.23050001E+02  0.94653E-09
 0.23100000E+02  0.15228E-07
 0.23150000E+02  0.36211E-07
 0.23200001E+02  0.40469E-07
 0.23250000E+02  0.25504E-07
 0.23300001E+02  0.20614E-07
 0.23350000E+02  0.18385E-07
 0.23400000E+02  0.59258E-08
 0.23450001E+02 -0.37055E-08
 0.23500000E+02 -0.10051E-07
 0.23550001E+02 -0.23098E-07
 0.23600000E+02 -0.40560E-07
 0.23650000E+02 -0.47802E-07
 0.23700001E+02 -0.56294E-07
 0.23750000E+02 -0.62577E-07
 0.23800001E+02 -0.55988E-07
 0.23850000E+02 -0.50992E-07
 0.23900000E+02 -0.27384E-07
 0.23950001E+02 -0.52909E-07
 0.24000000E+02 -0.74116E-07
 0.24050001E+02 -0.12207E-06
 0.24100000E+02 -0.13043E-06
 0.24150000E+02  0.76432E-07
 0.24200001E+02  0.23745E-06
 0.24250000E+02  0.26153E-06
 0.24300001E+02 -0.29423E-07
 0.24350000E+02 -0.23580E-06
 0.24400000E+02 -0.15421E-06
 0.24450001E+02 -0.10395E-06
 0.24500000E+02  0.11883E-06
 0.24550001E+02  0.34861E-06
 0.24600000E+02  0.15393E-06
 0.24650000E+02 -0.52076E-06
 0.24700001E+02 -0.16539E-05
 0.24750000E+02 -0.19496E-05
 0.24800001E+02  0.73808E-06
 0.24850000E+02  0.12735E-05
 0.24900000E+02 -0.50571E-06
 0.24950001E+02  0.87286E-06
 0.25000000E+02  0.18563E-05
 0.25050001E+02  0.14309E-05
 0.25100000E+02  0.18228E-06
 0.25150000E+02  0.88367E-07
 0.25200001E+02  0.11381E-05
 0.25250000E+02  0.18702E-05
 0.25300001E+02  0.28479E-05
 0.25350000E+02  0.57444E-06
 0.25400000E+02 -0.58058E-06
 0.25450001E+02  0.81994E-06
 0.25500000E+02  0.29104E-06
 0.25550001E+02 -0.28530E-05
 0.25600000E+02 -0.44814E-05
 0.25650000E+02 -0.16047E-05
 0.25700001E+02 -0.10098E-05
 0.25750000E+02 -0.29063E-05
 0.25800001E+02 -0.27855E-05
 0.25850000E+02 -0.95152E-06
 0.25900000E+02 -0.96717E-06
 0.25950001E+02  0.17717E-05
 0.26000000E+02  0.30913E-05
 0.26050001E+02 -0.49985E-05
 0.26100000E+02 -0.39189E-05
 0.26150000E+02  0.55362E-05
 0.26200001E+02  0.53603E-05
 0.26250000E+02  0.29006E-05
 0.26300001E+02  0.23074E-05
 0.26350000E+02 -0.27394E-05
 0.26400000E+02 -0.10569E-05
 0.26450001E+02  0.80173E-05
 0.26500000E+02  0.93335E-05
 0.26550001E+02 -0.13990E-05
 0.26600000E+02 -0.10429E-04
 0.26650000E+02 -0.68708E-06
 0.26700001E+02  0.11063E-04
 0.26750000E+02  0.76076E-06
 0.26800001E+02 -0.13241E-04
 0.26850000E+02 -0.11584E-04
 0.26900000E+02 -0.74281E-05
 0.26950001E+02 -0.22571E-05
 0.27000000E+02 -0.25703E-05
 0.27050001E+02 -0.17912E-05
 0.27100000E+02  0.13560E-04
 0.27150000E+02  0.10604E-04
 0.27200001E+02  0.26626E-05
 0.27250000E+02  0.99219E-05
 0.27300001E+02  0.60038E-05
 0.27350000E+02  0.35592E-06
 0.27400000E+02 -0.62639E-05
 0.27450001E+02 -0.97913E-05
 0.27500000E+02 -0.35084E-05
 0.27550001E+02 -0.38338E-05
 0.27600000E+02 -0.49164E-05
 0.27650000E+02 -0.55331E-05
 0.27700001E+02  0.65065E-05
 0.27750000E+02  0.19581E-04
 0.27800001E+02  0.22496E-05
 0.27850000E+02 -0.13867E-04
 0.27900000E+02 -0.75410E-05
 0.27950001E+02  0.45821E-05
 0.28000000E+02  0.72326E-05
 0.28050001E+02 -0.83722E-05
 0.28100000E+02 -0.10917E-04
 0.28150000E+02  0.36469E-06
 0.28200001E+02  0.44240E-05
 0.28250000E+02  0.10172E-04
 0.28300001E+02  0.99123E-05
 0.28350000E+02  0.12134E-04
 0.28400000E+02  0.86630E-05
 0.28450001E+02 -0.14562E-04
 0.28500000E+02 -0.23892E-04
 0.28550001E+02 -0.11920E-04
 0.28600000E+02  0.58832E-05
 0.28650000E+02  0.15584E-04
 0.28700001E+02  0.15632E-06
 0.28750000E+02 -0.76849E-05
 0.28800001E+02 -0.17855E-05
 0.28850000E+02  0.12442E-05
 0.28900000E+02  0.81142E-05
 0.28950001E+02 -0.72307E-05
 0.29000000E+02 -0.17606E-04
 0.29050001E+02 -0.16467E-06
 0.29100000E+02  0.12159E-04
 0.29150000E+02  0.21710E-04
 0.29200001E+02  0.18637E-04
 0.29250000E+02  0.12762E-05
 0.29300001E+02 -0.44307E-05
 0.29350000E+02 -0.72289E-05
 0.29400000E+02 -0.11379E-04
 0.29450001E+02 -0.12609E-04
 0.29500000E+02 -0.95432E-05
 0.29550001E+02 -0.47241E-05
 0.29600000E+02 -0.38692E-05
 0.29650000E+02  0.62432E-05
 0.29700001E+02  0.18464E-04
 0.29750000E+02  0.12781E-04
 0.29800001E+02 -0.72401E-05
 0.29850000E+02 -0.15797E-04
 0.29900000E+02 -0.31944E-05
 0.29950001E+02  0.46529E-05
 0.30000000E+02 -0.51761E-05
 0.30050001E+02 -0.73204E-05
 0.30100000E+02 -0.19938E-05
 0.30150000E+02  0.15899E-05
 0.30200001E+02  0.14446E-04
 0.30250000E+02  0.14364E-04
 0.30300001E+02  0.24552E-06
 0.30350000E+02 -0.67825E-06
 0.30400000E+02  0.54028E-05
 0.30450001E+02 -0.25683E-05
 0.30500000E+02 -0.34466E-05
 0.30550001E+02  0.44201E-05
 0.30600000E+02 -0.73708E-05
 0.30650000E+02 -0.15262E-04
 0.30700001E+02 -0.43785E-05
 0.30750000E+02  0.11861E-04
 0.30800001E+02  0.16421E-04
 0.30850000E+02  0.46381E-05
 0.30900000E+02 -0.10444E-04
 0.30950001E+02 -0.13227E-04
 0.31000000E+02 -0.51126E-05
 0.31050001E+02 -0.17285E-05
 0.31100000E+02  0.37273E-05
 0.31150000E+02  0.67170E-05
 0.31200001E+02 -0.15497E-05
 0.31250000E+02 -0.49898E-05
 0.31300001E+02  0.66360E-05
 0.31350000E+02  0.16771E-04
 0.31400000E+02  0.95800E-05
 0.31450001E+02 -0.87630E-05
 0.31500000E+02 -0.17773E-04
 0.31550001E+02 -0.50258E-05
 0.31600000E+02  0.32630E-05
 0.31650000E+02  0.36928E-05
 0.31700001E+02  0.77381E-05
 0.31750000E+02  0.55195E-05
 0.31800001E+02 -0.15600E-05
 0.31850000E+02 -0.99741E-05
 0.31900000E+02 -0.46327E-05
 0.31950001E+02  0.27056E-05
 0.32000000E+02 -0.55675E-06
 0.32049999E+02  0.33531E-06
 0.32100002E+02 -0.48659E-06
 0.32150002E+02 -0.74189E-06
 0.32200001E+02 -0.17844E-05
 0.32250000E+02 -0.42942E-05
 0.32299999E+02 -0.16286E-05
 0.32350002E+02 -0.26778E-05
 0.32400002E+02 -0.10336E-05
 0.32450001E+02 -0.16756E-06
 0.32500000E+02 -0.23307E-05
 0.32549999E+02  0.52105E-05
 0.32600002E+02  0.86214E-05
 0.32650002E+02 -0.10914E-05
 0.32700001E+02 -0.83791E-05
 0.32750000E+02 -0.21010E-05
 0.32799999E+02  0.66054E-05
 0.32850002E+02  0.14704E-04
 0.32900002E+02  0.15334E-04
 0.32950001E+02  0.66676E-05
 0.33000000E+02  0.20928E-05
 0.33049999E+02 -0.51431E-05
 0.33100002E+02 -0.11541E-04
 0.33150002E+02 -0.81989E-05
 0.33200001E+02 -0.26148E-05
 0.33250000E+02  0.21875E-05
 0.33299999E+02  0.43580E-06
 0.33350002E+02 -0.95847E-05
 0.33400002E+02 -0.76682E-05
 0.33450001E+02 -0.25551E-05
 0.33500000E+02  0.28613E-05
 0.33549999E+02  0.53156E-05
 0.33600002E+02 -0.52190E-05
 0.33650002E+02 -0.60577E-05
 0.33700001E+02 -0.31194E-06
 0.33750000E+02  0.58742E-05
 0.33799999E+02  0.57482E-05
 0.33850002E+02  0.32448E-05
 0.33900002E+02  0.74705E-05
 0.33950001E+02  0.24634E-05
 0.34000000E+02 -0.54076E-05
 0.34049999E+02 -0.64508E-05
 0.34100002E+02 -0.56352E-05
 0.34150002E+02 -0.30459E-05
 0.34200001E+02  0.88606E-06
 0.34250000E+02  0.11362E-05
 0.34299999E+02  0.47435E-06
 0.34350002E+02  0.77709E-05
 0.34400002E+02  0.14511E-04
 0.34450001E+02  0.62937E-05
 0.34500000E+02 -0.79868E-05
 0.34549999E+02 -0.10649E-04
 0.34600002E+02 -0.42414E-05
 0.34650002E+02 -0.31393E-05
 0.34700001E+02 -0.29711E-05
 0.34750000E+02 -0.29632E-06
 0.34799999E+02  0.10556E-05
 0.34850002E+02  0.39478E-05
 0.34900002E+02  0.60583E-05
 0.34950001E+02  0.71539E-05
 0.35000000E+02  0.48686E-05
 0.35049999E+02 -0.10217E-05
 0.35100002E+02 -0.84822E-05
 0.35150002E+02 -0.12426E-04
 0.35200001E+02 -0.82575E-05
 0.35250000E+02 -0.27908E-05
 0.35299999E+02  0.28034E-05
 0.35350002E+02  0.11823E-04
 0.35400002E+02  0.15331E-04
 0.35450001E+02  0.66391E-05
 0.35500000E+02 -0.30291E-05
 0.35549999E+02 -0.39484E-05
 0.35600002E+02 -0.14653E-05
 0.35650002E+02 -0.42129E-05
 0.35700001E+02 -0.30157E-05
 0.35750000E+02  0.85991E-06
 0.35799999E+02  0.19161E-05
 0.35850002E+02  0.60950E-05
 0.35900002E+02  0.59711E-05
 0.35950001E+02  0.35594E-05
 0.36000000E+02  0.68085E-06
 0.36049999E+02 -0.25489E-05
 0.36100002E+02 -0.51391E-05
 0.36150002E+02 -0.93633E-05
 0.36200001E+02 -0.11851E-04
 0.36250000E+02 -0.90172E-05
 0.36299999E+02 -0.29320E-05
 0.36350002E+02 -0.55125E-06
 0.36400002E+02  0.99780E-06
 0.36450001E+02  0.59499E-05
 0.36500000E+02  0.84558E-05
 0.36549999E+02 -0.12440E-06
 0.36600002E+02 -0.58887E-05
 0.36650002E+02 -0.34656E-05
 0.36700001E+02 -0.15922E-05
 0.36750000E+02  0.31275E-05
 0.36799999E+02  0.70770E-05
 0.36850002E+02  0.90654E-05
 0.36900002E+02  0.10072E-04
 0.36950001E+02  0.88854E-05
 0.37000000E+02  0.59829E-05
 0.37049999E+02 -0.17312E-05
 0.37100002E+02 -0.11423E-04
 0.37150002E+02 -0.16092E-04
 0.37200001E+02 -0.12685E-04
 0.37250000E+02 -0.37306E-06
 0.37299999E+02  0.71781E-05
 0.37350002E+02  0.27609E-05
 0.37400002E+02 -0.52551E-06
 0.37450001E+02  0.21493E-05
 0.37500000E+02  0.53630E-05
 0.37549999E+02  0.82196E-05
 0.37600002E+02  0.53510E-05
 0.37650002E+02 -0.41529E-05
 0.37700001E+02 -0.10210E-04
 0.37750000E+02 -0.83931E-05
 0.37799999E+02 -0.16086E-05
 0.37850002E+02  0.12327E-05
 0.37900002E+02  0.12912E-05
 0.37950001E+02  0.12967E-05
 0.38000000E+02  0.23008E-05
 0.38049999E+02  0.47980E-05
 0.38100002E+02  0.14670E-05
 0.38150002E+02 -0.31684E-05
 0.38200001E+02 -0.39757E-05
 0.38250000E+02 -0.45835E-05
 0.38299999E+02  0.37290E-06
 0.38350002E+02  0.66764E-05
 0.38400002E+02  0.87691E-05
 0.38450001E+02  0.88063E-05
 0.38500000E+02  0.22501E-05
 0.38549999E+02 -0.31971E-05
 0.38600002E+02 -0.82082E-05
 0.38650002E+02 -0.11369E-04
 0.38700001E+02 -0.52568E-05
 0.38750000E+02  0.48058E-06
 0.38799999E+02  0.14196E-05
 0.38850002E+02 -0.10998E-05
 0.38900002E+02 -0.37654E-05
 0.38950001E+02 -0.29721E-05
 0.39000000E+02  0.21810E-05
 0.39049999E+02  0.63416E-05
 0.39100002E+02  0.75200E-05
 0.39150002E+02  0.79126E-05
 0.39200001E+02 -0.47180E-06
 0.39250000E+02 -0.54208E-05
 0.39299999E+02  0.74370E-06
 0.39350002E+02  0.19451E-05
 0.39400002E+02  0.27965E-05
 0.39450001E+02 -0.89645E-07
 0.39500000E+02 -0.11020E-04
 0.39549999E+02 -0.10591E-04
 0.39600002E+02 -0.71512E-06
 0.39650002E+02  0.41330E-05
 0.39700001E+02  0.23495E-05
 0.39750000E+02 -0.19326E-05
 0.39799999E+02  0.96075E-06
 0.39850002E+02  0.21235E-05
 0.39900002E+02 -0.17463E-05
 0.39950001E+02 -0.57440E-06
 0.40000000E+02 -0.72977E-06
 0.40049999E+02  0.12535E-05
 0.40100002E+02  0.58621E-05
 0.40150002E+02  0.54214E-05
 0.40200001E+02  0.32393E-05
 0.40250000E+02  0.41157E-05
 0.40299999E+02  0.94415E-05
 0.40350002E+02  0.97437E-05
 0.40400002E+02 -0.51400E-05
 0.40450001E+02 -0.14072E-04
 0.40500000E+02 -0.11419E-04
 0.40549999E+02 -0.11204E-04
 0.40600002E+02 -0.31487E-05
 0.40650002E+02  0.38945E-05
 0.40700001E+02  0.73330E-06
 0.40750000E+02 -0.29631E-05
 0.40799999E+02 -0.79368E-06
 0.40850002E+02  0.42448E-05
 0.40900002E+02  0.32541E-05
 0.40950001E+02  0.40350E-05
 0.41000000E+02  0.75890E-05
 0.41049999E+02  0.88488E-05
 0.41100002E+02  0.88489E-05
 0.41150002E+02  0.50562E-05
 0.41200001E+02 -0.28697E-05
 0.41250000E+02 -0.85989E-05
 0.41299999E+02 -0.54427E-06
 0.41350002E+02  0.99316E-05
 0.41400002E+02  0.95900E-05
 0.41450001E+02  0.42427E-05
 0.41500000E+02 -0.30848E-05
 0.41549999E+02 -0.11820E-04
 0.41600002E+02 -0.13711E-04
 0.41650002E+02 -0.73694E-05
 0.41700001E+02  0.72872E-06
 0.41750000E+02  0.99009E-05
 0.41799999E+02  0.69340E-05
 0.41850002E+02 -0.53333E-05
 0.41900002E+02 -0.11451E-04
 0.41950001E+02 -0.10448E-04
 0.42000000E+02 -0.13308E-04
 0.42049999E+02 -0.21324E-04
 0.42100002E+02 -0.21179E-04
 0.42150002E+02 -0.17382E-04
 0.42200001E+02 -0.60270E-05
 0.42250000E+02  0.16593E-04
 0.42299999E+02  0.38202E-04
 0.42350002E+02  0.49109E-04
 0.42400002E+02  0.41838E-04
 0.42450001E+02  0.88978E-05
 0.42500000E+02 -0.32315E-04
 0.42549999E+02 -0.46462E-04
 0.42600002E+02 -0.51108E-04
 0.42650002E+02 -0.44864E-04
 0.42700001E+02 -0.23045E-05
 0.42750000E+02  0.46745E-04
 0.42799999E+02  0.80487E-04
 0.42850002E+02  0.75751E-04
 0.42900002E+02  0.38793E-04
 0.42950001E+02 -0.78149E-05
 0.43000000E+02 -0.62202E-04
 0.43049999E+02 -0.75606E-04
 0.43100002E+02 -0.43809E-04
 0.43150002E+02 -0.11219E-04
 0.43200001E+02  0.21610E-04
 0.43250000E+02  0.41974E-04
 0.43299999E+02  0.38459E-04
 0.43350002E+02  0.30948E-04
 0.43400002E+02  0.72918E-05
 0.43450001E+02 -0.34922E-04
 0.43500000E+02 -0.69604E-04
 0.43549999E+02 -0.79625E-04
 0.43600002E+02 -0.68185E-04
 0.43650002E+02 -0.31256E-04
 0.43700001E+02  0.37179E-04
 0.43750000E+02  0.87095E-04
 0.43799999E+02  0.95241E-04
 0.43850002E+02  0.84365E-04
 0.43900002E+02  0.70871E-04
 0.43950001E+02  0.36328E-04
 0.44000000E+02 -0.26550E-04
 0.44049999E+02 -0.67589E-04
 0.44100002E+02 -0.70775E-04
 0.44150002E+02 -0.50210E-04
 0.44200001E+02 -0.61939E-05
 0.44250000E+02  0.34356E-04
 0.44299999E+02  0.39887E-04
 0.44350002E+02  0.26870E-04
 0.44400002E+02  0.71790E-05
 0.44450001E+02 -0.23696E-04
 0.44500000E+02 -0.69679E-04
 0.44549999E+02 -0.10180E-03
 0.44600002E+02 -0.87182E-04
 0.44650002E+02 -0.43591E-04
 0.44700001E+02  0.29259E-04
 0.44750000E+02  0.91977E-04
 0.44799999E+02  0.92968E-04
 0.44850002E+02  0.54014E-04
 0.44900002E+02  0.13056E-04
 0.44950001E+02 -0.35107E-06
 0.45000000E+02  0.26413E-06
 0.45049999E+02 -0.11934E-04
 0.45100002E+02 -0.15371E-04
 0.45150002E+02  0.85925E-05
 0.45200001E+02  0.27560E-04
 0.45250000E+02  0.33112E-04
 0.45299999E+02  0.29818E-04
 0.45350002E+02 -0.69682E-06
 0.45400002E+02 -0.37599E-04
 0.45450001E+02 -0.51106E-04
 0.45500000E+02 -0.40037E-04
 0.45549999E+02 -0.27716E-04
 0.45600002E+02 -0.16716E-04
 0.45650002E+02 -0.10123E-04
 0.45700001E+02 -0.13292E-04
 0.45750000E+02  0.74548E-06
 0.45799999E+02  0.23335E-04
 0.45850002E+02  0.24432E-04
 0.45900002E+02 -0.12449E-04
 0.45950001E+02 -0.38673E-04
 0.46000000E+02 -0.83284E-05
 0.46049999E+02  0.24543E-04
 0.46100002E+02  0.42889E-04
 0.46150002E+02  0.53932E-04
 0.46200001E+02  0.40392E-04
 0.46250000E+02  0.23145E-04
 0.46299999E+02  0.12108E-04
 0.46350002E+02 -0.30141E-05
 0.46400002E+02 -0.27339E-04
 0.46450001E+02 -0.36540E-04
 0.46500000E+02 -0.11144E-04
 0.46549999E+02  0.22318E-04
 0.46600002E+02  0.34245E-04
 0.46650002E+02  0.19462E-04
 0.46700001E+02 -0.10511E-04
 0.46750000E+02 -0.46718E-04
 0.46799999E+02 -0.58940E-04
 0.46850002E+02 -0.47040E-04
 0.46900002E+02 -0.35215E-04
 0.46950001E+02 -0.10433E-04
 0.47000000E+02  0.17392E-04
 0.47049999E+02  0.29195E-04
 0.47100002E+02  0.37450E-04
 0.47150002E+02  0.33598E-04
 0.47200001E+02  0.11729E-04
 0.47250000E+02 -0.16258E-04
 0.47299999E+02 -0.39783E-04
 0.47350002E+02 -0.38433E-04
 0.47400002E+02 -0.21194E-04
 0.47450001E+02  0.84429E-06
 0.47500000E+02  0.21607E-04
 0.47549999E+02  0.40017E-04
 0.47600002E+02  0.52674E-04
 0.47650002E+02  0.46705E-04
 0.47700001E+02  0.29292E-04
 0.47750000E+02  0.34441E-05
 0.47799999E+02 -0.88661E-05
 0.47850002E+02 -0.93650E-05
 0.47900002E+02 -0.27341E-04
 0.47950001E+02 -0.32925E-04
 0.48000000E+02 -0.15275E-04
 0.48049999E+02 -0.10054E-04
 0.48100002E+02 -0.13718E-04
 0.48150002E+02 -0.13760E-04
 0.48200001E+02 -0.35341E-05
 0.48250000E+02  0.16062E-04
 0.48299999E+02  0.26564E-04
 0.48350002E+02  0.16781E-04
 0.48400002E+02 -0.48521E-05
 0.48450001E+02 -0.10376E-04
 0.48500000E+02 -0.51343E-05
 0.48549999E+02 -0.66442E-05
 0.48600002E+02 -0.16262E-04
 0.48650002E+02 -0.25413E-04
 0.48700001E+02 -0.12204E-04
 0.48750000E+02  0.59977E-05
 0.48799999E+02  0.79172E-05
 0.48850002E+02  0.28084E-05
 0.48900002E+02 -0.15511E-05
 0.48950001E+02  0.11550E-04
 0.49000000E+02  0.22097E-04
 0.49049999E+02  0.93351E-05
 0.49100002E+02  0.83715E-06
 0.49150002E+02 -0.37006E-06
 0.49200001E+02  0.93177E-05
 0.49250000E+02  0.16860E-04
 0.49299999E+02  0.10432E-04
 0.49350002E+02  0.97024E-05
 0.49400002E+02 -0.55751E-05
 0.49450001E+02 -0.24375E-04
 0.49500000E+02 -0.29485E-04
 0.49549999E+02 -0.25893E-04
 0.49600002E+02  0.94645E-06
 0.49650002E+02  0.27878E-04
 0.49700001E+02  0.32687E-04
 0.49750000E+02  0.16089E-04
 0.49799999E+02 -0.53658E-05
 0.49850002E+02 -0.58219E-05
 0.49900002E+02  0.24388E-05
 0.49950001E+02 -0.37541E-05
 0.50000000E+02 -0.12905E-04
 0.50049999E+02 -0.10162E-04
 0.50100002E+02 -0.53338E-05
 0.50150002E+02 -0.78363E-05
 0.50200001E+02 -0.11231E-04
 0.50250000E+02 -0.64536E-05
 0.50299999E+02  0.25075E-05
 0.50350002E+02  0.16226E-04
 0.50400002E+02  0.24936E-04
 0.50450001E+02  0.13284E-04
 0.50500000E+02  0.14042E-06
 0.50549999E+02 -0.98598E-05
 0.50600002E+02 -0.21714E-04
 0.50650002E+02 -0.20764E-04
 0.50700001E+02 -0.12160E-04
 0.50750000E+02 -0.41384E-05
 0.50799999E+02  0.44908E-05
 0.50850002E+02  0.78959E-05
 0.50900002E+02  0.60177E-05
 0.50950001E+02  0.11991E-05
 0.51000000E+02 -0.34373E-05
 0.51049999E+02 -0.43739E-05
 0.51100002E+02 -0.12694E-04
 0.51150002E+02 -0.17946E-04
 0.51200001E+02 -0.52661E-05
 0.51250000E+02  0.16469E-04
 0.51299999E+02  0.33222E-04
 0.51350002E+02  0.21753E-04
 0.51400002E+02  0.74885E-06
 0.51450001E+02 -0.68834E-07
 0.51500000E+02  0.11921E-04
 0.51549999E+02  0.24589E-04
 0.51600002E+02  0.22085E-04
 0.51650002E+02  0.41057E-05
 0.51700001E+02 -0.10328E-04
 0.51750000E+02 -0.17362E-04
 0.51799999E+02 -0.23390E-04
 0.51850002E+02 -0.22118E-04
 0.51900002E+02 -0.19430E-04
 0.51950001E+02 -0.18725E-04
 0.52000000E+02 -0.61772E-05
 0.52049999E+02  0.42277E-05
 0.52100002E+02  0.29021E-05
 0.52150002E+02 -0.18086E-05
 0.52200001E+02 -0.97659E-05
 0.52250000E+02 -0.37224E-05
 0.52299999E+02  0.12061E-04
 0.52350002E+02  0.17769E-04
 0.52400002E+02  0.18646E-04
 0.52450001E+02  0.19240E-04
 0.52500000E+02  0.21968E-04
 0.52549999E+02  0.17829E-04
 0.52600002E+02  0.83733E-05
 0.52650002E+02  0.13632E-05
 0.52700001E+02 -0.62492E-05
 0.52750000E+02 -0.82095E-05
 0.52799999E+02 -0.12197E-04
 0.52850002E+02 -0.21455E-04
 0.52900002E+02 -0.18568E-04
 0.52950001E+02 -0.11126E-04
 0.53000000E+02 -0.12765E-04
 0.53049999E+02 -0.14059E-04
 0.53100002E+02 -0.11023E-04
 0.53150002E+02  0.17579E-05
 0.53200001E+02  0.16447E-04
 0.53250000E+02  0.20032E-04
 0.53299999E+02  0.21582E-04
 0.53350002E+02  0.18811E-04
 0.53400002E+02  0.57876E-05
 0.53450001E+02 -0.12285E-04
 0.53500000E+02 -0.21921E-04
 0.53549999E+02 -0.10899E-04
 0.53600002E+02  0.53011E-05
 0.53650002E+02  0.96084E-05
 0.53700001E+02  0.13055E-04
 0.53750000E+02  0.12317E-04
 0.53799999E+02  0.20065E-05
 0.53850002E+02 -0.49697E-05
 0.53900002E+02 -0.10896E-04
 0.53950001E+02 -0.14540E-04
 0.54000000E+02 -0.11831E-04
 0.54049999E+02 -0.10590E-04
 0.54100002E+02 -0.10786E-04
 0.54150002E+02 -0.46155E-05
 0.54200001E+02  0.60589E-05
 0.54250000E+02  0.15352E-04
 0.54299999E+02  0.10229E-04
 0.54350002E+02 -0.61377E-05
 0.54400002E+02 -0.11483E-04
 0.54450001E+02 -0.13387E-04
 0.54500000E+02 -0.12300E-04
 0.54549999E+02  0.10432E-05
 0.54600002E+02  0.12001E-04
 0.54650002E+02  0.13698E-04
 0.54700001E+02  0.12203E-04
 0.54750000E+02  0.15234E-04
 0.54799999E+02  0.18758E-04
 0.54850002E+02  0.13864E-04
 0.54900002E+02  0.87172E-05
 0.54950001E+02  0.45075E-05
 0.55000000E+02 -0.42217E-05
 0.55049999E+02 -0.13424E-04
 0.55100002E+02 -0.11307E-04
 0.55150002E+02  0.16911E-05
 0.55200001E+02  0.47806E-05
 0.55250000E+02 -0.43008E-05
 0.55299999E+02 -0.16101E-04
 0.55350002E+02 -0.24461E-04
 0.55400002E+02 -0.23204E-04
 0.55450001E+02 -0.12628E-04
 0.55500000E+02  0.38013E-05
 0.55549999E+02  0.19811E-04
 0.55600002E+02  0.25679E-04
 0.55650002E+02  0.20261E-04
 0.55700001E+02  0.80344E-05
 0.55750000E+02 -0.70890E-05
 0.55799999E+02 -0.15596E-04
 0.55850002E+02 -0.17303E-04
 0.55900002E+02 -0.10072E-04
 0.55950001E+02  0.33814E-05
 0.56000000E+02  0.10130E-04
 0.56049999E+02  0.10899E-04
 0.56100002E+02  0.59874E-05
 0.56150002E+02 -0.77238E-05
 0.56200001E+02 -0.20644E-04
 0.56250000E+02 -0.18208E-04
 0.56299999E+02 -0.35533E-05
 0.56350002E+02  0.11327E-04
 0.56400002E+02  0.17448E-04
 0.56450001E+02  0.16384E-04
 0.56500000E+02  0.12941E-04
 0.56549999E+02  0.69803E-05
 0.56600002E+02  0.65391E-05
 0.56650002E+02  0.63201E-05
 0.56700001E+02  0.19038E-05
 0.56750000E+02  0.16250E-06
 0.56799999E+02 -0.11297E-05
 0.56850002E+02 -0.15255E-05
 0.56900002E+02 -0.42996E-05
 0.56950001E+02 -0.12418E-04
 0.57000000E+02 -0.17889E-04
 0.57049999E+02 -0.16537E-04
 0.57100002E+02 -0.12804E-04
 0.57150002E+02 -0.97090E-05
 0.57200001E+02 -0.79652E-05
 0.57250000E+02 -0.55472E-05
 0.57299999E+02  0.36208E-05
 0.57350002E+02  0.15324E-04
 0.57400002E+02  0.18567E-04
 0.57450001E+02  0.13098E-04
 0.57500000E+02  0.52193E-05
 0.57549999E+02  0.56052E-06
 0.57600002E+02  0.19594E-05
 0.57650002E+02  0.65927E-05
 0.57700001E+02  0.91438E-05
 0.57750000E+02  0.47922E-05
 0.57799999E+02 -0.18832E-06
 0.57850002E+02 -0.18876E-05
 0.57900002E+02 -0.41270E-05
 0.57950001E+02 -0.74619E-05
 0.58000000E+02 -0.15152E-04
 0.58049999E+02 -0.17991E-04
 0.58100002E+02 -0.82327E-05
 0.58150002E+02  0.62393E-05
 0.58200001E+02  0.15450E-04
 0.58250000E+02  0.14138E-04
 0.58299999E+02  0.85123E-05
 0.58350002E+02  0.55128E-05
 0.58400002E+02  0.41524E-05
 0.58450001E+02 -0.74560E-06
 0.58500000E+02 -0.67616E-05
 0.58549999E+02 -0.61577E-05
 0.58600002E+02 -0.14983E-05
 0.58650002E+02  0.37654E-05
 0.58700001E+02  0.84370E-05
 0.58750000E+02  0.72137E-05
 0.58799999E+02  0.40829E-06
 0.58850002E+02 -0.10606E-04
 0.58900002E+02 -0.18785E-04
 0.58950001E+02 -0.14406E-04
 0.59000000E+02 -0.68612E-05
 0.59049999E+02 -0.52675E-05
 0.59100002E+02 -0.82865E-05
 0.59150002E+02 -0.11296E-04
 0.59200001E+02 -0.59478E-05
 0.59250000E+02  0.50471E-05
 0.59299999E+02  0.11597E-04
 0.59350002E+02  0.11371E-04
 0.59400002E+02  0.48686E-05
 0.59450001E+02  0.69341E-06
 0.59500000E+02  0.64336E-05
 0.59549999E+02  0.12290E-04
 0.59600002E+02  0.12275E-04
 0.59650002E+02  0.59286E-05
 0.59700001E+02 -0.34930E-07
 0.59750000E+02 -0.37109E-06
 0.59799999E+02  0.14927E-06
 0.59850002E+02  0.22409E-05
 0.59900002E+02  0.42589E-06
 0.59950001E+02 -0.41512E-05
 0.60000000E+02 -0.60636E-05
 0.60049999E+02 -0.58157E-05
 0.60100002E+02 -0.12108E-05
 0.60150002E+02  0.35801E-05
 0.60200001E+02  0.45569E-05
 0.60250000E+02  0.25175E-05
 0.60299999E+02  0.78490E-06
 0.60350002E+02 -0.79709E-06
 0.60400002E+02 -0.33843E-05
 0.60450001E+02 -0.43275E-05
 0.60500000E+02 -0.50754E-05
 0.60549999E+02 -0.45497E-05
 0.60600002E+02 -0.14398E-05
 0.60650002E+02 -0.11116E-05
 0.60700001E+02 -0.28023E-05
 0.60750000E+02 -0.38649E-05
 0.60799999E+02 -0.39951E-05
 0.60850002E+02 -0.29275E-05
 0.60900002E+02 -0.49447E-05
 0.60950001E+02 -0.72398E-05
 0.61000000E+02 -0.27680E-05
 0.61049999E+02  0.61131E-05
 0.61100002E+02  0.11492E-04
 0.61150002E+02  0.10583E-04
 0.61200001E+02  0.59964E-05
 0.61250000E+02 -0.15364E-06
 0.61299999E+02 -0.31656E-05
 0.61350002E+02 -0.83382E-06
 0.61400002E+02  0.43178E-05
 0.61450001E+02  0.10755E-04
 0.61500000E+02  0.14608E-04
 0.61549999E+02  0.11119E-04
 0.61600002E+02  0.24162E-05
 0.61650002E+02 -0.61195E-05
 0.61700001E+02 -0.12580E-04
 0.61750000E+02 -0.14861E-04
 0.61799999E+02 -0.13768E-04
 0.61850002E+02 -0.94298E-05
 0.61900002E+02 -0.20303E-06
 0.61950001E+02  0.73601E-05
 0.62000000E+02  0.10528E-04
 0.62049999E+02  0.88492E-05
 0.62100002E+02  0.12045E-05
 0.62150002E+02 -0.46676E-05
 0.62200001E+02 -0.63278E-05
 0.62250000E+02 -0.51555E-05
 0.62299999E+02 -0.25554E-05
 0.62350002E+02 -0.32172E-05
 0.62400002E+02 -0.50124E-05
 0.62450001E+02 -0.40392E-05
 0.62500000E+02 -0.17816E-06
 0.62549999E+02  0.30475E-05
 0.62600002E+02  0.42594E-05
 0.62650002E+02  0.49219E-05
 0.62700001E+02  0.63061E-05
 0.62750000E+02  0.10174E-04
 0.62799999E+02  0.11078E-04
 0.62850002E+02  0.73025E-05
 0.62900002E+02  0.42434E-05
 0.62950001E+02  0.41366E-05
 0.63000000E+02  0.52734E-05
 0.63049999E+02  0.27317E-05
 0.63100002E+02 -0.41259E-05
 0.63150002E+02 -0.11059E-04
 0.63200001E+02 -0.14428E-04
 0.63250000E+02 -0.14900E-04
 0.63299999E+02 -0.14008E-04
 0.63350002E+02 -0.10184E-04
 0.63400002E+02 -0.51860E-05
 0.63450001E+02 -0.22067E-05
 0.63500000E+02 -0.37965E-06
 0.63549999E+02  0.10833E-05
 0.63600002E+02  0.11099E-05
 0.63650002E+02  0.37960E-06
 0.63700001E+02  0.18414E-05
 0.63750000E+02  0.74368E-05
 0.63799999E+02  0.14392E-04
 0.63850002E+02  0.18070E-04
 0.63900002E+02  0.15980E-04
 0.63950001E+02  0.79453E-05
 0.64000000E+02 -0.14342E-05
 0.64050003E+02 -0.83117E-05
 0.64099998E+02 -0.10242E-04
 0.64150002E+02 -0.48207E-05
 0.64200005E+02  0.12493E-05
 0.64250000E+02  0.23342E-05
 0.64300003E+02  0.49798E-06
 0.64349998E+02 -0.27335E-05
 0.64400002E+02 -0.62039E-05
 0.64450005E+02 -0.95991E-05
 0.64500000E+02 -0.10592E-04
 0.64550003E+02 -0.70101E-05
 0.64599998E+02 -0.19068E-05
 0.64650002E+02  0.20019E-05
 0.64700005E+02  0.43850E-05
 0.64750000E+02  0.66157E-05
 0.64800003E+02  0.10059E-04
 0.64849998E+02  0.10598E-04
 0.64900002E+02  0.54072E-05
 0.64950005E+02  0.27671E-06
 0.65000000E+02 -0.44137E-06
 0.65050003E+02  0.19915E-06
 0.65099998E+02 -0.21740E-05
 0.65150002E+02 -0.64827E-05
 0.65200005E+02 -0.78185E-05
 0.65250000E+02 -0.78604E-05
 0.65300003E+02 -0.87656E-05
 0.65349998E+02 -0.73500E-05
 0.65400002E+02 -0.48925E-05
 0.65450005E+02 -0.24783E-05
 0.65500000E+02  0.36347E-08
 0.65550003E+02  0.23556E-05
 0.65599998E+02  0.55180E-05
 0.65650002E+02  0.65462E-05
 0.65700005E+02  0.52230E-05
 0.65750000E+02  0.55163E-05
 0.65800003E+02  0.85321E-05
 0.65849998E+02  0.11959E-04
 0.65900002E+02  0.11493E-04
 0.65950005E+02  0.57498E-05
 0.66000000E+02 -0.41258E-06
 0.66050003E+02 -0.15600E-05
 0.66099998E+02 -0.18521E-06
 0.66150002E+02 -0.18697E-05
 0.66200005E+02 -0.65670E-05
 0.66250000E+02 -0.10583E-04
 0.66300003E+02 -0.88971E-05
 0.66349998E+02 -0.28134E-05
 0.66400002E+02  0.17542E-05
 0.66450005E+02  0.26776E-05
 0.66500000E+02  0.18705E-05
 0.66550003E+02  0.35633E-05
 0.66599998E+02  0.58666E-05
 0.66650002E+02  0.36878E-05
 0.66700005E+02 -0.23755E-05
 0.66750000E+02 -0.69710E-05
 0.66800003E+02 -0.68452E-05
 0.66849998E+02 -0.49722E-05
 0.66900002E+02 -0.41040E-05
 0.66950005E+02 -0.39851E-05
 0.67000000E+02 -0.23668E-05
 0.67050003E+02  0.18172E-05
 0.67099998E+02  0.56392E-05
 0.67150002E+02  0.68216E-05
 0.67200005E+02  0.45200E-05
 0.67250000E+02 -0.45012E-06
 0.67300003E+02 -0.51774E-05
 0.67349998E+02 -0.81638E-05
 0.67400002E+02 -0.71986E-05
 0.67450005E+02 -0.29675E-05
 0.67500000E+02  0.10423E-06
 0.67550003E+02  0.23294E-05
 0.67599998E+02  0.36097E-05
 0.67650002E+02  0.48817E-05
 0.67700005E+02  0.72593E-05
 0.67750000E+02  0.69727E-05
 0.67800003E+02  0.48778E-05
 0.67849998E+02  0.33511E-05
 0.67900002E+02  0.27435E-05
 0.67950005E+02  0.38056E-05
 0.68000000E+02  0.46307E-05
 0.68050003E+02  0.35418E-05
 0.68099998E+02  0.37703E-06
 0.68150002E+02 -0.51932E-05
 0.68200005E+02 -0.10978E-04
 0.68250000E+02 -0.12018E-04
 0.68300003E+02 -0.72362E-05
 0.68349998E+02 -0.24854E-05
 0.68400002E+02 -0.25018E-05
 0.68450005E+02 -0.52198E-05
 0.68500000E+02 -0.48760E-05
 0.68550003E+02 -0.40138E-06
 0.68599998E+02  0.46766E-05
 0.68650002E+02  0.81935E-05
 0.68700005E+02  0.10033E-04
 0.68750000E+02  0.11167E-04
 0.68800003E+02  0.92004E-05
 0.68849998E+02  0.19771E-05
 0.68900002E+02 -0.57504E-05
 0.68950005E+02 -0.87837E-05
 0.69000000E+02 -0.90432E-05
 0.69050003E+02 -0.90602E-05
 0.69099998E+02 -0.73158E-05
 0.69150002E+02 -0.31466E-05
 0.69200005E+02  0.17995E-05
 0.69250000E+02  0.50121E-05
 0.69300003E+02  0.56005E-05
 0.69349998E+02  0.41138E-05
 0.69400002E+02  0.21471E-05
 0.69450005E+02  0.61951E-06
 0.69500000E+02 -0.15767E-05
 0.69550003E+02 -0.40625E-05
 0.69599998E+02 -0.57126E-05
 0.69650002E+02 -0.49870E-05
 0.69700005E+02 -0.29888E-06
 0.69750000E+02  0.59832E-05
 0.69800003E+02  0.10954E-04
 0.69849998E+02  0.12765E-04
 0.69900002E+02  0.87277E-05
 0.69950005E+02  0.81525E-06
 0.70000000E+02 -0.43722E-05
 0.70050003E+02 -0.28251E-05
 0.70099998E+02  0.16670E-05
 0.70150002E+02  0.30164E-05
 0.70200005E+02  0.15139E-05
 0.70250000E+02 -0.18307E-05
 0.70300003E+02 -0.60067E-05
 0.70349998E+02 -0.85816E-05
 0.70400002E+02 -0.94881E-05
 0.70450005E+02 -0.69200E-05
 0.70500000E+02 -0.21982E-05
 0.70550003E+02  0.94223E-06
 0.70599998E+02  0.29783E-05
 0.70650002E+02  0.35227E-05
 0.70700005E+02  0.32180E-05
 0.70750000E+02  0.28191E-05
 0.70800003E+02  0.88581E-06
 0.70849998E+02 -0.13828E-05
 0.70900002E+02 -0.84961E-06
 0.70950005E+02  0.27435E-05
 0.71000000E+02  0.54144E-05
 0.71050003E+02  0.43988E-05
 0.71099998E+02  0.16638E-05
 0.71150002E+02 -0.55621E-06
 0.71200005E+02 -0.21667E-05
 0.71250000E+02 -0.29178E-05
 0.71300003E+02 -0.25690E-05
 0.71349998E+02 -0.15684E-05
 0.71400002E+02 -0.10164E-05
 0.71450005E+02 -0.16987E-05
 0.71500000E+02 -0.28709E-05
 0.71550003E+02 -0.32768E-05
 0.71599998E+02 -0.17046E-05
 0.71650002E+02  0.76609E-06
 0.71700005E+02  0.15841E-05
 0.71750000E+02  0.17083E-05
 0.71800003E+02  0.13774E-05
 0.71849998E+02  0.62908E-06
 0.71900002E+02  0.13921E-05
 0.71950005E+02  0.31528E-05
 0.72000000E+02  0.47626E-05
 0.72050003E+02  0.39326E-05
 0.72099998E+02  0.11146E-05
 0.72150002E+02 -0.87058E-06
 0.72200005E+02 -0.25365E-05
 0.72250000E+02 -0.46935E-05
 0.72300003E+02 -0.61199E-05
 0.72349998E+02 -0.60664E-05
 0.72400002E+02 -0.52741E-05
 0.72450005E+02 -0.29108E-05
 0.72500000E+02  0.45877E-06
 0.72550003E+02  0.25881E-05
 0.72599998E+02  0.28646E-05
 0.72650002E+02  0.21175E-05
 0.72700005E+02  0.16022E-05
 0.72750000E+02  0.73970E-06
 0.72800003E+02 -0.11794E-05
 0.72849998E+02 -0.21118E-05
 0.72900002E+02 -0.17797E-07
 0.72950005E+02  0.25141E-05
 0.73000000E+02  0.30080E-05
 0.73050003E+02  0.26610E-05
 0.73099998E+02  0.24656E-05
 0.73150002E+02  0.23237E-05
 0.73200005E+02  0.18563E-05
 0.73250000E+02  0.14639E-05
 0.73300003E+02  0.10852E-05
 0.73349998E+02  0.88942E-06
 0.73400002E+02  0.11448E-05
 0.73450005E+02  0.11258E-05
 0.73500000E+02  0.97118E-06
 0.73550003E+02  0.97038E-06
 0.73599998E+02 -0.11873E-06
 0.73650002E+02 -0.28068E-05
 0.73700005E+02 -0.40284E-05
 0.73750000E+02 -0.23076E-05
 0.73800003E+02  0.29496E-06
 0.73849998E+02  0.12151E-05
 0.73900002E+02  0.80846E-07
 0.73950005E+02 -0.10953E-05
 0.74000000E+02 -0.82301E-06
 0.74050003E+02  0.66205E-06
 0.74099998E+02  0.17475E-05
 0.74150002E+02  0.19167E-05
 0.74200005E+02  0.13618E-05
 0.74250000E+02  0.71404E-06
 0.74300003E+02  0.71303E-06
 0.74349998E+02  0.63996E-06
 0.74400002E+02 -0.47780E-06
 0.74450005E+02 -0.27529E-05
 0.74500000E+02 -0.52740E-05
 0.74550003E+02 -0.61882E-05
 0.74599998E+02 -0.48164E-05
 0.74650002E+02 -0.17978E-05
 0.74700005E+02  0.12209E-05
 0.74750000E+02  0.22369E-05
 0.74800003E+02  0.18936E-05
 0.74849998E+02  0.62207E-06
 0.74900002E+02 -0.23520E-05
 0.74950005E+02 -0.46737E-05
 0.75000000E+02 -0.41217E-05
 0.75050003E+02 -0.17014E-05
 0.75099998E+02  0.93803E-06
 0.75150002E+02  0.18801E-05
 0.75200005E+02  0.16360E-05
 0.75250000E+02  0.14393E-05
 0.75300003E+02  0.11023E-05
 0.75349998E+02  0.98117E-06
 0.75400002E+02  0.84702E-06
 0.75450005E+02  0.94030E-08
 0.75500000E+02 -0.12051E-05
 0.75550003E+02 -0.77409E-06
 0.75599998E+02  0.91717E-06
 0.75650002E+02  0.19335E-05
 0.75700005E+02  0.27674E-05
 0.75750000E+02  0.43974E-05
 0.75800003E+02  0.64996E-05
 0.75849998E+02  0.77326E-05
 0.75900002E+02  0.79583E-05
 0.75950005E+02  0.66737E-05
 0.76000000E+02  0.32154E-05
 0.76050003E+02 -0.89807E-06
 0.76099998E+02 -0.45439E-05
 0.76150002E+02 -0.69810E-05
 0.76200005E+02 -0.75308E-05
 0.76250000E+02 -0.66060E-05
 0.76300003E+02 -0.48428E-05
 0.76349998E+02 -0.25610E-05
 0.76400002E+02 -0.90473E-06
 0.76450005E+02 -0.31166E-06
 0.76500000E+02  0.11708E-05
 0.76550003E+02  0.33995E-05
 0.76599998E+02  0.44653E-05
 0.76650002E+02  0.36091E-05
 0.76700005E+02  0.44489E-06
 0.76750000E+02 -0.38796E-05
 0.76800003E+02 -0.61529E-05
 0.76849998E+02 -0.59329E-05
 0.76900002E+02 -0.47174E-05
 0.76950005E+02 -0.21983E-05
 0.77000000E+02  0.24134E-06
 0.77050003E+02  0.10712E-05
 0.77099998E+02  0.78138E-06
 0.77150002E+02  0.65133E-06
 0.77200005E+02  0.80192E-06
 0.77250000E+02  0.11153E-05
 0.77300003E+02  0.22194E-05
 0.77349998E+02  0.30681E-05
 0.77400002E+02  0.30102E-05
 0.77450005E+02  0.25458E-05
 0.77500000E+02  0.21460E-05
 0.77550003E+02  0.97538E-06
 0.77599998E+02 -0.15887E-05
 0.77650002E+02 -0.35007E-05
 0.77700005E+02 -0.34677E-05
 0.77750000E+02 -0.19150E-05
 0.77800003E+02  0.42767E-06
 0.77849998E+02  0.22131E-05
 0.77900002E+02  0.28258E-05
 0.77950005E+02  0.24364E-05
 0.78000000E+02  0.12931E-05
 0.78050003E+02  0.33955E-06
 0.78099998E+02 -0.41044E-06
 0.78150002E+02 -0.12156E-05
 0.78200005E+02 -0.83901E-06
 0.78250000E+02  0.24970E-06
 0.78300003E+02  0.75198E-06
 0.78349998E+02  0.67428E-06
 0.78400002E+02  0.37201E-06
 0.78450005E+02  0.60257E-06
 0.78500000E+02  0.73581E-06
 0.78550003E+02  0.28456E-06
 0.78599998E+02 -0.35876E-06
 0.78650002E+02 -0.19295E-05
 0.78700005E+02 -0.42858E-05
 0.78750000E+02 -0.64097E-05
 0.78800003E+02 -0.75557E-05
 0.78849998E+02 -0.58576E-05
 0.78900002E+02 -0.85536E-06
 0.78950005E+02  0.39981E-05
 0.79000000E+02  0.63757E-05
 0.79050003E+02  0.68516E-05
 0.79099998E+02  0.59725E-05
 0.79150002E+02  0.51066E-05
 0.79200005E+02  0.47850E-05
 0.79250000E+02  0.31695E-05
 0.79300003E+02  0.86933E-06
 0.79349998E+02 -0.23170E-06
 0.79400002E+02 -0.81509E-06
 0.79450005E+02 -0.61100E-06
 0.79500000E+02 -0.20084E-06
 0.79550003E+02 -0.12804E-05
 0.79599998E+02 -0.28919E-05
 0.79650002E+02 -0.44228E-05
 0.79700005E+02 -0.51863E-05
 0.79750000E+02 -0.48002E-05
 0.79800003E+02 -0.43163E-05
 0.79849998E+02 -0.41873E-05
 0.79900002E+02 -0.40348E-05
 0.79950005E+02 -0.26240E-05
 0.80000000E+02 -0.15072E-06
 0.80050003E+02  0.24068E-05
 0.80099998E+02  0.50386E-05
 0.80150002E+02  0.68996E-05
 0.80200005E+02  0.75504E-05
 0.80250000E+02  0.64469E-05
 0.80300003E+02  0.34213E-05
 0.80349998E+02  0.86331E-06
 0.80400002E+02 -0.78676E-06
 0.80450005E+02 -0.17336E-05
 0.80500000E+02 -0.11889E-05
 0.80550003E+02 -0.28550E-06
 0.80599998E+02  0.77064E-06
 0.80650002E+02  0.13789E-05
 0.80700005E+02 -0.26827E-06
 0.80750000E+02 -0.34143E-05
 0.80800003E+02 -0.59142E-05
 0.80849998E+02 -0.64010E-05
 0.80900002E+02 -0.55024E-05
 0.80950005E+02 -0.42588E-05
 0.81000000E+02 -0.25043E-05
 0.81050003E+02 -0.59105E-07
 0.81099998E+02  0.30107E-05
 0.81150002E+02  0.50235E-05
 0.81200005E+02  0.53665E-05
 0.81250000E+02  0.51432E-05
 0.81300003E+02  0.39575E-05
 0.81349998E+02  0.20221E-05
 0.81400002E+02  0.65027E-06
 0.81450005E+02  0.64288E-06
 0.81500000E+02  0.13735E-05
 0.81550003E+02  0.14118E-05
 0.81599998E+02  0.71240E-06
 0.81650002E+02  0.46962E-06
 0.81700005E+02  0.73327E-06
 0.81750000E+02  0.65335E-06
 0.81800003E+02 -0.29305E-06
 0.81849998E+02 -0.18627E-05
 0.81900002E+02 -0.31686E-05
 0.81950005E+02 -0.44019E-05
 0.82000000E+02 -0.54571E-05
 0.82050003E+02 -0.54557E-05
 0.82099998E+02 -0.44982E-05
 0.82150002E+02 -0.34510E-05
 0.82200005E+02 -0.29860E-05
 0.82250000E+02 -0.27631E-05
 0.82300003E+02 -0.20089E-05
 0.82349998E+02 -0.20174E-06
 0.82400002E+02  0.23534E-05
 0.82450005E+02  0.39580E-05
 0.82500000E+02  0.39376E-05
 0.82550003E+02  0.36756E-05
 0.82599998E+02  0.41159E-05
 0.82650002E+02  0.45912E-05
 0.82700005E+02  0.37390E-05
 0.82750000E+02  0.19656E-05
 0.82800003E+02  0.77140E-06
 0.82849998E+02 -0.18506E-06
 0.82900002E+02 -0.12302E-05
 0.82950005E+02 -0.17959E-05
 0.83000000E+02 -0.20394E-05
 0.83050003E+02 -0.18376E-05
 0.83099998E+02 -0.77639E-06
 0.83150002E+02  0.95299E-06
 0.83200005E+02  0.29717E-05
 0.83250000E+02  0.46926E-05
 0.83300003E+02  0.46927E-05
 0.83349998E+02  0.25718E-05
 0.83400002E+02  0.38286E-06
 0.83450005E+02 -0.76357E-06
 0.83500000E+02 -0.14529E-05
 0.83550003E+02 -0.12573E-05
 0.83599998E+02 -0.48062E-06
 0.83650002E+02 -0.83196E-06
 0.83700005E+02 -0.20901E-05
 0.83750000E+02 -0.30855E-05
 0.83800003E+02 -0.33307E-05
 0.83849998E+02 -0.25224E-05
 0.83900002E+02 -0.11840E-05
 0.83950005E+02  0.79138E-07
 0.84000000E+02  0.10972E-05
 0.84050003E+02  0.19372E-05
 0.84099998E+02  0.19100E-05
 0.84150002E+02  0.79256E-06
 0.84200005E+02 -0.24009E-06
 0.84250000E+02 -0.12920E-05
 0.84300003E+02 -0.23371E-05
 0.84349998E+02 -0.27545E-05
 0.84400002E+02 -0.25220E-05
 0.84450005E+02 -0.16983E-05
 0.84500000E+02 -0.36469E-06
 0.84550003E+02  0.10222E-05
 0.84599998E+02  0.18943E-05
 0.84650002E+02  0.26339E-05
 0.84700005E+02  0.30565E-05
 0.84750000E+02  0.29958E-05
 0.84800003E+02  0.28059E-05
 0.84849998E+02  0.12908E-05
 0.84900002E+02 -0.15487E-05
 0.84950005E+02 -0.34054E-05
 0.85000000E+02 -0.33235E-05
 0.85050003E+02 -0.21752E-05
 0.85099998E+02 -0.11017E-05
 0.85150002E+02 -0.44882E-06
 0.85200005E+02  0.14083E-06
 0.85250000E+02  0.21787E-06
 0.85300003E+02 -0.94676E-06
 0.85349998E+02 -0.23105E-05
 0.85400002E+02 -0.25841E-05
 0.85450005E+02 -0.13341E-05
 0.85500000E+02  0.14065E-05
 0.85550003E+02  0.37889E-05
 0.85599998E+02  0.43416E-05
 0.85650002E+02  0.36081E-05
 0.85700005E+02  0.21966E-05
 0.85750000E+02  0.66154E-06
 0.85800003E+02 -0.98657E-07
 0.85849998E+02 -0.46995E-06
 0.85900002E+02 -0.80848E-06
 0.85950005E+02 -0.13080E-06
 0.86000000E+02  0.96410E-06
 0.86050003E+02  0.15064E-05
 0.86099998E+02  0.15943E-05
 0.86150002E+02  0.97586E-06
 0.86200005E+02 -0.40266E-06
 0.86250000E+02 -0.21928E-05
 0.86300003E+02 -0.36266E-05
 0.86349998E+02 -0.40984E-05
 0.86400002E+02 -0.38083E-05
 0.86450005E+02 -0.32346E-05
 0.86500000E+02 -0.23160E-05
 0.86550003E+02 -0.86634E-06
 0.86599998E+02  0.34382E-06
 0.86650002E+02  0.84306E-06
 0.86700005E+02  0.60815E-06
 0.86750000E+02  0.18125E-06
 0.86800003E+02  0.76840E-06
 0.86849998E+02  0.23492E-05
 0.86900002E+02  0.40622E-05
 0.86950005E+02  0.47304E-05
 0.87000000E+02  0.41911E-05
 0.87050003E+02  0.33664E-05
 0.87099998E+02  0.22482E-05
 0.87150002E+02  0.88884E-06
 0.87200005E+02 -0.25123E-06
 0.87250000E+02 -0.71739E-06
 0.87300003E+02 -0.64770E-06
 0.87349998E+02 -0.47457E-06
 0.87400002E+02 -0.13576E-06
 0.87450005E+02 -0.68080E-07
 0.87500000E+02 -0.78079E-06
 0.87550003E+02 -0.20831E-05
 0.87599998E+02 -0.27663E-05
 0.87650002E+02 -0.21389E-05
 0.87700005E+02 -0.10787E-05
 0.87750000E+02 -0.28138E-06
 0.87800003E+02 -0.43466E-06
 0.87849998E+02 -0.11415E-05
 0.87900002E+02 -0.13923E-05
 0.87950005E+02 -0.14960E-05
 0.88000000E+02 -0.12583E-05
 0.88050003E+02 -0.68930E-06
 0.88099998E+02 -0.21007E-06
 0.88150002E+02  0.48925E-06
 0.88200005E+02  0.11624E-05
 0.88250000E+02  0.14761E-05
 0.88300003E+02  0.15864E-05
 0.88349998E+02  0.13389E-05
 0.88400002E+02  0.73432E-06
 0.88450005E+02 -0.66528E-07
 0.88500000E+02 -0.73067E-06
 0.88550003E+02 -0.99797E-06
 0.88599998E+02 -0.11440E-05
 0.88650002E+02 -0.10339E-05
 0.88700005E+02 -0.51425E-06
 0.88750000E+02  0.17137E-06
 0.88800003E+02  0.56657E-06
 0.88849998E+02  0.82786E-06
 0.88900002E+02  0.10233E-05
 0.88950005E+02  0.68529E-06
 0.89000000E+02  0.24160E-07
 0.89050003E+02 -0.96093E-06
 0.89099998E+02 -0.16931E-05
 0.89150002E+02 -0.17312E-05
 0.89200005E+02 -0.14325E-05
 0.89250000E+02 -0.81091E-06
 0.89300003E+02 -0.32869E-06
 0.89349998E+02 -0.77815E-07
 0.89400002E+02  0.43438E-07
 0.89450005E+02 -0.46914E-06
 0.89500000E+02 -0.10018E-05
 0.89550003E+02 -0.56401E-06
 0.89599998E+02  0.33029E-06
 0.89650002E+02  0.11839E-05
 0.89700005E+02  0.22627E-05
 0.89750000E+02  0.34361E-05
 0.89800003E+02  0.41107E-05
 0.89849998E+02  0.38033E-05
 0.89900002E+02  0.26837E-05
 0.89950005E+02  0.17887E-05
 0.90000000E+02  0.15058E-05
 0.90050003E+02  0.13620E-05
 0.90099998E+02  0.87333E-06
 0.90150002E+02 -0.24968E-06
 0.90200005E+02 -0.14552E-05
 0.90250000E+02 -0.22083E-05
 0.90300003E+02 -0.23959E-05
 0.90349998E+02 -0.21958E-05
 0.90400002E+02 -0.16828E-05
 0.90450005E+02 -0.11039E-05
 0.90500000E+02 -0.12726E-05
 0.90550003E+02 -0.20506E-05
 0.90599998E+02 -0.22360E-05
 0.90650002E+02 -0.12405E-05
 0.90700005E+02  0.24094E-06
 0.90750000E+02  0.12528E-05
 0.90800003E+02  0.13981E-05
 0.90849998E+02  0.99618E-06
 0.90900002E+02  0.45337E-06
 0.90950005E+02 -0.20702E-06
 0.91000000E+02 -0.99181E-06
 0.91050003E+02 -0.17004E-05
 0.91099998E+02 -0.19684E-05
 0.91150002E+02 -0.17799E-05
 0.91200005E+02 -0.12561E-05
 0.91250000E+02  0.92446E-07
 0.91300003E+02  0.20255E-05
 0.91349998E+02  0.35953E-05
 0.91400002E+02  0.42835E-05
 0.91450005E+02  0.37561E-05
 0.91500000E+02  0.24102E-05
 0.91550003E+02  0.50378E-06
 0.91599998E+02 -0.15634E-05
 0.91650002E+02 -0.29833E-05
 0.91700005E+02 -0.35494E-05
 0.91750000E+02 -0.34263E-05
 0.91800003E+02 -0.30689E-05
 0.91849998E+02 -0.26348E-05
 0.91900002E+02 -0.20487E-05
 0.91950005E+02 -0.13822E-05
 0.92000000E+02 -0.70840E-06
 0.92050003E+02 -0.18414E-06
 0.92099998E+02  0.27033E-06
 0.92150002E+02  0.11276E-05
 0.92200005E+02  0.22832E-05
 0.92250000E+02  0.30886E-05
 0.92300003E+02  0.29496E-05
 0.92349998E+02  0.18630E-05
 0.92400002E+02  0.73296E-06
 0.92450005E+02  0.51241E-06
 0.92500000E+02  0.17425E-05
 0.92550003E+02  0.35324E-05
 0.92599998E+02  0.41263E-05
 0.92650002E+02  0.28186E-05
 0.92700005E+02  0.46076E-06
 0.92750000E+02 -0.16693E-05
 0.92800003E+02 -0.31853E-05
 0.92849998E+02 -0.41230E-05
 0.92900002E+02 -0.45998E-05
 0.92950005E+02 -0.46417E-05
 0.93000000E+02 -0.41817E-05
 0.93050003E+02 -0.28073E-05
 0.93099998E+02 -0.58375E-06
 0.93150002E+02  0.17657E-05
 0.93200005E+02  0.40418E-05
 0.93250000E+02  0.53640E-05
 0.93300003E+02  0.48126E-05
 0.93349998E+02  0.29869E-05
 0.93400002E+02  0.12674E-05
 0.93450005E+02  0.50192E-06
 0.93500000E+02  0.40072E-06
 0.93550003E+02  0.11794E-06
 0.93599998E+02 -0.93302E-06
 0.93650002E+02 -0.18545E-05
 0.93700005E+02 -0.18358E-05
 0.93750000E+02 -0.14249E-05
 0.93800003E+02 -0.73446E-06
 0.93849998E+02 -0.73306E-07
 0.93900002E+02  0.13273E-06
 0.93950005E+02  0.34017E-06
 0.94000000E+02  0.66931E-06
 0.94050003E+02  0.56733E-06
 0.94099998E+02 -0.24908E-06
 0.94150002E+02 -0.11711E-05
 0.94200005E+02 -0.12068E-05
 0.94250000E+02 -0.50332E-06
 0.94300003E+02 -0.34286E-07
 0.94349998E+02  0.60310E-07
 0.94400002E+02  0.19744E-06
 0.94450005E+02  0.35387E-06
 0.94500000E+02 -0.33724E-08
 0.94550003E+02 -0.91669E-06
 0.94599998E+02 -0.16208E-05
 0.94650002E+02 -0.15235E-05
 0.94700005E+02 -0.10044E-05
 0.94750000E+02 -0.69632E-06
 0.94800003E+02 -0.52527E-06
 0.94849998E+02 -0.50057E-06
 0.94900002E+02 -0.71104E-06
 0.94950005E+02 -0.91191E-06
 0.95000000E+02 -0.67720E-06
 0.95050003E+02 -0.42202E-07
 0.95099998E+02  0.58465E-06
 0.95150002E+02  0.15070E-05
 0.95200005E+02  0.24269E-05
 0.95250000E+02  0.27252E-05
 0.95300003E+02  0.26217E-05
 0.95349998E+02  0.19409E-05
 0.95400002E+02  0.74849E-06
 0.95450005E+02 -0.21246E-06
 0.95500000E+02 -0.42380E-06
 0.95550003E+02 -0.15487E-06
 0.95599998E+02 -0.15027E-06
 0.95650002E+02 -0.50871E-06
 0.95700005E+02 -0.91439E-06
 0.95750000E+02 -0.95644E-06
 0.95800003E+02 -0.55339E-06
 0.95849998E+02  0.95604E-08
 0.95900002E+02  0.60724E-06
 0.95950005E+02  0.88890E-06
 0.96000000E+02  0.82456E-06
 0.96050003E+02  0.57868E-06
 0.96099998E+02 -0.45324E-07
 0.96150002E+02 -0.83212E-06
 0.96200005E+02 -0.11981E-05
 0.96250000E+02 -0.78936E-06
 0.96300003E+02 -0.92616E-08
 0.96349998E+02  0.60107E-06
 0.96400002E+02  0.11739E-05
 0.96450005E+02  0.14323E-05
 0.96500000E+02  0.84165E-06
 0.96550003E+02 -0.36453E-06
 0.96599998E+02 -0.18350E-05
 0.96650002E+02 -0.30356E-05
 0.96700005E+02 -0.32540E-05
 0.96750000E+02 -0.25581E-05
 0.96800003E+02 -0.15629E-05
 0.96849998E+02 -0.63160E-06
 0.96900002E+02  0.13317E-06
 0.96950005E+02  0.79421E-06
 0.97000000E+02  0.13633E-05
 0.97050003E+02  0.14613E-05
 0.97099998E+02  0.14448E-05
 0.97150002E+02  0.14595E-05
 0.97200005E+02  0.82588E-06
 0.97250000E+02 -0.23439E-06
 0.97300003E+02 -0.92539E-06
 0.97349998E+02 -0.85531E-06
 0.97400002E+02 -0.24728E-06
 0.97450005E+02  0.70933E-06
 0.97500000E+02  0.18576E-05
 0.97550003E+02  0.28765E-05
 0.97599998E+02  0.33090E-05
 0.97650002E+02  0.29508E-05
 0.97700005E+02  0.21599E-05
 0.97750000E+02  0.14172E-05
 0.97800003E+02  0.85779E-06
 0.97849998E+02 -0.62881E-07
 0.97900002E+02 -0.15623E-05
 0.97950005E+02 -0.29205E-05
 0.98000000E+02 -0.35164E-05
 0.98050003E+02 -0.35588E-05
 0.98099998E+02 -0.32270E-05
 0.98150002E+02 -0.25767E-05
 0.98200005E+02 -0.16169E-05
 0.98250000E+02 -0.22801E-06
 0.98300003E+02  0.88145E-06
 0.98349998E+02  0.11697E-05
 0.98400002E+02  0.93794E-06
 0.98450005E+02  0.51383E-06
 0.98500000E+02  0.23875E-06
 0.98550003E+02  0.19715E-06
 0.98599998E+02  0.17280E-06
 0.98650002E+02  0.10043E-06
 0.98700005E+02  0.17875E-06
 0.98750000E+02  0.53239E-06
 0.98800003E+02  0.89000E-06
 0.98849998E+02  0.10684E-05
 0.98900002E+02  0.11051E-05
 0.98950005E+02  0.87490E-06
 0.99000000E+02  0.45478E-06
 0.99050003E+02 -0.31024E-08
 0.99099998E+02 -0.60637E-06
 0.99150002E+02 -0.10995E-05
 0.99200005E+02 -0.11830E-05
 0.99250000E+02 -0.79600E-06
 0.99300003E+02 -0.24740E-06
 0.99349998E+02 -0.15245E-06
 0.99400002E+02 -0.37681E-06
 0.99450005E+02 -0.85340E-06
 0.99500000E+02 -0.13272E-05
 0.99550003E+02 -0.11214E-05
 0.99599998E+02 -0.40523E-06
 0.99650002E+02  0.37905E-06
 0.99700005E+02  0.80010E-06
 0.99750000E+02  0.95928E-06
 0.99800003E+02  0.11833E-05
 0.99849998E+02  0.12139E-05
 0.99900002E+02  0.10764E-05
 0.99950005E+02  0.92436E-06
 0.10000000E+03  0.70459E-06
