 0.00000000E+00  0.20198E-07
 0.50000001E-01 -0.92015E-08
 0.10000000E+00 -0.10563E-08
 0.15000001E+00  0.42524E-08
 0.20000000E+00  0.21640E-07
 0.25000000E+00  0.12750E-07
 0.30000001E+00  0.46211E-07
 0.34999999E+00  0.78284E-07
 0.40000001E+00  0.86087E-08
 0.45000002E+00  0.23711E-07
 0.50000000E+00  0.66905E-07
 0.55000001E+00  0.24774E-07
 0.60000002E+00  0.92053E-07
 0.65000004E+00  0.15327E-06
 0.69999999E+00  0.34196E-07
 0.75000000E+00 -0.24628E-07
 0.80000001E+00 -0.44859E-07
 0.85000002E+00 -0.12864E-06
 0.90000004E+00 -0.10996E-06
 0.94999999E+00 -0.59707E-07
 0.10000000E+01 -0.48941E-07
 0.10500001E+01 -0.18210E-07
 0.11000000E+01 -0.21707E-07
 0.11500000E+01 -0.21012E-07
 0.12000000E+01  0.26084E-07
 0.12500000E+01  0.19974E-07
 0.13000001E+01 -0.12208E-07
 0.13500000E+01  0.24634E-07
 0.14000000E+01  0.43101E-07
 0.14500000E+01  0.34770E-07
 0.15000000E+01  0.86716E-07
 0.15500001E+01  0.90784E-07
 0.16000000E+01  0.36362E-07
 0.16500000E+01  0.54641E-07
 0.17000000E+01  0.51232E-07
 0.17500000E+01 -0.25896E-07
 0.18000001E+01 -0.78852E-07
 0.18500000E+01 -0.12279E-06
 0.19000000E+01 -0.12201E-06
 0.19500000E+01 -0.79880E-07
 0.20000000E+01 -0.60366E-07
 0.20500000E+01 -0.53347E-07
 0.21000001E+01 -0.49334E-07
 0.21500001E+01 -0.29269E-07
 0.22000000E+01 -0.18426E-07
 0.22500000E+01  0.75158E-08
 0.23000000E+01  0.12011E-07
 0.23500001E+01  0.38996E-07
 0.24000001E+01  0.13514E-06
 0.24500000E+01  0.12069E-06
 0.25000000E+01  0.91378E-07
 0.25500000E+01  0.15795E-06
 0.26000001E+01  0.17045E-06
 0.26500001E+01  0.12817E-06
 0.27000000E+01  0.10070E-06
 0.27500000E+01  0.46745E-07
 0.28000000E+01 -0.20661E-07
 0.28500001E+01 -0.46715E-07
 0.29000001E+01 -0.61263E-07
 0.29500000E+01 -0.77609E-07
 0.30000000E+01 -0.83051E-07
 0.30500000E+01 -0.11648E-06
 0.31000001E+01 -0.12895E-06
 0.31500001E+01 -0.10869E-06
 0.32000000E+01 -0.11721E-06
 0.32500000E+01 -0.63514E-07
 0.33000000E+01  0.74577E-08
 0.33500001E+01  0.47999E-07
 0.34000001E+01  0.99987E-07
 0.34500000E+01  0.12132E-06
 0.35000000E+01  0.91432E-07
 0.35500000E+01  0.73673E-07
 0.36000001E+01  0.91380E-07
 0.36500001E+01  0.32130E-07
 0.37000000E+01 -0.40283E-07
 0.37500000E+01 -0.48474E-07
 0.38000000E+01 -0.60179E-07
 0.38500001E+01 -0.80756E-07
 0.39000001E+01 -0.66378E-07
 0.39500000E+01 -0.85247E-07
 0.40000000E+01 -0.13268E-06
 0.40500002E+01 -0.12180E-06
 0.40999999E+01 -0.11578E-06
 0.41500001E+01 -0.83922E-07
 0.42000003E+01 -0.54358E-07
 0.42500000E+01 -0.69627E-07
 0.43000002E+01 -0.42790E-07
 0.43499999E+01  0.92930E-08
 0.44000001E+01  0.14097E-07
 0.44500003E+01  0.18433E-07
 0.45000000E+01  0.38037E-07
 0.45500002E+01 -0.97430E-08
 0.45999999E+01 -0.47960E-07
 0.46500001E+01 -0.39969E-07
 0.47000003E+01 -0.43172E-07
 0.47500000E+01 -0.29424E-07
 0.48000002E+01 -0.38137E-07
 0.48499999E+01 -0.73687E-07
 0.49000001E+01 -0.55950E-07
 0.49500003E+01 -0.21777E-07
 0.50000000E+01  0.74596E-08
 0.50500002E+01  0.65003E-07
 0.50999999E+01  0.79975E-07
 0.51500001E+01  0.45353E-07
 0.52000003E+01  0.56907E-07
 0.52500000E+01  0.53777E-07
 0.53000002E+01  0.57396E-07
 0.53499999E+01  0.69034E-07
 0.54000001E+01  0.44690E-07
 0.54500003E+01  0.81988E-07
 0.55000000E+01  0.90968E-07
 0.55500002E+01  0.58383E-07
 0.55999999E+01  0.57862E-07
 0.56500001E+01  0.39351E-07
 0.57000003E+01 -0.44120E-07
 0.57500000E+01 -0.13390E-06
 0.58000002E+01 -0.11547E-06
 0.58499999E+01 -0.77262E-07
 0.59000001E+01 -0.58488E-07
 0.59500003E+01 -0.10714E-07
 0.60000000E+01  0.89278E-09
 0.60500002E+01  0.94585E-08
 0.60999999E+01  0.59154E-07
 0.61500001E+01  0.71155E-07
 0.62000003E+01  0.98600E-07
 0.62500000E+01  0.14011E-06
 0.63000002E+01  0.15906E-06
 0.63499999E+01  0.17117E-06
 0.64000001E+01  0.10829E-06
 0.64500003E+01  0.81141E-07
 0.65000000E+01  0.41695E-07
 0.65500002E+01 -0.25152E-07
 0.65999999E+01 -0.23399E-08
 0.66500001E+01 -0.10500E-08
 0.67000003E+01 -0.14860E-07
 0.67500000E+01 -0.60324E-07
 0.68000002E+01 -0.75087E-07
 0.68499999E+01  0.23736E-07
 0.69000001E+01  0.82026E-07
 0.69500003E+01  0.14664E-06
 0.70000000E+01  0.18824E-06
 0.70500002E+01  0.15205E-06
 0.70999999E+01  0.13493E-06
 0.71500001E+01  0.75705E-07
 0.72000003E+01  0.62279E-07
 0.72500000E+01  0.58612E-07
 0.73000002E+01  0.41605E-07
 0.73499999E+01  0.18999E-07
 0.74000001E+01 -0.58700E-07
 0.74500003E+01 -0.71586E-07
 0.75000000E+01 -0.11946E-06
 0.75500002E+01 -0.13181E-06
 0.75999999E+01 -0.15780E-06
 0.76500001E+01 -0.24216E-06
 0.77000003E+01 -0.21076E-06
 0.77500000E+01 -0.20552E-06
 0.78000002E+01 -0.18804E-06
 0.78499999E+01 -0.13785E-06
 0.79000001E+01 -0.13955E-06
 0.79500003E+01 -0.11391E-06
 0.80000000E+01 -0.99455E-07
 0.80500002E+01 -0.12198E-06
 0.81000004E+01 -0.14176E-06
 0.81500006E+01 -0.16135E-06
 0.81999998E+01 -0.13708E-06
 0.82500000E+01 -0.68329E-07
 0.83000002E+01  0.63230E-08
 0.83500004E+01  0.59661E-07
 0.84000006E+01  0.44911E-07
 0.84499998E+01  0.75713E-08
 0.85000000E+01 -0.20964E-07
 0.85500002E+01 -0.54690E-07
 0.86000004E+01 -0.48451E-07
 0.86500006E+01  0.63938E-08
 0.86999998E+01  0.31904E-07
 0.87500000E+01  0.40131E-07
 0.88000002E+01  0.35817E-07
 0.88500004E+01 -0.13197E-07
 0.89000006E+01 -0.41809E-08
 0.89499998E+01  0.37350E-07
 0.90000000E+01  0.48253E-07
 0.90500002E+01  0.88374E-07
 0.91000004E+01  0.12412E-06
 0.91500006E+01  0.13229E-06
 0.91999998E+01  0.17903E-06
 0.92500000E+01  0.22566E-06
 0.93000002E+01  0.17338E-06
 0.93500004E+01  0.10921E-06
 0.94000006E+01  0.22277E-07
 0.94499998E+01 -0.85403E-07
 0.95000000E+01 -0.10742E-06
 0.95500002E+01 -0.13041E-06
 0.96000004E+01 -0.99271E-07
 0.96500006E+01 -0.79282E-07
 0.96999998E+01 -0.89935E-07
 0.97500000E+01 -0.41397E-07
 0.98000002E+01 -0.33203E-07
 0.98500004E+01 -0.31249E-07
 0.99000006E+01 -0.14752E-07
 0.99499998E+01  0.57095E-07
 0.10000000E+02  0.98985E-07
 0.10050000E+02  0.13063E-06
 0.10100000E+02  0.17704E-06
 0.10150001E+02  0.11221E-06
 0.10200000E+02  0.13881E-06
 0.10250000E+02  0.18172E-06
 0.10300000E+02  0.10591E-06
 0.10350000E+02  0.63505E-07
 0.10400001E+02  0.15291E-07
 0.10450000E+02 -0.36754E-07
 0.10500000E+02 -0.13067E-07
 0.10550000E+02  0.14315E-07
 0.10600000E+02 -0.11052E-07
 0.10650001E+02  0.16142E-07
 0.10700000E+02  0.58546E-07
 0.10750000E+02  0.99343E-07
 0.10800000E+02  0.13742E-06
 0.10850000E+02  0.14921E-06
 0.10900001E+02  0.20845E-06
 0.10950000E+02  0.17081E-06
 0.11000000E+02  0.92759E-07
 0.11050000E+02  0.90159E-07
 0.11100000E+02  0.48621E-07
 0.11150001E+02 -0.23704E-07
 0.11200000E+02 -0.60227E-07
 0.11250000E+02 -0.95525E-07
 0.11300000E+02 -0.14351E-06
 0.11350000E+02 -0.16117E-06
 0.11400001E+02 -0.15318E-06
 0.11450000E+02 -0.14172E-06
 0.11500000E+02 -0.14606E-06
 0.11550000E+02 -0.83002E-07
 0.11600000E+02 -0.29920E-07
 0.11650001E+02 -0.41220E-07
 0.11700000E+02  0.22884E-07
 0.11750000E+02  0.32317E-07
 0.11800000E+02 -0.79977E-08
 0.11850000E+02  0.93635E-08
 0.11900001E+02 -0.53069E-07
 0.11950000E+02 -0.10158E-06
 0.12000000E+02 -0.68428E-07
 0.12050000E+02 -0.81857E-07
 0.12100000E+02 -0.70365E-07
 0.12150001E+02 -0.51772E-07
 0.12200000E+02 -0.94178E-07
 0.12250000E+02 -0.86355E-07
 0.12300000E+02 -0.41376E-07
 0.12350000E+02 -0.50187E-07
 0.12400001E+02 -0.71304E-07
 0.12450000E+02 -0.28188E-07
 0.12500000E+02  0.36743E-07
 0.12550000E+02  0.30187E-08
 0.12600000E+02 -0.58643E-07
 0.12650001E+02 -0.23449E-07
 0.12700000E+02 -0.93387E-08
 0.12750000E+02 -0.24606E-07
 0.12800000E+02 -0.15312E-07
 0.12850000E+02 -0.89169E-08
 0.12900001E+02 -0.17627E-07
 0.12950000E+02 -0.38112E-07
 0.13000000E+02 -0.36233E-08
 0.13050000E+02 -0.12249E-07
 0.13100000E+02 -0.18786E-07
 0.13150001E+02  0.95657E-08
 0.13200000E+02 -0.32305E-07
 0.13250000E+02 -0.23539E-07
 0.13300000E+02 -0.16821E-07
 0.13350000E+02 -0.49360E-07
 0.13400001E+02 -0.34033E-07
 0.13450000E+02  0.87701E-08
 0.13500000E+02  0.66553E-07
 0.13550000E+02  0.91900E-07
 0.13600000E+02  0.74512E-07
 0.13650001E+02  0.51009E-07
 0.13700000E+02  0.35418E-07
 0.13750000E+02 -0.24938E-08
 0.13800000E+02 -0.38545E-07
 0.13850000E+02 -0.51408E-07
 0.13900001E+02 -0.58711E-07
 0.13950000E+02 -0.45548E-07
 0.14000000E+02 -0.47771E-07
 0.14050000E+02  0.15925E-08
 0.14100000E+02  0.85248E-07
 0.14150001E+02  0.13444E-06
 0.14200000E+02  0.16633E-06
 0.14250000E+02  0.16586E-06
 0.14300000E+02  0.17691E-06
 0.14350000E+02  0.16023E-06
 0.14400001E+02  0.13348E-06
 0.14450000E+02  0.12072E-06
 0.14500000E+02  0.75382E-07
 0.14550000E+02  0.56166E-07
 0.14600000E+02  0.29780E-07
 0.14650001E+02 -0.52402E-07
 0.14700000E+02 -0.63498E-07
 0.14750000E+02 -0.25326E-07
 0.14800000E+02 -0.48547E-07
 0.14850000E+02 -0.33278E-07
 0.14900001E+02 -0.58613E-07
 0.14950000E+02 -0.78508E-07
 0.15000000E+02 -0.22094E-07
 0.15050000E+02 -0.50188E-07
 0.15100000E+02 -0.35128E-07
 0.15150001E+02 -0.21056E-07
 0.15200000E+02 -0.53312E-07
 0.15250000E+02 -0.23561E-07
 0.15300000E+02 -0.30440E-07
 0.15350000E+02 -0.38375E-07
 0.15400001E+02 -0.17303E-07
 0.15450000E+02 -0.80723E-09
 0.15500000E+02  0.36496E-07
 0.15550000E+02  0.62662E-07
 0.15600000E+02  0.37007E-07
 0.15650001E+02 -0.21811E-07
 0.15700000E+02 -0.11229E-07
 0.15750000E+02  0.56123E-08
 0.15800000E+02 -0.63616E-07
 0.15850000E+02 -0.53965E-07
 0.15900001E+02 -0.76293E-08
 0.15950000E+02 -0.34198E-07
 0.16000000E+02 -0.29789E-07
 0.16050001E+02  0.10048E-07
 0.16100000E+02  0.39565E-07
 0.16150000E+02  0.27465E-07
 0.16200001E+02 -0.15129E-07
 0.16250000E+02 -0.20143E-07
 0.16300001E+02 -0.43625E-07
 0.16350000E+02 -0.70300E-07
 0.16400000E+02 -0.55500E-07
 0.16450001E+02 -0.96459E-07
 0.16500000E+02 -0.14164E-06
 0.16550001E+02 -0.12342E-06
 0.16600000E+02 -0.99441E-07
 0.16650000E+02 -0.42250E-07
 0.16700001E+02  0.38807E-07
 0.16750000E+02  0.81707E-07
 0.16800001E+02  0.12892E-06
 0.16850000E+02  0.10786E-06
 0.16900000E+02  0.47886E-07
 0.16950001E+02  0.53323E-07
 0.17000000E+02  0.27858E-07
 0.17050001E+02 -0.12597E-07
 0.17100000E+02  0.11012E-07
 0.17150000E+02  0.41981E-07
 0.17200001E+02  0.40963E-07
 0.17250000E+02  0.85165E-07
 0.17300001E+02  0.12139E-06
 0.17350000E+02  0.71613E-07
 0.17400000E+02  0.28966E-08
 0.17450001E+02 -0.82209E-09
 0.17500000E+02  0.14764E-07
 0.17550001E+02  0.12924E-08
 0.17600000E+02  0.88620E-08
 0.17650000E+02  0.30576E-08
 0.17700001E+02  0.70471E-08
 0.17750000E+02  0.70502E-08
 0.17800001E+02  0.56901E-08
 0.17850000E+02  0.83396E-08
 0.17900000E+02 -0.16096E-07
 0.17950001E+02 -0.34185E-08
 0.18000000E+02  0.15730E-07
 0.18050001E+02  0.88454E-09
 0.18100000E+02 -0.83099E-08
 0.18150000E+02  0.23067E-07
 0.18200001E+02  0.79145E-08
 0.18250000E+02 -0.15172E-07
 0.18300001E+02  0.13815E-07
 0.18350000E+02 -0.27195E-07
 0.18400000E+02 -0.32212E-07
 0.18450001E+02 -0.89693E-08
 0.18500000E+02 -0.19205E-07
 0.18550001E+02 -0.31787E-07
 0.18600000E+02 -0.66747E-07
 0.18650000E+02 -0.30488E-07
 0.18700001E+02 -0.50543E-07
 0.18750000E+02 -0.11624E-06
 0.18800001E+02 -0.73044E-07
 0.18850000E+02 -0.45439E-07
 0.18900000E+02 -0.75015E-07
 0.18950001E+02 -0.68460E-07
 0.19000000E+02 -0.20957E-07
 0.19050001E+02  0.31884E-07
 0.19100000E+02  0.70772E-07
 0.19150000E+02  0.92548E-08
 0.19200001E+02 -0.39299E-07
 0.19250000E+02  0.36075E-09
 0.19300001E+02 -0.19991E-07
 0.19350000E+02  0.87504E-08
 0.19400000E+02  0.29266E-07
 0.19450001E+02 -0.34732E-07
 0.19500000E+02  0.15346E-07
 0.19550001E+02  0.17980E-07
 0.19600000E+02  0.78797E-08
 0.19650000E+02  0.16287E-07
 0.19700001E+02  0.84335E-08
 0.19750000E+02  0.47681E-07
 0.19800001E+02  0.55892E-07
 0.19850000E+02  0.14619E-06
 0.19900000E+02  0.47766E-06
 0.19950001E+02  0.85559E-06
 0.20000000E+02 -0.24999E-06
 0.20050001E+02 -0.36005E-05
 0.20100000E+02 -0.72960E-05
 0.20150000E+02 -0.78218E-05
 0.20200001E+02 -0.40412E-05
 0.20250000E+02  0.15698E-05
 0.20300001E+02  0.16491E-05
 0.20350000E+02 -0.28635E-05
 0.20400000E+02  0.15609E-05
 0.20450001E+02  0.10181E-04
 0.20500000E+02  0.88803E-05
 0.20550001E+02  0.13023E-04
 0.20600000E+02  0.28131E-04
 0.20650000E+02  0.27106E-04
 0.20700001E+02 -0.32987E-05
 0.20750000E+02 -0.45771E-04
 0.20800001E+02 -0.43638E-04
 0.20850000E+02 -0.54174E-05
 0.20900000E+02  0.16266E-04
 0.20950001E+02  0.31630E-04
 0.21000000E+02  0.24407E-04
 0.21050001E+02 -0.16604E-04
 0.21100000E+02 -0.38846E-04
 0.21150000E+02 -0.14731E-04
 0.21200001E+02  0.23483E-04
 0.21250000E+02  0.28977E-04
 0.21300001E+02  0.13057E-05
 0.21350000E+02 -0.31650E-05
 0.21400000E+02  0.45199E-05
 0.21450001E+02 -0.11046E-04
 0.21500000E+02 -0.94508E-05
 0.21550001E+02 -0.61716E-05
 0.21600000E+02 -0.13496E-04
 0.21650000E+02  0.25510E-05
 0.21700001E+02 -0.81229E-05
 0.21750000E+02 -0.21797E-04
 0.21800001E+02 -0.12234E-04
 0.21850000E+02 -0.45670E-05
 0.21900000E+02  0.21648E-04
 0.21950001E+02  0.27391E-04
 0.22000000E+02  0.32492E-04
 0.22050001E+02  0.14964E-04
 0.22100000E+02 -0.29644E-04
 0.22150000E+02 -0.68589E-05
 0.22200001E+02  0.26119E-04
 0.22250000E+02 -0.46183E-05
 0.22300001E+02 -0.48355E-04
 0.22350000E+02 -0.40532E-04
 0.22400000E+02  0.24004E-04
 0.22450001E+02  0.60948E-04
 0.22500000E+02  0.18333E-04
 0.22550001E+02 -0.17231E-04
 0.22600000E+02 -0.10966E-04
 0.22650000E+02 -0.17990E-04
 0.22700001E+02 -0.33472E-04
 0.22750000E+02 -0.56615E-06
 0.22800001E+02  0.39670E-04
 0.22850000E+02  0.12946E-04
 0.22900000E+02 -0.55436E-05
 0.22950001E+02  0.15041E-04
 0.23000000E+02  0.20289E-04
 0.23050001E+02  0.19728E-04
 0.23100000E+02 -0.44306E-05
 0.23150000E+02 -0.36727E-04
 0.23200001E+02 -0.34743E-04
 0.23250000E+02 -0.30583E-04
 0.23300001E+02  0.18638E-05
 0.23350000E+02  0.55125E-04
 0.23400000E+02  0.16270E-04
 0.23450001E+02 -0.37422E-04
 0.23500000E+02 -0.16062E-04
 0.23550001E+02  0.31863E-05
 0.23600000E+02  0.14348E-04
 0.23650000E+02  0.17519E-04
 0.23700001E+02  0.91449E-05
 0.23750000E+02 -0.92877E-05
 0.23800001E+02 -0.79571E-05
 0.23850000E+02  0.26944E-04
 0.23900000E+02  0.33036E-04
 0.23950001E+02 -0.71903E-05
 0.24000000E+02 -0.49288E-04
 0.24050001E+02 -0.39982E-04
 0.24100000E+02 -0.21254E-04
 0.24150000E+02  0.45552E-06
 0.24200001E+02  0.38214E-04
 0.24250000E+02  0.36118E-04
 0.24300001E+02  0.67566E-05
 0.24350000E+02 -0.19337E-04
 0.24400000E+02 -0.27244E-04
 0.24450001E+02 -0.10385E-04
 0.24500000E+02  0.30645E-08
 0.24550001E+02  0.10067E-04
 0.24600000E+02  0.28169E-04
 0.24650000E+02  0.34915E-04
 0.24700001E+02  0.14529E-04
 0.24750000E+02 -0.18614E-04
 0.24800001E+02 -0.24379E-04
 0.24850000E+02 -0.38586E-04
 0.24900000E+02 -0.53162E-04
 0.24950001E+02 -0.43035E-05
 0.25000000E+02  0.47541E-04
 0.25050001E+02  0.16702E-04
 0.25100000E+02 -0.29802E-06
 0.25150000E+02  0.31901E-04
 0.25200001E+02  0.31968E-04
 0.25250000E+02  0.20906E-04
 0.25300001E+02  0.81000E-06
 0.25350000E+02 -0.10256E-04
 0.25400000E+02 -0.36537E-04
 0.25450001E+02 -0.61409E-04
 0.25500000E+02 -0.68418E-05
 0.25550001E+02  0.43480E-04
 0.25600000E+02  0.44005E-04
 0.25650000E+02  0.31533E-04
 0.25700001E+02 -0.88783E-06
 0.25750000E+02 -0.47967E-04
 0.25800001E+02 -0.76668E-04
 0.25850000E+02 -0.57022E-04
 0.25900000E+02  0.55228E-05
 0.25950001E+02  0.54810E-04
 0.26000000E+02  0.64951E-04
 0.26050001E+02  0.45708E-04
 0.26100000E+02  0.51789E-05
 0.26150000E+02 -0.17154E-04
 0.26200001E+02 -0.92825E-05
 0.26250000E+02  0.55259E-05
 0.26300001E+02  0.10058E-04
 0.26350000E+02 -0.70484E-05
 0.26400000E+02 -0.38058E-04
 0.26450001E+02 -0.51526E-04
 0.26500000E+02 -0.38561E-04
 0.26550001E+02 -0.16007E-04
 0.26600000E+02  0.20078E-04
 0.26650000E+02  0.55192E-04
 0.26700001E+02  0.68797E-04
 0.26750000E+02  0.44401E-04
 0.26800001E+02 -0.10868E-04
 0.26850000E+02 -0.43875E-04
 0.26900000E+02 -0.38156E-04
 0.26950001E+02 -0.14056E-04
 0.27000000E+02 -0.23611E-05
 0.27050001E+02 -0.10625E-04
 0.27100000E+02  0.13037E-05
 0.27150000E+02  0.13792E-04
 0.27200001E+02  0.50997E-05
 0.27250000E+02 -0.22975E-05
 0.27300001E+02 -0.15531E-04
 0.27350000E+02 -0.12291E-04
 0.27400000E+02 -0.51010E-05
 0.27450001E+02 -0.76540E-07
 0.27500000E+02  0.30172E-04
 0.27550001E+02  0.40082E-04
 0.27600000E+02  0.15396E-04
 0.27650000E+02 -0.39573E-05
 0.27700001E+02 -0.14568E-04
 0.27750000E+02 -0.61904E-05
 0.27800001E+02  0.17690E-04
 0.27850000E+02 -0.20957E-05
 0.27900000E+02 -0.24317E-04
 0.27950001E+02 -0.99250E-05
 0.28000000E+02  0.30041E-05
 0.28050001E+02  0.14618E-04
 0.28100000E+02  0.81241E-05
 0.28150000E+02  0.17658E-05
 0.28200001E+02  0.12609E-04
 0.28250000E+02  0.45576E-05
 0.28300001E+02 -0.13877E-04
 0.28350000E+02 -0.22939E-04
 0.28400000E+02 -0.23131E-04
 0.28450001E+02 -0.26485E-04
 0.28500000E+02 -0.11054E-04
 0.28550001E+02  0.31090E-04
 0.28600000E+02  0.18466E-04
 0.28650000E+02 -0.18119E-04
 0.28700001E+02 -0.12671E-04
 0.28750000E+02  0.13742E-04
 0.28800001E+02  0.41111E-04
 0.28850000E+02  0.28125E-04
 0.28900000E+02  0.31178E-05
 0.28950001E+02 -0.89050E-05
 0.29000000E+02 -0.38919E-04
 0.29050001E+02 -0.36150E-04
 0.29100000E+02  0.11441E-04
 0.29150000E+02  0.29241E-04
 0.29200001E+02  0.14281E-04
 0.29250000E+02 -0.91886E-05
 0.29300001E+02 -0.24422E-04
 0.29350000E+02 -0.19264E-04
 0.29400000E+02 -0.10181E-04
 0.29450001E+02  0.58034E-05
 0.29500000E+02  0.30379E-04
 0.29550001E+02  0.43439E-04
 0.29600000E+02  0.11431E-04
 0.29650000E+02 -0.36776E-04
 0.29700001E+02 -0.35888E-04
 0.29750000E+02 -0.67993E-05
 0.29800001E+02  0.20165E-04
 0.29850000E+02  0.25554E-04
 0.29900000E+02  0.13140E-04
 0.29950001E+02  0.13188E-04
 0.30000000E+02 -0.11277E-04
 0.30050001E+02 -0.35239E-04
 0.30100000E+02 -0.14957E-04
 0.30150000E+02 -0.74661E-05
 0.30200001E+02 -0.53802E-05
 0.30250000E+02  0.18970E-04
 0.30300001E+02  0.24765E-04
 0.30350000E+02  0.14305E-04
 0.30400000E+02  0.47998E-05
 0.30450001E+02  0.60895E-05
 0.30500000E+02  0.98872E-05
 0.30550001E+02 -0.12426E-04
 0.30600000E+02 -0.33803E-04
 0.30650000E+02 -0.39516E-04
 0.30700001E+02 -0.32557E-04
 0.30750000E+02  0.15165E-04
 0.30800001E+02  0.67212E-04
 0.30850000E+02  0.72632E-04
 0.30900000E+02  0.28197E-04
 0.30950001E+02 -0.58875E-04
 0.31000000E+02 -0.10019E-03
 0.31050001E+02 -0.62406E-04
 0.31100000E+02  0.19941E-05
 0.31150000E+02  0.47840E-04
 0.31200001E+02  0.48114E-04
 0.31250000E+02  0.37022E-04
 0.31300001E+02  0.15161E-04
 0.31350000E+02 -0.14565E-04
 0.31400000E+02 -0.25903E-04
 0.31450001E+02 -0.26769E-04
 0.31500000E+02 -0.80197E-05
 0.31550001E+02  0.19665E-04
 0.31600000E+02  0.31392E-04
 0.31650000E+02  0.26757E-04
 0.31700001E+02  0.55577E-07
 0.31750000E+02 -0.95465E-05
 0.31800001E+02  0.13038E-04
 0.31850000E+02  0.99574E-05
 0.31900000E+02 -0.20423E-04
 0.31950001E+02 -0.33249E-04
 0.32000000E+02 -0.27074E-04
 0.32049999E+02 -0.87187E-05
 0.32100002E+02  0.30736E-05
 0.32150002E+02  0.59788E-06
 0.32200001E+02  0.19064E-04
 0.32250000E+02  0.18996E-04
 0.32299999E+02  0.10166E-05
 0.32350002E+02  0.71625E-05
 0.32400002E+02  0.85413E-05
 0.32450001E+02 -0.14188E-05
 0.32500000E+02 -0.14010E-04
 0.32549999E+02 -0.16125E-04
 0.32600002E+02 -0.17355E-04
 0.32650002E+02 -0.14241E-04
 0.32700001E+02  0.13049E-04
 0.32750000E+02  0.27029E-04
 0.32799999E+02  0.27927E-04
 0.32850002E+02  0.20808E-04
 0.32900002E+02 -0.24837E-05
 0.32950001E+02 -0.33317E-05
 0.33000000E+02 -0.12233E-04
 0.33049999E+02 -0.26054E-04
 0.33100002E+02 -0.31359E-04
 0.33150002E+02 -0.33802E-04
 0.33200001E+02  0.12833E-05
 0.33250000E+02  0.17671E-04
 0.33299999E+02  0.24418E-04
 0.33350002E+02  0.20673E-04
 0.33400002E+02 -0.16787E-04
 0.33450001E+02 -0.21216E-04
 0.33500000E+02  0.60890E-05
 0.33549999E+02  0.17871E-04
 0.33600002E+02  0.69762E-05
 0.33650002E+02  0.71495E-05
 0.33700001E+02  0.12428E-04
 0.33750000E+02  0.13827E-04
 0.33799999E+02  0.83686E-06
 0.33850002E+02 -0.20677E-04
 0.33900002E+02 -0.21101E-04
 0.33950001E+02 -0.18081E-04
 0.34000000E+02 -0.14784E-04
 0.34049999E+02 -0.57164E-05
 0.34100002E+02  0.12033E-04
 0.34150002E+02  0.44173E-04
 0.34200001E+02  0.48694E-04
 0.34250000E+02  0.13808E-04
 0.34299999E+02 -0.53259E-05
 0.34350002E+02 -0.10618E-04
 0.34400002E+02 -0.17100E-04
 0.34450001E+02 -0.56171E-05
 0.34500000E+02 -0.69809E-06
 0.34549999E+02 -0.18264E-04
 0.34600002E+02 -0.82737E-05
 0.34650002E+02  0.98373E-05
 0.34700001E+02 -0.31359E-05
 0.34750000E+02 -0.13736E-05
 0.34799999E+02  0.59015E-05
 0.34850002E+02  0.10002E-04
 0.34900002E+02  0.41641E-05
 0.34950001E+02 -0.26824E-04
 0.35000000E+02 -0.35899E-04
 0.35049999E+02 -0.42390E-04
 0.35100002E+02 -0.37410E-04
 0.35150002E+02  0.13791E-04
 0.35200001E+02  0.58536E-04
 0.35250000E+02  0.56095E-04
 0.35299999E+02  0.25174E-04
 0.35350002E+02 -0.14522E-04
 0.35400002E+02 -0.56319E-04
 0.35450001E+02 -0.41459E-04
 0.35500000E+02 -0.43323E-04
 0.35549999E+02 -0.51565E-04
 0.35600002E+02  0.10401E-04
 0.35650002E+02  0.54510E-05
 0.35700001E+02  0.27622E-04
 0.35750000E+02  0.12594E-03
 0.35799999E+02  0.15619E-03
 0.35850002E+02  0.11192E-03
 0.35900002E+02 -0.84706E-05
 0.35950001E+02 -0.12210E-03
 0.36000000E+02 -0.14916E-03
 0.36049999E+02 -0.85688E-04
 0.36100002E+02  0.18037E-04
 0.36150002E+02  0.73922E-04
 0.36200001E+02  0.81903E-04
 0.36250000E+02  0.29034E-04
 0.36299999E+02 -0.20861E-04
 0.36350002E+02 -0.51703E-05
 0.36400002E+02 -0.10777E-04
 0.36450001E+02  0.34894E-04
 0.36500000E+02  0.11511E-03
 0.36549999E+02  0.34317E-04
 0.36600002E+02 -0.15687E-03
 0.36650002E+02 -0.23086E-03
 0.36700001E+02 -0.74993E-04
 0.36750000E+02  0.78214E-04
 0.36799999E+02  0.94765E-04
 0.36850002E+02  0.11123E-03
 0.36900002E+02  0.90341E-04
 0.36950001E+02 -0.38701E-04
 0.37000000E+02 -0.19208E-03
 0.37049999E+02 -0.19116E-03
 0.37100002E+02 -0.81012E-04
 0.37150002E+02 -0.23283E-04
 0.37200001E+02  0.89472E-04
 0.37250000E+02  0.18822E-03
 0.37299999E+02  0.10356E-03
 0.37350002E+02  0.24211E-04
 0.37400002E+02  0.57524E-04
 0.37450001E+02  0.74248E-04
 0.37500000E+02  0.62325E-04
 0.37549999E+02 -0.12479E-05
 0.37600002E+02 -0.92668E-04
 0.37650002E+02 -0.12760E-03
 0.37700001E+02 -0.14873E-03
 0.37750000E+02 -0.82619E-04
 0.37799999E+02  0.32753E-04
 0.37850002E+02  0.39874E-04
 0.37900002E+02 -0.28766E-04
 0.37950001E+02 -0.61887E-05
 0.38000000E+02  0.13479E-03
 0.38049999E+02  0.22325E-03
 0.38100002E+02  0.20022E-03
 0.38150002E+02  0.44382E-04
 0.38200001E+02 -0.16002E-03
 0.38250000E+02 -0.26925E-03
 0.38299999E+02 -0.23587E-03
 0.38350002E+02 -0.75912E-04
 0.38400002E+02  0.56548E-04
 0.38450001E+02  0.92501E-04
 0.38500000E+02  0.12098E-03
 0.38549999E+02  0.12790E-03
 0.38600002E+02  0.38243E-04
 0.38650002E+02 -0.16971E-04
 0.38700001E+02  0.66114E-04
 0.38750000E+02  0.96995E-04
 0.38799999E+02 -0.38292E-04
 0.38850002E+02 -0.21597E-03
 0.38900002E+02 -0.29815E-03
 0.38950001E+02 -0.18459E-03
 0.39000000E+02  0.55423E-04
 0.39049999E+02  0.21406E-03
 0.39100002E+02  0.25898E-03
 0.39150002E+02  0.16880E-03
 0.39200001E+02 -0.21321E-04
 0.39250000E+02 -0.10718E-03
 0.39299999E+02 -0.70723E-04
 0.39350002E+02 -0.63759E-05
 0.39400002E+02  0.90253E-05
 0.39450001E+02  0.28396E-04
 0.39500000E+02  0.72458E-04
 0.39549999E+02  0.34806E-04
 0.39600002E+02 -0.82272E-04
 0.39650002E+02 -0.16945E-03
 0.39700001E+02 -0.96129E-04
 0.39750000E+02  0.40258E-04
 0.39799999E+02  0.90010E-04
 0.39850002E+02  0.64358E-04
 0.39900002E+02  0.50377E-04
 0.39950001E+02  0.33980E-04
 0.40000000E+02 -0.57003E-04
 0.40049999E+02 -0.94619E-04
 0.40100002E+02 -0.67566E-04
 0.40150002E+02 -0.80171E-04
 0.40200001E+02 -0.17825E-04
 0.40250000E+02  0.91564E-04
 0.40299999E+02  0.77955E-04
 0.40350002E+02  0.30505E-04
 0.40400002E+02  0.31077E-04
 0.40450001E+02  0.49789E-04
 0.40500000E+02  0.80231E-04
 0.40549999E+02  0.74769E-04
 0.40600002E+02  0.25455E-05
 0.40650002E+02 -0.65677E-04
 0.40700001E+02 -0.49914E-04
 0.40750000E+02 -0.18819E-04
 0.40799999E+02 -0.37665E-04
 0.40850002E+02 -0.39701E-04
 0.40900002E+02 -0.72614E-05
 0.40950001E+02  0.15861E-04
 0.41000000E+02  0.36486E-04
 0.41049999E+02  0.38911E-04
 0.41100002E+02  0.28595E-06
 0.41150002E+02 -0.60871E-04
 0.41200001E+02 -0.81926E-04
 0.41250000E+02 -0.48885E-04
 0.41299999E+02 -0.54106E-04
 0.41350002E+02 -0.73489E-04
 0.41400002E+02 -0.50097E-04
 0.41450001E+02  0.78750E-05
 0.41500000E+02  0.10735E-03
 0.41549999E+02  0.18102E-03
 0.41600002E+02  0.16698E-03
 0.41650002E+02  0.90272E-04
 0.41700001E+02 -0.31224E-04
 0.41750000E+02 -0.14420E-03
 0.41799999E+02 -0.16946E-03
 0.41850002E+02 -0.91892E-04
 0.41900002E+02  0.41083E-04
 0.41950001E+02  0.81715E-04
 0.42000000E+02  0.27468E-04
 0.42049999E+02 -0.15806E-04
 0.42100002E+02 -0.45059E-04
 0.42150002E+02 -0.24917E-04
 0.42200001E+02 -0.33029E-06
 0.42250000E+02 -0.61148E-05
 0.42299999E+02 -0.34785E-05
 0.42350002E+02 -0.20338E-05
 0.42400002E+02  0.31978E-04
 0.42450001E+02  0.82738E-04
 0.42500000E+02  0.85471E-04
 0.42549999E+02  0.53461E-04
 0.42600002E+02  0.30817E-04
 0.42650002E+02  0.20981E-04
 0.42700001E+02 -0.12217E-04
 0.42750000E+02 -0.56855E-04
 0.42799999E+02 -0.62168E-04
 0.42850002E+02 -0.27156E-04
 0.42900002E+02 -0.20826E-04
 0.42950001E+02 -0.41327E-04
 0.43000000E+02 -0.14402E-04
 0.43049999E+02 -0.12350E-06
 0.43100002E+02 -0.11959E-04
 0.43150002E+02  0.13938E-04
 0.43200001E+02  0.44461E-04
 0.43250000E+02  0.62444E-04
 0.43299999E+02  0.50414E-04
 0.43350002E+02  0.13301E-05
 0.43400002E+02 -0.64771E-04
 0.43450001E+02 -0.11092E-03
 0.43500000E+02 -0.81086E-04
 0.43549999E+02 -0.25854E-04
 0.43600002E+02  0.16440E-04
 0.43650002E+02  0.58611E-04
 0.43700001E+02  0.66595E-04
 0.43750000E+02  0.46091E-04
 0.43799999E+02  0.21025E-05
 0.43850002E+02 -0.45542E-04
 0.43900002E+02 -0.56014E-04
 0.43950001E+02 -0.44768E-04
 0.44000000E+02  0.21482E-05
 0.44049999E+02  0.78186E-04
 0.44100002E+02  0.86868E-04
 0.44150002E+02  0.36016E-04
 0.44200001E+02  0.16774E-04
 0.44250000E+02  0.60715E-06
 0.44299999E+02 -0.37460E-04
 0.44350002E+02 -0.81264E-04
 0.44400002E+02 -0.12100E-03
 0.44450001E+02 -0.89475E-04
 0.44500000E+02  0.97392E-05
 0.44549999E+02  0.94099E-04
 0.44600002E+02  0.13219E-03
 0.44650002E+02  0.11851E-03
 0.44700001E+02  0.58334E-04
 0.44750000E+02 -0.36257E-04
 0.44799999E+02 -0.12092E-03
 0.44850002E+02 -0.11815E-03
 0.44900002E+02 -0.41646E-04
 0.44950001E+02  0.53560E-04
 0.45000000E+02  0.11647E-03
 0.45049999E+02  0.11272E-03
 0.45100002E+02  0.67145E-04
 0.45150002E+02  0.42845E-06
 0.45200001E+02 -0.51878E-04
 0.45250000E+02 -0.83492E-04
 0.45299999E+02 -0.85770E-04
 0.45350002E+02 -0.66138E-04
 0.45400002E+02 -0.55040E-04
 0.45450001E+02 -0.29407E-04
 0.45500000E+02 -0.13351E-05
 0.45549999E+02  0.42728E-04
 0.45600002E+02  0.86419E-04
 0.45650002E+02  0.82038E-04
 0.45700001E+02  0.44469E-04
 0.45750000E+02  0.82495E-05
 0.45799999E+02 -0.21726E-04
 0.45850002E+02 -0.65077E-04
 0.45900002E+02 -0.61536E-04
 0.45950001E+02 -0.18566E-04
 0.46000000E+02 -0.44159E-05
 0.46049999E+02 -0.38477E-05
 0.46100002E+02 -0.26951E-05
 0.46150002E+02 -0.83460E-05
 0.46200001E+02 -0.15600E-04
 0.46250000E+02  0.39652E-05
 0.46299999E+02  0.37242E-04
 0.46350002E+02  0.47431E-04
 0.46400002E+02  0.36900E-04
 0.46450001E+02  0.24308E-04
 0.46500000E+02  0.86525E-05
 0.46549999E+02 -0.80249E-05
 0.46600002E+02 -0.16703E-05
 0.46650002E+02  0.56505E-05
 0.46700001E+02 -0.55552E-05
 0.46750000E+02 -0.33329E-04
 0.46799999E+02 -0.63861E-04
 0.46850002E+02 -0.46284E-04
 0.46900002E+02  0.14537E-04
 0.46950001E+02  0.44927E-04
 0.47000000E+02  0.32492E-04
 0.47049999E+02  0.23822E-04
 0.47100002E+02 -0.16663E-05
 0.47150002E+02 -0.32732E-04
 0.47200001E+02 -0.22885E-04
 0.47250000E+02 -0.28410E-05
 0.47299999E+02  0.27665E-04
 0.47350002E+02  0.65296E-04
 0.47400002E+02  0.52228E-04
 0.47450001E+02  0.41107E-05
 0.47500000E+02 -0.40509E-04
 0.47549999E+02 -0.80388E-04
 0.47600002E+02 -0.80729E-04
 0.47650002E+02 -0.40706E-04
 0.47700001E+02  0.58442E-05
 0.47750000E+02  0.33898E-04
 0.47799999E+02  0.24433E-04
 0.47850002E+02  0.96277E-05
 0.47900002E+02  0.72308E-05
 0.47950001E+02  0.66130E-05
 0.48000000E+02  0.96665E-05
 0.48049999E+02  0.24766E-04
 0.48100002E+02  0.33727E-04
 0.48150002E+02  0.11292E-04
 0.48200001E+02 -0.20549E-05
 0.48250000E+02  0.27218E-05
 0.48299999E+02 -0.11203E-04
 0.48350002E+02 -0.37134E-04
 0.48400002E+02 -0.58230E-04
 0.48450001E+02 -0.48117E-04
 0.48500000E+02 -0.76384E-05
 0.48549999E+02  0.20376E-04
 0.48600002E+02  0.31169E-04
 0.48650002E+02  0.42944E-04
 0.48700001E+02  0.56201E-04
 0.48750000E+02  0.58451E-04
 0.48799999E+02  0.48839E-04
 0.48850002E+02  0.31742E-04
 0.48900002E+02 -0.96269E-05
 0.48950001E+02 -0.64271E-04
 0.49000000E+02 -0.90076E-04
 0.49049999E+02 -0.81579E-04
 0.49100002E+02 -0.57327E-04
 0.49150002E+02 -0.30907E-04
 0.49200001E+02  0.41300E-05
 0.49250000E+02  0.59528E-04
 0.49299999E+02  0.10427E-03
 0.49350002E+02  0.10214E-03
 0.49400002E+02  0.48464E-04
 0.49450001E+02 -0.16559E-04
 0.49500000E+02 -0.48935E-04
 0.49549999E+02 -0.62373E-04
 0.49600002E+02 -0.58570E-04
 0.49650002E+02 -0.32956E-04
 0.49700001E+02 -0.16392E-04
 0.49750000E+02 -0.96876E-05
 0.49799999E+02  0.70868E-05
 0.49850002E+02  0.30384E-04
 0.49900002E+02  0.39492E-04
 0.49950001E+02  0.34576E-04
 0.50000000E+02  0.23622E-04
 0.50049999E+02  0.45325E-05
 0.50100002E+02 -0.30144E-05
 0.50150002E+02 -0.22731E-05
 0.50200001E+02 -0.10278E-04
 0.50250000E+02 -0.16208E-04
 0.50299999E+02 -0.91889E-05
 0.50350002E+02  0.57865E-06
 0.50400002E+02 -0.63621E-05
 0.50450001E+02 -0.19431E-04
 0.50500000E+02 -0.61922E-05
 0.50549999E+02  0.11842E-04
 0.50600002E+02 -0.10194E-04
 0.50650002E+02 -0.38553E-04
 0.50700001E+02 -0.42303E-04
 0.50750000E+02 -0.18209E-04
 0.50799999E+02  0.39871E-04
 0.50850002E+02  0.81715E-04
 0.50900002E+02  0.66854E-04
 0.50950001E+02  0.24184E-04
 0.51000000E+02 -0.95796E-05
 0.51049999E+02 -0.15974E-04
 0.51100002E+02 -0.27916E-05
 0.51150002E+02 -0.10347E-04
 0.51200001E+02 -0.34402E-04
 0.51250000E+02 -0.50925E-04
 0.51299999E+02 -0.52890E-04
 0.51350002E+02 -0.32228E-04
 0.51400002E+02 -0.68733E-05
 0.51450001E+02  0.32033E-04
 0.51500000E+02  0.65397E-04
 0.51549999E+02  0.48020E-04
 0.51600002E+02  0.19493E-04
 0.51650002E+02  0.98321E-05
 0.51700001E+02  0.20695E-05
 0.51750000E+02 -0.62808E-05
 0.51799999E+02 -0.13359E-04
 0.51850002E+02 -0.19354E-04
 0.51900002E+02 -0.17249E-04
 0.51950001E+02 -0.10576E-04
 0.52000000E+02 -0.11633E-04
 0.52049999E+02 -0.10878E-04
 0.52100002E+02 -0.57168E-05
 0.52150002E+02 -0.37525E-05
 0.52200001E+02  0.77506E-05
 0.52250000E+02  0.22062E-04
 0.52299999E+02  0.20011E-04
 0.52350002E+02  0.13912E-04
 0.52400002E+02  0.38649E-05
 0.52450001E+02 -0.12095E-04
 0.52500000E+02 -0.14575E-04
 0.52549999E+02 -0.11651E-04
 0.52600002E+02 -0.11779E-04
 0.52650002E+02 -0.30345E-06
 0.52700001E+02  0.16907E-04
 0.52750000E+02  0.24597E-04
 0.52799999E+02  0.14710E-04
 0.52850002E+02 -0.16076E-04
 0.52900002E+02 -0.33801E-04
 0.52950001E+02 -0.19522E-04
 0.53000000E+02  0.28794E-05
 0.53049999E+02  0.22725E-04
 0.53100002E+02  0.29827E-04
 0.53150002E+02  0.26435E-04
 0.53200001E+02  0.20462E-04
 0.53250000E+02  0.46327E-05
 0.53299999E+02 -0.64329E-05
 0.53350002E+02 -0.89968E-05
 0.53400002E+02 -0.14618E-04
 0.53450001E+02 -0.17347E-04
 0.53500000E+02 -0.25654E-04
 0.53549999E+02 -0.39343E-04
 0.53600002E+02 -0.36103E-04
 0.53650002E+02 -0.19150E-04
 0.53700001E+02  0.12383E-05
 0.53750000E+02  0.20890E-04
 0.53799999E+02  0.33024E-04
 0.53850002E+02  0.37616E-04
 0.53900002E+02  0.33588E-04
 0.53950001E+02  0.23415E-04
 0.54000000E+02  0.98057E-05
 0.54049999E+02 -0.49156E-06
 0.54100002E+02 -0.11258E-04
 0.54150002E+02 -0.24251E-04
 0.54200001E+02 -0.24436E-04
 0.54250000E+02 -0.21627E-04
 0.54299999E+02 -0.11298E-04
 0.54350002E+02  0.10745E-04
 0.54400002E+02  0.25709E-04
 0.54450001E+02  0.31994E-04
 0.54500000E+02  0.21302E-04
 0.54549999E+02 -0.38215E-05
 0.54600002E+02 -0.27109E-04
 0.54650002E+02 -0.40184E-04
 0.54700001E+02 -0.31925E-04
 0.54750000E+02 -0.14346E-04
 0.54799999E+02 -0.77034E-05
 0.54850002E+02 -0.39063E-05
 0.54900002E+02 -0.29959E-05
 0.54950001E+02  0.30156E-05
 0.55000000E+02  0.22081E-04
 0.55049999E+02  0.31687E-04
 0.55100002E+02  0.34097E-04
 0.55150002E+02  0.21436E-04
 0.55200001E+02  0.33651E-06
 0.55250000E+02 -0.27534E-06
 0.55299999E+02  0.11552E-05
 0.55350002E+02  0.66292E-06
 0.55400002E+02  0.13121E-05
 0.55450001E+02 -0.59807E-05
 0.55500000E+02 -0.14216E-04
 0.55549999E+02 -0.18680E-04
 0.55600002E+02 -0.76821E-05
 0.55650002E+02  0.75794E-05
 0.55700001E+02 -0.10855E-05
 0.55750000E+02 -0.77373E-05
 0.55799999E+02 -0.11039E-05
 0.55850002E+02 -0.32211E-05
 0.55900002E+02 -0.35598E-05
 0.55950001E+02 -0.17678E-05
 0.56000000E+02  0.15266E-05
 0.56049999E+02  0.10734E-04
 0.56100002E+02  0.17481E-04
 0.56150002E+02  0.22066E-04
 0.56200001E+02  0.20891E-04
 0.56250000E+02  0.13180E-04
 0.56299999E+02 -0.33595E-05
 0.56350002E+02 -0.27726E-04
 0.56400002E+02 -0.38069E-04
 0.56450001E+02 -0.25729E-04
 0.56500000E+02 -0.47888E-05
 0.56549999E+02  0.22875E-05
 0.56600002E+02 -0.15159E-04
 0.56650002E+02 -0.32793E-04
 0.56700001E+02 -0.30086E-04
 0.56750000E+02 -0.13861E-04
 0.56799999E+02  0.17382E-04
 0.56850002E+02  0.55992E-04
 0.56900002E+02  0.69555E-04
 0.56950001E+02  0.49732E-04
 0.57000000E+02  0.12403E-04
 0.57049999E+02 -0.24233E-04
 0.57100002E+02 -0.35701E-04
 0.57150002E+02 -0.18730E-04
 0.57200001E+02 -0.48966E-07
 0.57250000E+02  0.39592E-05
 0.57299999E+02  0.63815E-06
 0.57350002E+02 -0.52805E-05
 0.57400002E+02 -0.10902E-04
 0.57450001E+02 -0.56320E-05
 0.57500000E+02  0.29060E-05
 0.57549999E+02  0.28739E-05
 0.57600002E+02  0.23940E-05
 0.57650002E+02  0.99473E-06
 0.57700001E+02 -0.30580E-05
 0.57750000E+02  0.10081E-05
 0.57799999E+02  0.11899E-04
 0.57850002E+02  0.18187E-04
 0.57900002E+02  0.91427E-05
 0.57950001E+02 -0.70615E-05
 0.58000000E+02 -0.86647E-05
 0.58049999E+02 -0.51723E-05
 0.58100002E+02 -0.77982E-05
 0.58150002E+02 -0.64752E-05
 0.58200001E+02 -0.34840E-05
 0.58250000E+02  0.38351E-06
 0.58299999E+02  0.45445E-05
 0.58350002E+02 -0.10402E-05
 0.58400002E+02 -0.11016E-04
 0.58450001E+02 -0.15432E-04
 0.58500000E+02 -0.15177E-04
 0.58549999E+02 -0.11877E-04
 0.58600002E+02 -0.62282E-06
 0.58650002E+02  0.18844E-04
 0.58700001E+02  0.29303E-04
 0.58750000E+02  0.25072E-04
 0.58799999E+02  0.12243E-04
 0.58850002E+02 -0.11044E-05
 0.58900002E+02 -0.32172E-05
 0.58950001E+02 -0.37106E-05
 0.59000000E+02 -0.78742E-05
 0.59049999E+02 -0.99606E-05
 0.59100002E+02 -0.12093E-04
 0.59150002E+02 -0.93091E-05
 0.59200001E+02 -0.63170E-05
 0.59250000E+02 -0.10273E-04
 0.59299999E+02 -0.49668E-05
 0.59350002E+02  0.13113E-04
 0.59400002E+02  0.23154E-04
 0.59450001E+02  0.20355E-04
 0.59500000E+02  0.13154E-04
 0.59549999E+02 -0.91788E-06
 0.59600002E+02 -0.17314E-04
 0.59650002E+02 -0.16974E-04
 0.59700001E+02 -0.43406E-05
 0.59750000E+02  0.19813E-05
 0.59799999E+02  0.37881E-05
 0.59850002E+02  0.10938E-05
 0.59900002E+02 -0.27832E-05
 0.59950001E+02  0.16835E-05
 0.60000000E+02  0.48041E-05
 0.60049999E+02  0.36514E-05
 0.60100002E+02 -0.10394E-05
 0.60150002E+02 -0.80217E-05
 0.60200001E+02 -0.76998E-05
 0.60250000E+02 -0.39746E-05
 0.60299999E+02 -0.10254E-05
 0.60350002E+02 -0.41004E-05
 0.60400002E+02 -0.92733E-05
 0.60450001E+02 -0.55147E-05
 0.60500000E+02  0.63560E-05
 0.60549999E+02  0.21440E-04
 0.60600002E+02  0.28128E-04
 0.60650002E+02  0.26413E-04
 0.60700001E+02  0.21632E-04
 0.60750000E+02  0.49356E-05
 0.60799999E+02 -0.17351E-04
 0.60850002E+02 -0.23478E-04
 0.60900002E+02 -0.14458E-04
 0.60950001E+02 -0.71010E-05
 0.61000000E+02 -0.12666E-04
 0.61049999E+02 -0.25370E-04
 0.61100002E+02 -0.26597E-04
 0.61150002E+02 -0.16368E-04
 0.61200001E+02 -0.49445E-05
 0.61250000E+02  0.94138E-05
 0.61299999E+02  0.21593E-04
 0.61350002E+02  0.20550E-04
 0.61400002E+02  0.70527E-05
 0.61450001E+02 -0.75704E-05
 0.61500000E+02 -0.11978E-04
 0.61549999E+02 -0.42343E-05
 0.61600002E+02  0.13325E-04
 0.61650002E+02  0.28811E-04
 0.61700001E+02  0.27848E-04
 0.61750000E+02  0.12701E-04
 0.61799999E+02  0.16355E-05
 0.61850002E+02  0.21031E-05
 0.61900002E+02  0.15631E-05
 0.61950001E+02 -0.74284E-05
 0.62000000E+02 -0.22800E-04
 0.62049999E+02 -0.28500E-04
 0.62100002E+02 -0.19404E-04
 0.62150002E+02 -0.81086E-05
 0.62200001E+02  0.76649E-05
 0.62250000E+02  0.20540E-04
 0.62299999E+02  0.18656E-04
 0.62350002E+02  0.80817E-05
 0.62400002E+02 -0.20171E-05
 0.62450001E+02 -0.23159E-05
 0.62500000E+02  0.42343E-05
 0.62549999E+02  0.35846E-05
 0.62600002E+02 -0.79364E-05
 0.62650002E+02 -0.16517E-04
 0.62700001E+02 -0.15764E-04
 0.62750000E+02 -0.13398E-04
 0.62799999E+02 -0.81682E-05
 0.62850002E+02  0.59367E-06
 0.62900002E+02  0.86140E-05
 0.62950001E+02  0.14719E-04
 0.63000000E+02  0.13964E-04
 0.63049999E+02  0.64371E-05
 0.63100002E+02  0.27857E-05
 0.63150002E+02  0.54643E-05
 0.63200001E+02  0.97880E-05
 0.63250000E+02  0.97175E-05
 0.63299999E+02 -0.26739E-05
 0.63350002E+02 -0.18108E-04
 0.63400002E+02 -0.23518E-04
 0.63450001E+02 -0.20438E-04
 0.63500000E+02 -0.85121E-05
 0.63549999E+02  0.60417E-05
 0.63600002E+02  0.14165E-04
 0.63650002E+02  0.18362E-04
 0.63700001E+02  0.16447E-04
 0.63750000E+02  0.81249E-05
 0.63799999E+02  0.30988E-05
 0.63850002E+02  0.18136E-05
 0.63900002E+02 -0.11801E-05
 0.63950001E+02 -0.72946E-05
 0.64000000E+02 -0.18526E-04
 0.64050003E+02 -0.25972E-04
 0.64099998E+02 -0.20142E-04
 0.64150002E+02 -0.50167E-05
 0.64200005E+02  0.12759E-04
 0.64250000E+02  0.22785E-04
 0.64300003E+02  0.21482E-04
 0.64349998E+02  0.13243E-04
 0.64400002E+02  0.21028E-05
 0.64450005E+02 -0.28243E-05
 0.64500000E+02  0.30496E-06
 0.64550003E+02  0.35332E-05
 0.64599998E+02  0.47914E-05
 0.64650002E+02  0.32359E-05
 0.64700005E+02 -0.49558E-05
 0.64750000E+02 -0.15810E-04
 0.64800003E+02 -0.19619E-04
 0.64849998E+02 -0.13947E-04
 0.64900002E+02 -0.43975E-05
 0.64950005E+02  0.75688E-05
 0.65000000E+02  0.20445E-04
 0.65050003E+02  0.26309E-04
 0.65099998E+02  0.19604E-04
 0.65150002E+02  0.39117E-05
 0.65200005E+02 -0.11473E-04
 0.65250000E+02 -0.23621E-04
 0.65300003E+02 -0.28353E-04
 0.65349998E+02 -0.22806E-04
 0.65400002E+02 -0.14932E-04
 0.65450005E+02 -0.55541E-05
 0.65500000E+02  0.28985E-05
 0.65550003E+02  0.53620E-05
 0.65599998E+02  0.63461E-05
 0.65650002E+02  0.57038E-05
 0.65700005E+02  0.39695E-05
 0.65750000E+02  0.51692E-05
 0.65800003E+02  0.91736E-05
 0.65849998E+02  0.11755E-04
 0.65900002E+02  0.11754E-04
 0.65950005E+02  0.14485E-04
 0.66000000E+02  0.16774E-04
 0.66050003E+02  0.14095E-04
 0.66099998E+02  0.77632E-05
 0.66150002E+02 -0.36856E-05
 0.66200005E+02 -0.14778E-04
 0.66250000E+02 -0.20153E-04
 0.66300003E+02 -0.17948E-04
 0.66349998E+02 -0.89816E-05
 0.66400002E+02 -0.33680E-05
 0.66450005E+02 -0.14853E-06
 0.66500000E+02  0.13091E-05
 0.66550003E+02 -0.35680E-06
 0.66599998E+02  0.24073E-05
 0.66650002E+02  0.59208E-05
 0.66700005E+02  0.61520E-05
 0.66750000E+02  0.17801E-05
 0.66800003E+02 -0.54688E-05
 0.66849998E+02 -0.89325E-05
 0.66900002E+02 -0.95626E-05
 0.66950005E+02 -0.61857E-05
 0.67000000E+02 -0.31867E-07
 0.67050003E+02  0.52138E-05
 0.67099998E+02  0.92026E-05
 0.67150002E+02  0.88287E-05
 0.67200005E+02  0.40181E-05
 0.67250000E+02 -0.29634E-05
 0.67300003E+02 -0.67100E-05
 0.67349998E+02 -0.48699E-05
 0.67400002E+02 -0.24577E-05
 0.67450005E+02 -0.10236E-05
 0.67500000E+02  0.20431E-05
 0.67550003E+02  0.61062E-05
 0.67599998E+02  0.68445E-05
 0.67650002E+02  0.58334E-05
 0.67700005E+02  0.52154E-05
 0.67750000E+02  0.25780E-05
 0.67800003E+02 -0.10299E-05
 0.67849998E+02 -0.23356E-05
 0.67900002E+02  0.31237E-06
 0.67950005E+02  0.13780E-05
 0.68000000E+02 -0.27492E-05
 0.68050003E+02 -0.59720E-05
 0.68099998E+02 -0.60976E-05
 0.68150002E+02 -0.40025E-05
 0.68200005E+02 -0.34936E-05
 0.68250000E+02 -0.62411E-05
 0.68300003E+02 -0.62386E-05
 0.68349998E+02 -0.40129E-05
 0.68400002E+02  0.47161E-06
 0.68450005E+02  0.76509E-05
 0.68500000E+02  0.13234E-04
 0.68550003E+02  0.16479E-04
 0.68599998E+02  0.13267E-04
 0.68650002E+02  0.59304E-05
 0.68700005E+02  0.12011E-05
 0.68750000E+02 -0.46083E-05
 0.68800003E+02 -0.12898E-04
 0.68849998E+02 -0.18939E-04
 0.68900002E+02 -0.17551E-04
 0.68950005E+02 -0.71862E-05
 0.69000000E+02  0.10403E-04
 0.69050003E+02  0.25093E-04
 0.69099998E+02  0.23093E-04
 0.69150002E+02  0.81775E-05
 0.69200005E+02 -0.77100E-05
 0.69250000E+02 -0.17770E-04
 0.69300003E+02 -0.18846E-04
 0.69349998E+02 -0.13089E-04
 0.69400002E+02 -0.46515E-05
 0.69450005E+02  0.10287E-05
 0.69500000E+02  0.22064E-05
 0.69550003E+02  0.44596E-05
 0.69599998E+02  0.10458E-04
 0.69650002E+02  0.16354E-04
 0.69700005E+02  0.18004E-04
 0.69750000E+02  0.13166E-04
 0.69800003E+02  0.14153E-05
 0.69849998E+02 -0.13368E-04
 0.69900002E+02 -0.25759E-04
 0.69950005E+02 -0.27364E-04
 0.70000000E+02 -0.14012E-04
 0.70050003E+02  0.29195E-05
 0.70099998E+02  0.12166E-04
 0.70150002E+02  0.12860E-04
 0.70200005E+02  0.83639E-05
 0.70250000E+02  0.32201E-05
 0.70300003E+02  0.10778E-05
 0.70349998E+02  0.14678E-05
 0.70400002E+02 -0.52551E-06
 0.70450005E+02 -0.64994E-05
 0.70500000E+02 -0.10002E-04
 0.70550003E+02 -0.75418E-05
 0.70599998E+02 -0.33908E-05
 0.70650002E+02  0.10726E-05
 0.70700005E+02  0.77015E-05
 0.70750000E+02  0.14224E-04
 0.70800003E+02  0.13355E-04
 0.70849998E+02  0.39012E-05
 0.70900002E+02 -0.46808E-05
 0.70950005E+02 -0.83334E-05
 0.71000000E+02 -0.86684E-05
 0.71050003E+02 -0.69049E-05
 0.71099998E+02 -0.59199E-05
 0.71150002E+02 -0.64606E-05
 0.71200005E+02 -0.78136E-05
 0.71250000E+02 -0.65945E-05
 0.71300003E+02 -0.42344E-06
 0.71349998E+02  0.95301E-05
 0.71400002E+02  0.20375E-04
 0.71450005E+02  0.25843E-04
 0.71500000E+02  0.22538E-04
 0.71550003E+02  0.12429E-04
 0.71599998E+02 -0.12278E-05
 0.71650002E+02 -0.12946E-04
 0.71700005E+02 -0.15829E-04
 0.71750000E+02 -0.10799E-04
 0.71800003E+02 -0.46084E-05
 0.71849998E+02  0.10034E-05
 0.71900002E+02  0.69562E-05
 0.71950005E+02  0.10729E-04
 0.72000000E+02  0.91555E-05
 0.72050003E+02  0.32065E-05
 0.72099998E+02 -0.48220E-05
 0.72150002E+02 -0.12602E-04
 0.72200005E+02 -0.16784E-04
 0.72250000E+02 -0.17593E-04
 0.72300003E+02 -0.14286E-04
 0.72349998E+02 -0.76513E-05
 0.72400002E+02 -0.23501E-05
 0.72450005E+02  0.15923E-05
 0.72500000E+02  0.32484E-05
 0.72550003E+02  0.33306E-05
 0.72599998E+02  0.41690E-05
 0.72650002E+02  0.53184E-05
 0.72700005E+02  0.47199E-05
 0.72750000E+02  0.75502E-06
 0.72800003E+02 -0.23264E-05
 0.72849998E+02 -0.21887E-05
 0.72900002E+02  0.24389E-06
 0.72950005E+02  0.28281E-05
 0.73000000E+02  0.38597E-05
 0.73050003E+02  0.53396E-05
 0.73099998E+02  0.66210E-05
 0.73150002E+02  0.63455E-05
 0.73200005E+02  0.32482E-05
 0.73250000E+02 -0.18397E-05
 0.73300003E+02 -0.45648E-05
 0.73349998E+02 -0.59135E-05
 0.73400002E+02 -0.40976E-05
 0.73450005E+02  0.34824E-05
 0.73500000E+02  0.11379E-04
 0.73550003E+02  0.17944E-04
 0.73599998E+02  0.20649E-04
 0.73650002E+02  0.15419E-04
 0.73700005E+02  0.66026E-05
 0.73750000E+02 -0.27924E-05
 0.73800003E+02 -0.11269E-04
 0.73849998E+02 -0.13340E-04
 0.73900002E+02 -0.10763E-04
 0.73950005E+02 -0.98129E-05
 0.74000000E+02 -0.90769E-05
 0.74050003E+02 -0.79305E-05
 0.74099998E+02 -0.96888E-05
 0.74150002E+02 -0.12775E-04
 0.74200005E+02 -0.12911E-04
 0.74250000E+02 -0.10130E-04
 0.74300003E+02 -0.53767E-05
 0.74349998E+02  0.22334E-05
 0.74400002E+02  0.78749E-05
 0.74450005E+02  0.89435E-05
 0.74500000E+02  0.89927E-05
 0.74550003E+02  0.75673E-05
 0.74599998E+02  0.39607E-05
 0.74650002E+02  0.10707E-05
 0.74700005E+02  0.19591E-05
 0.74750000E+02  0.63500E-05
 0.74800003E+02  0.10184E-04
 0.74849998E+02  0.91771E-05
 0.74900002E+02  0.30755E-05
 0.74950005E+02 -0.39564E-05
 0.75000000E+02 -0.72051E-05
 0.75050003E+02 -0.69671E-05
 0.75099998E+02 -0.57621E-05
 0.75150002E+02 -0.18582E-05
 0.75200005E+02  0.18752E-05
 0.75250000E+02  0.63660E-06
 0.75300003E+02 -0.19207E-05
 0.75349998E+02 -0.29167E-05
 0.75400002E+02 -0.35850E-05
 0.75450005E+02 -0.57815E-05
 0.75500000E+02 -0.82493E-05
 0.75550003E+02 -0.69332E-05
 0.75599998E+02 -0.30306E-05
 0.75650002E+02  0.97156E-06
 0.75700005E+02  0.49222E-05
 0.75750000E+02  0.87977E-05
 0.75800003E+02  0.11591E-04
 0.75849998E+02  0.98229E-05
 0.75900002E+02  0.41243E-05
 0.75950005E+02  0.25956E-06
 0.76000000E+02  0.64876E-06
 0.76050003E+02  0.30677E-05
 0.76099998E+02  0.59567E-05
 0.76150002E+02  0.90646E-05
 0.76200005E+02  0.10586E-04
 0.76250000E+02  0.86271E-05
 0.76300003E+02  0.36307E-05
 0.76349998E+02 -0.30992E-05
 0.76400002E+02 -0.10145E-04
 0.76450005E+02 -0.12948E-04
 0.76500000E+02 -0.10066E-04
 0.76550003E+02 -0.72017E-05
 0.76599998E+02 -0.64327E-05
 0.76650002E+02 -0.70848E-05
 0.76700005E+02 -0.91238E-05
 0.76750000E+02 -0.98073E-05
 0.76800003E+02 -0.99829E-05
 0.76849998E+02 -0.91747E-05
 0.76900002E+02 -0.56397E-05
 0.76950005E+02 -0.26728E-05
 0.77000000E+02  0.94557E-06
 0.77050003E+02  0.60535E-05
 0.77099998E+02  0.10709E-04
 0.77150002E+02  0.15179E-04
 0.77200005E+02  0.17068E-04
 0.77250000E+02  0.15850E-04
 0.77300003E+02  0.13835E-04
 0.77349998E+02  0.91314E-05
 0.77400002E+02  0.19105E-05
 0.77450005E+02 -0.39993E-05
 0.77500000E+02 -0.52465E-05
 0.77550003E+02  0.49466E-07
 0.77599998E+02  0.62381E-05
 0.77650002E+02  0.65117E-05
 0.77700005E+02  0.15255E-05
 0.77750000E+02 -0.48759E-05
 0.77800003E+02 -0.10990E-04
 0.77849998E+02 -0.14917E-04
 0.77900002E+02 -0.15976E-04
 0.77950005E+02 -0.16732E-04
 0.78000000E+02 -0.16844E-04
 0.78050003E+02 -0.13724E-04
 0.78099998E+02 -0.66420E-05
 0.78150002E+02  0.15155E-05
 0.78200005E+02  0.87014E-05
 0.78250000E+02  0.14786E-04
 0.78300003E+02  0.18185E-04
 0.78349998E+02  0.17677E-04
 0.78400002E+02  0.14299E-04
 0.78450005E+02  0.90104E-05
 0.78500000E+02  0.18414E-05
 0.78550003E+02 -0.40237E-05
 0.78599998E+02 -0.86282E-05
 0.78650002E+02 -0.11501E-04
 0.78700005E+02 -0.82719E-05
 0.78750000E+02 -0.16295E-05
 0.78800003E+02  0.40726E-05
 0.78849998E+02  0.60688E-05
 0.78900002E+02  0.50992E-05
 0.78950005E+02  0.43092E-05
 0.79000000E+02  0.47504E-05
 0.79050003E+02  0.63471E-05
 0.79099998E+02  0.44787E-05
 0.79150002E+02 -0.14455E-05
 0.79200005E+02 -0.84095E-05
 0.79250000E+02 -0.14106E-04
 0.79300003E+02 -0.15443E-04
 0.79349998E+02 -0.12528E-04
 0.79400002E+02 -0.43339E-05
 0.79450005E+02  0.51242E-05
 0.79500000E+02  0.82563E-05
 0.79550003E+02  0.63566E-05
 0.79599998E+02  0.30507E-05
 0.79650002E+02  0.67043E-07
 0.79700005E+02 -0.87388E-06
 0.79750000E+02 -0.41678E-06
 0.79800003E+02 -0.16530E-07
 0.79849998E+02  0.35291E-06
 0.79900002E+02  0.48909E-06
 0.79950005E+02 -0.26861E-06
 0.80000000E+02 -0.23397E-05
 0.80050003E+02 -0.36770E-05
 0.80099998E+02 -0.23126E-05
 0.80150002E+02  0.15033E-06
 0.80200005E+02  0.40444E-05
 0.80250000E+02  0.94200E-05
 0.80300003E+02  0.13402E-04
 0.80349998E+02  0.14433E-04
 0.80400002E+02  0.12993E-04
 0.80450005E+02  0.81043E-05
 0.80500000E+02 -0.32568E-06
 0.80550003E+02 -0.84603E-05
 0.80599998E+02 -0.14542E-04
 0.80650002E+02 -0.16070E-04
 0.80700005E+02 -0.12202E-04
 0.80750000E+02 -0.84488E-05
 0.80800003E+02 -0.61639E-05
 0.80849998E+02 -0.39908E-05
 0.80900002E+02 -0.37590E-05
 0.80950005E+02 -0.41961E-05
 0.81000000E+02 -0.38548E-05
 0.81050003E+02 -0.27649E-05
 0.81099998E+02 -0.22667E-06
 0.81150002E+02  0.26859E-05
 0.81200005E+02  0.48646E-05
 0.81250000E+02  0.56403E-05
 0.81300003E+02  0.75337E-05
 0.81349998E+02  0.10939E-04
 0.81400002E+02  0.11669E-04
 0.81450005E+02  0.81630E-05
 0.81500000E+02  0.19391E-05
 0.81550003E+02 -0.29623E-05
 0.81599998E+02 -0.35470E-05
 0.81650002E+02 -0.15672E-05
 0.81700005E+02  0.10751E-05
 0.81750000E+02  0.41213E-05
 0.81800003E+02  0.51674E-05
 0.81849998E+02  0.37218E-05
 0.81900002E+02  0.10386E-05
 0.81950005E+02 -0.21178E-05
 0.82000000E+02 -0.50992E-05
 0.82050003E+02 -0.81810E-05
 0.82099998E+02 -0.10507E-04
 0.82150002E+02 -0.11026E-04
 0.82200005E+02 -0.75297E-05
 0.82250000E+02  0.10389E-06
 0.82300003E+02  0.65865E-05
 0.82349998E+02  0.81683E-05
 0.82400002E+02  0.63266E-05
 0.82450005E+02  0.29282E-05
 0.82500000E+02 -0.82506E-06
 0.82550003E+02 -0.26364E-05
 0.82599998E+02 -0.29480E-05
 0.82650002E+02 -0.31510E-05
 0.82700005E+02 -0.31948E-05
 0.82750000E+02 -0.33582E-05
 0.82800003E+02 -0.38243E-06
 0.82849998E+02  0.76832E-05
 0.82900002E+02  0.14585E-04
 0.82950005E+02  0.15053E-04
 0.83000000E+02  0.91452E-05
 0.83050003E+02 -0.75346E-06
 0.83099998E+02 -0.98080E-05
 0.83150002E+02 -0.14304E-04
 0.83200005E+02 -0.13373E-04
 0.83250000E+02 -0.86177E-05
 0.83300003E+02 -0.33136E-05
 0.83349998E+02  0.67545E-06
 0.83400002E+02  0.29194E-05
 0.83450005E+02  0.35498E-05
 0.83500000E+02  0.33964E-05
 0.83550003E+02  0.36280E-05
 0.83599998E+02  0.38981E-05
 0.83650002E+02  0.18065E-05
 0.83700005E+02 -0.29296E-05
 0.83750000E+02 -0.66780E-05
 0.83800003E+02 -0.61141E-05
 0.83849998E+02 -0.95282E-06
 0.83900002E+02  0.60850E-05
 0.83950005E+02  0.10551E-04
 0.84000000E+02  0.10572E-04
 0.84050003E+02  0.75372E-05
 0.84099998E+02  0.25400E-05
 0.84150002E+02 -0.28083E-05
 0.84200005E+02 -0.62747E-05
 0.84250000E+02 -0.76695E-05
 0.84300003E+02 -0.80526E-05
 0.84349998E+02 -0.84906E-05
 0.84400002E+02 -0.79469E-05
 0.84450005E+02 -0.59122E-05
 0.84500000E+02 -0.36763E-05
 0.84550003E+02 -0.42304E-06
 0.84599998E+02  0.27849E-05
 0.84650002E+02  0.36783E-05
 0.84700005E+02  0.30702E-05
 0.84750000E+02  0.23161E-05
 0.84800003E+02  0.33892E-05
 0.84849998E+02  0.77690E-05
 0.84900002E+02  0.11593E-04
 0.84950005E+02  0.10954E-04
 0.85000000E+02  0.68088E-05
 0.85050003E+02  0.32144E-06
 0.85099998E+02 -0.57754E-05
 0.85150002E+02 -0.84712E-05
 0.85200005E+02 -0.82098E-05
 0.85250000E+02 -0.70519E-05
 0.85300003E+02 -0.67459E-05
 0.85349998E+02 -0.54611E-05
 0.85400002E+02 -0.25395E-05
 0.85450005E+02 -0.22415E-06
 0.85500000E+02  0.17224E-05
 0.85550003E+02  0.43342E-05
 0.85599998E+02  0.78964E-05
 0.85650002E+02  0.10569E-04
 0.85700005E+02  0.10039E-04
 0.85750000E+02  0.70624E-05
 0.85800003E+02  0.36118E-05
 0.85849998E+02 -0.16432E-06
 0.85900002E+02 -0.42098E-05
 0.85950005E+02 -0.55913E-05
 0.86000000E+02 -0.39125E-05
 0.86050003E+02 -0.16760E-05
 0.86099998E+02  0.49944E-06
 0.86150002E+02  0.11666E-05
 0.86200005E+02  0.10185E-05
 0.86250000E+02  0.20059E-05
 0.86300003E+02  0.19628E-05
 0.86349998E+02 -0.35168E-06
 0.86400002E+02 -0.35574E-05
 0.86450005E+02 -0.57907E-05
 0.86500000E+02 -0.63978E-05
 0.86550003E+02 -0.59934E-05
 0.86599998E+02 -0.51205E-05
 0.86650002E+02 -0.51970E-05
 0.86700005E+02 -0.61174E-05
 0.86750000E+02 -0.60642E-05
 0.86800003E+02 -0.44599E-05
 0.86849998E+02 -0.16792E-05
 0.86900002E+02  0.13042E-05
 0.86950005E+02  0.40527E-05
 0.87000000E+02  0.62196E-05
 0.87050003E+02  0.72378E-05
 0.87099998E+02  0.87212E-05
 0.87150002E+02  0.10179E-04
 0.87200005E+02  0.74567E-05
 0.87250000E+02  0.18302E-05
 0.87300003E+02 -0.22489E-05
 0.87349998E+02 -0.40441E-05
 0.87400002E+02 -0.36483E-05
 0.87450005E+02 -0.13872E-05
 0.87500000E+02  0.20552E-05
 0.87550003E+02  0.49697E-05
 0.87599998E+02  0.59292E-05
 0.87650002E+02  0.44098E-05
 0.87700005E+02  0.10260E-05
 0.87750000E+02 -0.24522E-05
 0.87800003E+02 -0.60198E-05
 0.87849998E+02 -0.87056E-05
 0.87900002E+02 -0.98434E-05
 0.87950005E+02 -0.96722E-05
 0.88000000E+02 -0.73593E-05
 0.88050003E+02 -0.26511E-05
 0.88099998E+02  0.29394E-05
 0.88150002E+02  0.70663E-05
 0.88200005E+02  0.83834E-05
 0.88250000E+02  0.72297E-05
 0.88300003E+02  0.55751E-05
 0.88349998E+02  0.35146E-05
 0.88400002E+02  0.72307E-06
 0.88450005E+02 -0.16144E-05
 0.88500000E+02 -0.40435E-05
 0.88550003E+02 -0.68729E-05
 0.88599998E+02 -0.76993E-05
 0.88650002E+02 -0.59552E-05
 0.88700005E+02 -0.31864E-05
 0.88750000E+02  0.53563E-06
 0.88800003E+02  0.51016E-05
 0.88849998E+02  0.96541E-05
 0.88900002E+02  0.12377E-04
 0.88950005E+02  0.11625E-04
 0.89000000E+02  0.81735E-05
 0.89050003E+02  0.33285E-05
 0.89099998E+02 -0.22768E-05
 0.89150002E+02 -0.68874E-05
 0.89200005E+02 -0.94666E-05
 0.89250000E+02 -0.97272E-05
 0.89300003E+02 -0.74179E-05
 0.89349998E+02 -0.35217E-05
 0.89400002E+02 -0.34968E-06
 0.89450005E+02  0.22553E-07
 0.89500000E+02 -0.67518E-06
 0.89550003E+02 -0.11643E-05
 0.89599998E+02 -0.58036E-06
 0.89650002E+02  0.18048E-05
 0.89700005E+02  0.38266E-05
 0.89750000E+02  0.44195E-05
 0.89800003E+02  0.31699E-05
 0.89849998E+02  0.12687E-05
 0.89900002E+02  0.19534E-06
 0.89950005E+02 -0.92959E-07
 0.90000000E+02 -0.10212E-08
 0.90050003E+02 -0.70235E-06
 0.90099998E+02 -0.24748E-05
 0.90150002E+02 -0.38895E-05
 0.90200005E+02 -0.29763E-05
 0.90250000E+02 -0.26231E-06
 0.90300003E+02  0.24420E-05
 0.90349998E+02  0.39309E-05
 0.90400002E+02  0.43691E-05
 0.90450005E+02  0.43906E-05
 0.90500000E+02  0.34139E-05
 0.90550003E+02  0.14218E-05
 0.90599998E+02 -0.20645E-05
 0.90650002E+02 -0.57267E-05
 0.90700005E+02 -0.64423E-05
 0.90750000E+02 -0.44019E-05
 0.90800003E+02 -0.14910E-05
 0.90849998E+02  0.12465E-05
 0.90900002E+02  0.31324E-05
 0.90950005E+02  0.34907E-05
 0.91000000E+02  0.19348E-05
 0.91050003E+02 -0.45193E-06
 0.91099998E+02 -0.24147E-05
 0.91150002E+02 -0.35806E-05
 0.91200005E+02 -0.30878E-05
 0.91250000E+02 -0.14740E-05
 0.91300003E+02 -0.32694E-06
 0.91349998E+02  0.80701E-06
 0.91400002E+02  0.22346E-05
 0.91450005E+02  0.26941E-05
 0.91500000E+02  0.18127E-05
 0.91550003E+02  0.42854E-06
 0.91599998E+02  0.55076E-07
 0.91650002E+02  0.77403E-06
 0.91700005E+02  0.12748E-05
 0.91750000E+02  0.11037E-05
 0.91800003E+02 -0.66130E-06
 0.91849998E+02 -0.33134E-05
 0.91900002E+02 -0.43284E-05
 0.91950005E+02 -0.24539E-05
 0.92000000E+02  0.16451E-05
 0.92050003E+02  0.50904E-05
 0.92099998E+02  0.58399E-05
 0.92150002E+02  0.44596E-05
 0.92200005E+02  0.19071E-05
 0.92250000E+02 -0.84495E-06
 0.92300003E+02 -0.23582E-05
 0.92349998E+02 -0.18315E-05
 0.92400002E+02  0.58058E-07
 0.92450005E+02  0.98394E-06
 0.92500000E+02 -0.10271E-05
 0.92550003E+02 -0.45732E-05
 0.92599998E+02 -0.71812E-05
 0.92650002E+02 -0.84182E-05
 0.92700005E+02 -0.80344E-05
 0.92750000E+02 -0.50065E-05
 0.92800003E+02  0.85864E-06
 0.92849998E+02  0.78088E-05
 0.92900002E+02  0.12638E-04
 0.92950005E+02  0.13060E-04
 0.93000000E+02  0.97930E-05
 0.93050003E+02  0.51095E-05
 0.93099998E+02  0.12341E-05
 0.93150002E+02 -0.11568E-05
 0.93200005E+02 -0.34555E-05
 0.93250000E+02 -0.52952E-05
 0.93300003E+02 -0.50375E-05
 0.93349998E+02 -0.25508E-05
 0.93400002E+02  0.55082E-06
 0.93450005E+02  0.19702E-05
 0.93500000E+02  0.14872E-05
 0.93550003E+02  0.32618E-06
 0.93599998E+02 -0.10729E-05
 0.93650002E+02 -0.29261E-05
 0.93700005E+02 -0.44661E-05
 0.93750000E+02 -0.43250E-05
 0.93800003E+02 -0.31717E-05
 0.93849998E+02 -0.20209E-05
 0.93900002E+02 -0.13325E-05
 0.93950005E+02 -0.17564E-05
 0.94000000E+02 -0.21777E-05
 0.94050003E+02 -0.17027E-05
 0.94099998E+02 -0.53239E-06
 0.94150002E+02  0.16413E-05
 0.94200005E+02  0.45993E-05
 0.94250000E+02  0.62742E-05
 0.94300003E+02  0.58552E-05
 0.94349998E+02  0.52260E-05
 0.94400002E+02  0.34663E-05
 0.94450005E+02 -0.17648E-06
 0.94500000E+02 -0.37432E-05
 0.94550003E+02 -0.71832E-05
 0.94599998E+02 -0.93447E-05
 0.94650002E+02 -0.77780E-05
 0.94700005E+02 -0.35624E-05
 0.94750000E+02  0.79421E-06
 0.94800003E+02  0.41003E-05
 0.94849998E+02  0.56247E-05
 0.94900002E+02  0.60685E-05
 0.94950005E+02  0.62532E-05
 0.95000000E+02  0.52088E-05
 0.95050003E+02  0.33550E-05
 0.95099998E+02  0.17609E-05
 0.95150002E+02  0.46967E-06
 0.95200005E+02 -0.70254E-06
 0.95250000E+02 -0.25610E-05
 0.95300003E+02 -0.42068E-05
 0.95349998E+02 -0.39834E-05
 0.95400002E+02 -0.17499E-05
 0.95450005E+02  0.10438E-05
 0.95500000E+02  0.19719E-05
 0.95550003E+02  0.94248E-06
 0.95599998E+02 -0.14189E-05
 0.95650002E+02 -0.43433E-05
 0.95700005E+02 -0.53173E-05
 0.95750000E+02 -0.37318E-05
 0.95800003E+02 -0.10524E-05
 0.95849998E+02  0.23509E-05
 0.95900002E+02  0.58094E-05
 0.95950005E+02  0.70030E-05
 0.96000000E+02  0.61058E-05
 0.96050003E+02  0.46375E-05
 0.96099998E+02  0.22876E-05
 0.96150002E+02 -0.85359E-06
 0.96200005E+02 -0.40956E-05
 0.96250000E+02 -0.66973E-05
 0.96300003E+02 -0.84865E-05
 0.96349998E+02 -0.92657E-05
 0.96400002E+02 -0.80224E-05
 0.96450005E+02 -0.47530E-05
 0.96500000E+02 -0.91000E-06
 0.96550003E+02  0.24093E-05
 0.96599998E+02  0.47827E-05
 0.96650002E+02  0.60794E-05
 0.96700005E+02  0.64473E-05
 0.96750000E+02  0.57790E-05
 0.96800003E+02  0.45364E-05
 0.96849998E+02  0.32851E-05
 0.96900002E+02  0.21912E-05
 0.96950005E+02  0.97899E-06
 0.97000000E+02 -0.66972E-06
 0.97050003E+02 -0.21496E-05
 0.97099998E+02 -0.30669E-05
 0.97150002E+02 -0.30929E-05
 0.97200005E+02 -0.20816E-05
 0.97250000E+02 -0.85402E-06
 0.97300003E+02  0.82693E-07
 0.97349998E+02  0.52522E-06
 0.97400002E+02  0.10271E-05
 0.97450005E+02  0.29029E-05
 0.97500000E+02  0.46197E-05
 0.97550003E+02  0.45232E-05
 0.97599998E+02  0.33085E-05
 0.97650002E+02  0.18865E-05
 0.97700005E+02  0.15499E-05
 0.97750000E+02  0.16018E-05
 0.97800003E+02  0.69592E-06
 0.97849998E+02 -0.12982E-05
 0.97900002E+02 -0.41667E-05
 0.97950005E+02 -0.69572E-05
 0.98000000E+02 -0.88199E-05
 0.98050003E+02 -0.88994E-05
 0.98099998E+02 -0.72359E-05
 0.98150002E+02 -0.48982E-05
 0.98200005E+02 -0.19860E-05
 0.98250000E+02  0.15139E-05
 0.98300003E+02  0.50379E-05
 0.98349998E+02  0.74929E-05
 0.98400002E+02  0.70208E-05
 0.98450005E+02  0.42031E-05
 0.98500000E+02  0.13537E-05
 0.98550003E+02 -0.35736E-06
 0.98599998E+02 -0.96009E-06
 0.98650002E+02 -0.14876E-05
 0.98700005E+02 -0.17243E-05
 0.98750000E+02 -0.14929E-05
 0.98800003E+02 -0.13137E-05
 0.98849998E+02 -0.80590E-06
 0.98900002E+02  0.15228E-06
 0.98950005E+02  0.15699E-05
 0.99000000E+02  0.23863E-05
 0.99050003E+02  0.16933E-05
 0.99099998E+02  0.54501E-06
 0.99150002E+02  0.21837E-06
 0.99200005E+02  0.16299E-05
 0.99250000E+02  0.35995E-05
 0.99300003E+02  0.45496E-05
 0.99349998E+02  0.43276E-05
 0.99400002E+02  0.25973E-05
 0.99450005E+02  0.12427E-06
 0.99500000E+02 -0.22565E-05
 0.99550003E+02 -0.42073E-05
 0.99599998E+02 -0.56075E-05
 0.99650002E+02 -0.68675E-05
 0.99700005E+02 -0.76595E-05
 0.99750000E+02 -0.76063E-05
 0.99800003E+02 -0.59636E-05
 0.99849998E+02 -0.28855E-05
 0.99900002E+02 -0.15200E-06
 0.99950005E+02  0.17049E-05
 0.10000000E+03  0.32112E-05
