 0.00000000E+00 -0.10118E-06
 0.50000001E-01 -0.10867E-06
 0.10000000E+00 -0.10251E-06
 0.15000001E+00 -0.97006E-07
 0.20000000E+00 -0.10189E-06
 0.25000000E+00 -0.91117E-07
 0.30000001E+00 -0.69259E-07
 0.34999999E+00 -0.74786E-07
 0.40000001E+00 -0.81540E-07
 0.45000002E+00 -0.65972E-07
 0.50000000E+00 -0.32572E-07
 0.55000001E+00 -0.59906E-08
 0.60000002E+00 -0.11750E-08
 0.65000004E+00 -0.15791E-07
 0.69999999E+00 -0.21989E-07
 0.75000000E+00  0.11717E-07
 0.80000001E+00  0.46378E-07
 0.85000002E+00  0.47084E-07
 0.90000004E+00  0.38033E-07
 0.94999999E+00  0.54917E-07
 0.10000000E+01  0.71505E-07
 0.10500001E+01  0.59554E-07
 0.11000000E+01  0.45516E-07
 0.11500000E+01  0.34763E-07
 0.12000000E+01  0.27935E-07
 0.12500000E+01  0.23218E-07
 0.13000001E+01  0.21189E-07
 0.13500000E+01  0.22317E-07
 0.14000000E+01  0.20294E-07
 0.14500000E+01  0.24676E-07
 0.15000000E+01  0.11838E-07
 0.15500001E+01 -0.56108E-08
 0.16000000E+01 -0.68157E-08
 0.16500000E+01 -0.35448E-08
 0.17000000E+01  0.45588E-08
 0.17500000E+01  0.12886E-07
 0.18000001E+01  0.17509E-07
 0.18500000E+01  0.14300E-07
 0.19000000E+01  0.12683E-07
 0.19500000E+01  0.24611E-07
 0.20000000E+01  0.40455E-07
 0.20500000E+01  0.30521E-07
 0.21000001E+01 -0.54991E-09
 0.21500001E+01 -0.22340E-07
 0.22000000E+01 -0.29118E-07
 0.22500000E+01 -0.25087E-07
 0.23000000E+01 -0.19215E-07
 0.23500001E+01 -0.24393E-07
 0.24000001E+01 -0.32112E-07
 0.24500000E+01 -0.22405E-07
 0.25000000E+01 -0.71250E-09
 0.25500000E+01  0.26924E-07
 0.26000001E+01  0.46618E-07
 0.26500001E+01  0.43426E-07
 0.27000000E+01  0.33122E-07
 0.27500000E+01  0.24489E-07
 0.28000000E+01  0.27791E-07
 0.28500001E+01  0.40708E-07
 0.29000001E+01  0.26969E-07
 0.29500000E+01 -0.33962E-08
 0.30000000E+01 -0.14970E-07
 0.30500000E+01 -0.33904E-07
 0.31000001E+01 -0.31882E-07
 0.31500001E+01 -0.16433E-08
 0.32000000E+01 -0.34127E-08
 0.32500000E+01 -0.11901E-07
 0.33000000E+01 -0.27226E-08
 0.33500001E+01  0.26903E-07
 0.34000001E+01  0.46602E-07
 0.34500000E+01  0.60896E-07
 0.35000000E+01  0.77885E-07
 0.35500000E+01  0.66632E-07
 0.36000001E+01  0.50248E-07
 0.36500001E+01  0.49371E-07
 0.37000000E+01  0.68680E-07
 0.37500000E+01  0.54887E-07
 0.38000000E+01  0.35910E-07
 0.38500001E+01  0.37065E-07
 0.39000001E+01  0.11943E-07
 0.39500000E+01 -0.70348E-08
 0.40000000E+01 -0.11967E-07
 0.40500002E+01 -0.11374E-08
 0.40999999E+01  0.24033E-08
 0.41500001E+01  0.70238E-08
 0.42000003E+01  0.33896E-07
 0.42500000E+01  0.41415E-07
 0.43000002E+01  0.38143E-07
 0.43499999E+01  0.24399E-07
 0.44000001E+01  0.17438E-07
 0.44500003E+01  0.52161E-08
 0.45000000E+01 -0.35779E-07
 0.45500002E+01 -0.63010E-07
 0.45999999E+01 -0.77321E-07
 0.46500001E+01 -0.91411E-07
 0.47000003E+01 -0.12012E-06
 0.47500000E+01 -0.15113E-06
 0.48000002E+01 -0.15094E-06
 0.48499999E+01 -0.14282E-06
 0.49000001E+01 -0.13186E-06
 0.49500003E+01 -0.11710E-06
 0.50000000E+01 -0.12111E-06
 0.50500002E+01 -0.97104E-07
 0.50999999E+01 -0.60560E-07
 0.51500001E+01 -0.46243E-07
 0.52000003E+01 -0.26035E-07
 0.52500000E+01  0.33190E-08
 0.53000002E+01  0.36181E-07
 0.53499999E+01  0.29242E-07
 0.54000001E+01  0.94113E-08
 0.54500003E+01  0.13100E-07
 0.55000000E+01  0.21723E-07
 0.55500002E+01  0.31548E-07
 0.55999999E+01  0.20376E-07
 0.56500001E+01  0.23570E-08
 0.57000003E+01  0.12542E-07
 0.57500000E+01  0.37454E-07
 0.58000002E+01  0.51376E-07
 0.58499999E+01  0.62535E-07
 0.59000001E+01  0.67846E-07
 0.59500003E+01  0.51500E-07
 0.60000000E+01  0.39739E-07
 0.60500002E+01  0.62059E-07
 0.60999999E+01  0.70435E-07
 0.61500001E+01  0.56482E-07
 0.62000003E+01  0.53166E-07
 0.62500000E+01  0.48993E-07
 0.63000002E+01  0.44288E-07
 0.63499999E+01  0.33899E-07
 0.64000001E+01  0.35637E-07
 0.64500003E+01  0.40563E-07
 0.65000000E+01  0.21076E-07
 0.65500002E+01  0.40243E-08
 0.65999999E+01 -0.24277E-09
 0.66500001E+01  0.84821E-08
 0.67000003E+01  0.24203E-07
 0.67500000E+01  0.34180E-08
 0.68000002E+01 -0.23854E-07
 0.68499999E+01 -0.15273E-07
 0.69000001E+01  0.67459E-09
 0.69500003E+01 -0.66326E-08
 0.70000000E+01 -0.24771E-07
 0.70500002E+01 -0.20747E-07
 0.70999999E+01 -0.18407E-07
 0.71500001E+01 -0.17652E-07
 0.72000003E+01 -0.27192E-07
 0.72500000E+01 -0.23816E-07
 0.73000002E+01 -0.30861E-07
 0.73499999E+01 -0.72313E-07
 0.74000001E+01 -0.70204E-07
 0.74500003E+01 -0.48909E-07
 0.75000000E+01 -0.18292E-07
 0.75500002E+01 -0.29067E-08
 0.75999999E+01 -0.16644E-07
 0.76500001E+01 -0.27613E-07
 0.77000003E+01 -0.18127E-07
 0.77500000E+01 -0.45485E-08
 0.78000002E+01 -0.19312E-07
 0.78499999E+01 -0.16423E-07
 0.79000001E+01 -0.25964E-07
 0.79500003E+01 -0.15695E-07
 0.80000000E+01  0.80440E-08
 0.80500002E+01 -0.12021E-07
 0.81000004E+01 -0.89864E-08
 0.81500006E+01  0.51241E-08
 0.81999998E+01  0.74055E-08
 0.82500000E+01  0.13359E-07
 0.83000002E+01  0.25639E-07
 0.83500004E+01  0.36541E-07
 0.84000006E+01  0.42504E-07
 0.84499998E+01  0.41007E-07
 0.85000000E+01  0.38660E-07
 0.85500002E+01  0.25467E-07
 0.86000004E+01 -0.93148E-09
 0.86500006E+01  0.85928E-08
 0.86999998E+01  0.26406E-07
 0.87500000E+01  0.27128E-07
 0.88000002E+01  0.18102E-07
 0.88500004E+01  0.18169E-07
 0.89000006E+01  0.28512E-07
 0.89499998E+01  0.17599E-07
 0.90000000E+01  0.66435E-08
 0.90500002E+01  0.25797E-08
 0.91000004E+01  0.16611E-07
 0.91500006E+01  0.22051E-07
 0.91999998E+01  0.72414E-08
 0.92500000E+01  0.12931E-08
 0.93000002E+01  0.23479E-09
 0.93500004E+01  0.90723E-08
 0.94000006E+01  0.13058E-07
 0.94499998E+01  0.40765E-08
 0.95000000E+01  0.10067E-07
 0.95500002E+01  0.28356E-07
 0.96000004E+01  0.37172E-07
 0.96500006E+01  0.43018E-07
 0.96999998E+01  0.21699E-07
 0.97500000E+01  0.40584E-08
 0.98000002E+01  0.76744E-08
 0.98500004E+01 -0.11600E-07
 0.99000006E+01 -0.41782E-07
 0.99499998E+01 -0.72404E-07
 0.10000000E+02 -0.86544E-07
 0.10050000E+02 -0.87707E-07
 0.10100000E+02 -0.83632E-07
 0.10150001E+02 -0.81610E-07
 0.10200000E+02 -0.86471E-07
 0.10250000E+02 -0.91223E-07
 0.10300000E+02 -0.11078E-06
 0.10350000E+02 -0.11442E-06
 0.10400001E+02 -0.99305E-07
 0.10450000E+02 -0.72096E-07
 0.10500000E+02 -0.42497E-07
 0.10550000E+02 -0.28999E-07
 0.10600000E+02 -0.22462E-07
 0.10650001E+02 -0.25365E-07
 0.10700000E+02 -0.10250E-07
 0.10750000E+02  0.12027E-07
 0.10800000E+02  0.18038E-07
 0.10850000E+02  0.96373E-08
 0.10900001E+02  0.34757E-08
 0.10950000E+02  0.17043E-07
 0.11000000E+02  0.28826E-07
 0.11050000E+02  0.50276E-07
 0.11100000E+02  0.62219E-07
 0.11150001E+02  0.57889E-07
 0.11200000E+02  0.68259E-07
 0.11250000E+02  0.68156E-07
 0.11300000E+02  0.63886E-07
 0.11350000E+02  0.71906E-07
 0.11400001E+02  0.76677E-07
 0.11450000E+02  0.57686E-07
 0.11500000E+02  0.43732E-07
 0.11550000E+02  0.56378E-07
 0.11600000E+02  0.45340E-07
 0.11650001E+02  0.72122E-07
 0.11700000E+02  0.52358E-07
 0.11750000E+02  0.82197E-07
 0.11800000E+02  0.60406E-07
 0.11850000E+02  0.43484E-07
 0.11900001E+02  0.96837E-07
 0.11950000E+02 -0.67191E-08
 0.12000000E+02  0.18072E-06
 0.12050000E+02 -0.66282E-08
 0.12100000E+02 -0.57919E-08
 0.12150001E+02 -0.56227E-06
 0.12200000E+02 -0.13171E-05
 0.12250000E+02 -0.28933E-05
 0.12300000E+02 -0.11229E-04
 0.12350000E+02 -0.24948E-04
 0.12400001E+02 -0.18889E-04
 0.12450000E+02  0.17876E-04
 0.12500000E+02  0.30356E-04
 0.12550000E+02  0.32869E-04
 0.12600000E+02  0.56752E-04
 0.12650001E+02  0.17746E-04
 0.12700000E+02 -0.32164E-04
 0.12750000E+02 -0.17288E-04
 0.12800000E+02 -0.22803E-04
 0.12850000E+02 -0.37663E-04
 0.12900001E+02 -0.13395E-04
 0.12950000E+02 -0.11283E-05
 0.13000000E+02 -0.14302E-04
 0.13050000E+02 -0.84537E-05
 0.13100000E+02  0.42268E-05
 0.13150001E+02  0.31567E-05
 0.13200000E+02  0.18357E-04
 0.13250000E+02  0.30976E-04
 0.13300000E+02  0.20062E-04
 0.13350000E+02  0.16843E-04
 0.13400001E+02  0.10278E-05
 0.13450000E+02 -0.40530E-04
 0.13500000E+02 -0.48030E-04
 0.13550000E+02 -0.83149E-05
 0.13600000E+02  0.21155E-04
 0.13650001E+02  0.21048E-04
 0.13700000E+02  0.24730E-04
 0.13750000E+02  0.27359E-04
 0.13800000E+02  0.17137E-04
 0.13850000E+02  0.16047E-04
 0.13900001E+02  0.96671E-05
 0.13950000E+02 -0.32633E-04
 0.14000000E+02 -0.51081E-04
 0.14050000E+02 -0.26441E-04
 0.14100000E+02 -0.17111E-04
 0.14150001E+02 -0.15850E-04
 0.14200000E+02 -0.98250E-05
 0.14250000E+02 -0.65502E-05
 0.14300000E+02 -0.93060E-05
 0.14350000E+02  0.32570E-04
 0.14400001E+02  0.73173E-04
 0.14450000E+02  0.54814E-04
 0.14500000E+02  0.30535E-04
 0.14550000E+02 -0.34463E-04
 0.14600000E+02 -0.66566E-04
 0.14650001E+02 -0.16700E-04
 0.14700000E+02  0.66760E-05
 0.14750000E+02  0.11584E-04
 0.14800000E+02  0.23231E-04
 0.14850000E+02 -0.23131E-05
 0.14900001E+02 -0.30934E-04
 0.14950000E+02 -0.15037E-04
 0.15000000E+02 -0.28946E-04
 0.15050000E+02 -0.46455E-04
 0.15100000E+02  0.93163E-05
 0.15150001E+02  0.79083E-04
 0.15200000E+02  0.72710E-04
 0.15250000E+02 -0.11534E-05
 0.15300000E+02 -0.40931E-04
 0.15350000E+02 -0.45435E-04
 0.15400001E+02 -0.21951E-04
 0.15450000E+02  0.25503E-04
 0.15500000E+02  0.40071E-04
 0.15550000E+02  0.18299E-04
 0.15600000E+02 -0.79853E-05
 0.15650001E+02 -0.45542E-05
 0.15700000E+02 -0.88368E-05
 0.15750000E+02 -0.22301E-04
 0.15800000E+02 -0.10244E-04
 0.15850000E+02 -0.12003E-04
 0.15900001E+02 -0.11204E-04
 0.15950000E+02  0.10003E-04
 0.16000000E+02  0.26739E-04
 0.16050001E+02  0.15017E-04
 0.16100000E+02 -0.12499E-04
 0.16150000E+02 -0.26131E-04
 0.16200001E+02 -0.33603E-04
 0.16250000E+02 -0.16539E-06
 0.16300001E+02  0.46111E-04
 0.16350000E+02  0.42234E-04
 0.16400000E+02 -0.12733E-05
 0.16450001E+02 -0.17711E-04
 0.16500000E+02  0.10505E-04
 0.16550001E+02 -0.99570E-06
 0.16600000E+02 -0.25257E-04
 0.16650000E+02  0.50810E-05
 0.16700001E+02  0.31367E-04
 0.16750000E+02  0.15463E-04
 0.16800001E+02 -0.39862E-05
 0.16850000E+02 -0.23526E-04
 0.16900000E+02 -0.44947E-04
 0.16950001E+02 -0.37299E-04
 0.17000000E+02  0.12413E-04
 0.17050001E+02  0.45487E-04
 0.17100000E+02  0.74045E-05
 0.17150000E+02 -0.24951E-04
 0.17200001E+02 -0.22831E-04
 0.17250000E+02 -0.66181E-05
 0.17300001E+02  0.28924E-04
 0.17350000E+02  0.24700E-04
 0.17400000E+02  0.10199E-04
 0.17450001E+02  0.91842E-05
 0.17500000E+02 -0.82856E-05
 0.17550001E+02 -0.99621E-05
 0.17600000E+02  0.11302E-04
 0.17650000E+02  0.28203E-04
 0.17700001E+02 -0.23449E-06
 0.17750000E+02 -0.24363E-04
 0.17800001E+02 -0.14167E-04
 0.17850000E+02 -0.17046E-04
 0.17900000E+02 -0.86294E-05
 0.17950001E+02  0.91692E-05
 0.18000000E+02 -0.23206E-05
 0.18050001E+02 -0.29883E-04
 0.18100000E+02 -0.16980E-04
 0.18150000E+02  0.16805E-04
 0.18200001E+02  0.22431E-04
 0.18250000E+02  0.34390E-04
 0.18300001E+02  0.26280E-04
 0.18350000E+02 -0.75401E-05
 0.18400000E+02 -0.27722E-04
 0.18450001E+02 -0.34773E-04
 0.18500000E+02  0.82106E-06
 0.18550001E+02  0.18046E-04
 0.18600000E+02 -0.49498E-07
 0.18650000E+02  0.12508E-04
 0.18700001E+02  0.20189E-04
 0.18750000E+02  0.22361E-04
 0.18800001E+02  0.13040E-04
 0.18850000E+02 -0.14335E-04
 0.18900000E+02 -0.11291E-04
 0.18950001E+02  0.16491E-04
 0.19000000E+02  0.26541E-04
 0.19050001E+02 -0.22699E-04
 0.19100000E+02 -0.71782E-04
 0.19150000E+02 -0.62614E-04
 0.19200001E+02 -0.23480E-04
 0.19250000E+02  0.14163E-04
 0.19300001E+02  0.16867E-04
 0.19350000E+02  0.97424E-05
 0.19400000E+02  0.21810E-04
 0.19450001E+02  0.44302E-04
 0.19500000E+02  0.54854E-04
 0.19550001E+02  0.36108E-04
 0.19600000E+02 -0.73287E-05
 0.19650000E+02 -0.39461E-04
 0.19700001E+02 -0.33397E-04
 0.19750000E+02 -0.28214E-04
 0.19800001E+02 -0.32568E-04
 0.19850000E+02 -0.39992E-06
 0.19900000E+02  0.40967E-04
 0.19950001E+02  0.47375E-04
 0.20000000E+02  0.32968E-04
 0.20050001E+02 -0.17502E-04
 0.20100000E+02 -0.54866E-04
 0.20150000E+02 -0.24025E-04
 0.20200001E+02  0.31599E-04
 0.20250000E+02  0.36403E-04
 0.20300001E+02 -0.95944E-05
 0.20350000E+02 -0.46357E-04
 0.20400000E+02 -0.62561E-04
 0.20450001E+02 -0.19799E-04
 0.20500000E+02  0.61624E-04
 0.20550001E+02  0.11788E-03
 0.20600000E+02  0.11512E-03
 0.20650000E+02  0.48284E-04
 0.20700001E+02 -0.43883E-04
 0.20750000E+02 -0.85984E-04
 0.20800001E+02 -0.29920E-04
 0.20850000E+02  0.80740E-04
 0.20900000E+02  0.80027E-04
 0.20950001E+02 -0.11158E-03
 0.21000000E+02 -0.30143E-03
 0.21050001E+02 -0.37563E-03
 0.21100000E+02 -0.21536E-03
 0.21150000E+02  0.27096E-04
 0.21200001E+02  0.11258E-03
 0.21250000E+02  0.19280E-03
 0.21300001E+02  0.22960E-03
 0.21350000E+02  0.25235E-03
 0.21400000E+02  0.27137E-03
 0.21450001E+02  0.17729E-03
 0.21500000E+02  0.80511E-05
 0.21550001E+02 -0.15075E-03
 0.21600000E+02 -0.11628E-03
 0.21650000E+02 -0.21946E-04
 0.21700001E+02  0.49506E-05
 0.21750000E+02 -0.14425E-05
 0.21800001E+02 -0.46136E-04
 0.21850000E+02 -0.14926E-04
 0.21900000E+02 -0.13711E-04
 0.21950001E+02 -0.90395E-04
 0.22000000E+02 -0.14919E-03
 0.22050001E+02 -0.21706E-03
 0.22100000E+02 -0.15171E-03
 0.22150000E+02  0.40316E-04
 0.22200001E+02  0.81062E-04
 0.22250000E+02  0.66664E-04
 0.22300001E+02  0.78260E-04
 0.22350000E+02  0.61366E-04
 0.22400000E+02  0.17546E-03
 0.22450001E+02  0.23808E-03
 0.22500000E+02  0.93148E-04
 0.22550001E+02 -0.17728E-03
 0.22600000E+02 -0.34894E-03
 0.22650000E+02 -0.23429E-03
 0.22700001E+02 -0.89055E-04
 0.22750000E+02  0.12801E-03
 0.22800001E+02  0.32311E-03
 0.22850000E+02  0.33880E-03
 0.22900000E+02  0.37200E-03
 0.22950001E+02  0.25881E-03
 0.23000000E+02 -0.53934E-04
 0.23050001E+02 -0.45799E-03
 0.23100000E+02 -0.62534E-03
 0.23150000E+02 -0.44466E-03
 0.23200001E+02 -0.13941E-03
 0.23250000E+02  0.21389E-03
 0.23300001E+02  0.24332E-03
 0.23350000E+02  0.16664E-03
 0.23400000E+02  0.19050E-03
 0.23450001E+02  0.90176E-04
 0.23500000E+02  0.57494E-04
 0.23550001E+02  0.29803E-04
 0.23600000E+02  0.62239E-05
 0.23650000E+02 -0.20695E-04
 0.23700001E+02 -0.14454E-03
 0.23750000E+02 -0.20467E-03
 0.23800001E+02 -0.18084E-03
 0.23850000E+02 -0.45284E-04
 0.23900000E+02  0.10332E-03
 0.23950001E+02  0.15439E-03
 0.24000000E+02  0.16879E-03
 0.24050001E+02  0.11928E-03
 0.24100000E+02  0.15661E-04
 0.24150000E+02 -0.28586E-04
 0.24200001E+02 -0.34461E-04
 0.24250000E+02 -0.80325E-04
 0.24300001E+02 -0.98348E-04
 0.24350000E+02 -0.10130E-03
 0.24400000E+02 -0.64013E-04
 0.24450001E+02  0.90602E-04
 0.24500000E+02  0.24124E-03
 0.24550001E+02  0.19302E-03
 0.24600000E+02  0.49144E-05
 0.24650000E+02 -0.10590E-03
 0.24700001E+02 -0.13822E-03
 0.24750000E+02 -0.10094E-03
 0.24800001E+02 -0.55856E-04
 0.24850000E+02 -0.56734E-04
 0.24900000E+02 -0.10328E-03
 0.24950001E+02 -0.12013E-03
 0.25000000E+02  0.67149E-04
 0.25050001E+02  0.20558E-03
 0.25100000E+02  0.15699E-03
 0.25150000E+02  0.70089E-04
 0.25200001E+02 -0.49745E-04
 0.25250000E+02 -0.10540E-03
 0.25300001E+02 -0.15350E-04
 0.25350000E+02  0.12502E-03
 0.25400000E+02  0.59771E-04
 0.25450001E+02 -0.14798E-03
 0.25500000E+02 -0.17444E-03
 0.25550001E+02 -0.32601E-04
 0.25600000E+02  0.13360E-03
 0.25650000E+02  0.15061E-03
 0.25700001E+02  0.51203E-04
 0.25750000E+02  0.83864E-05
 0.25800001E+02 -0.12367E-04
 0.25850000E+02  0.29712E-04
 0.25900000E+02  0.75685E-04
 0.25950001E+02  0.66458E-05
 0.26000000E+02 -0.93348E-04
 0.26050001E+02 -0.14600E-03
 0.26100000E+02 -0.13501E-03
 0.26150000E+02 -0.87318E-04
 0.26200001E+02 -0.53713E-04
 0.26250000E+02 -0.11426E-04
 0.26300001E+02  0.41373E-04
 0.26350000E+02  0.52322E-04
 0.26400000E+02  0.71295E-04
 0.26450001E+02  0.87996E-04
 0.26500000E+02  0.92896E-04
 0.26550001E+02  0.74671E-04
 0.26600000E+02  0.18305E-04
 0.26650000E+02  0.28453E-04
 0.26700001E+02  0.40721E-04
 0.26750000E+02  0.38897E-05
 0.26800001E+02 -0.33685E-04
 0.26850000E+02 -0.84549E-04
 0.26900000E+02 -0.15537E-03
 0.26950001E+02 -0.17417E-03
 0.27000000E+02 -0.78145E-04
 0.27050001E+02  0.47934E-04
 0.27100000E+02  0.12213E-03
 0.27150000E+02  0.10041E-03
 0.27200001E+02  0.46443E-04
 0.27250000E+02  0.21820E-04
 0.27300001E+02  0.10079E-04
 0.27350000E+02  0.15551E-05
 0.27400000E+02 -0.20912E-04
 0.27450001E+02 -0.36681E-04
 0.27500000E+02 -0.45450E-04
 0.27550001E+02  0.45796E-05
 0.27600000E+02  0.62695E-04
 0.27650000E+02  0.70210E-04
 0.27700001E+02  0.80708E-04
 0.27750000E+02  0.57889E-04
 0.27800001E+02  0.60677E-05
 0.27850000E+02 -0.85521E-04
 0.27900000E+02 -0.17537E-03
 0.27950001E+02 -0.17206E-03
 0.28000000E+02 -0.76397E-04
 0.28050001E+02  0.80188E-04
 0.28100000E+02  0.18600E-03
 0.28150000E+02  0.16875E-03
 0.28200001E+02  0.59687E-04
 0.28250000E+02 -0.47571E-04
 0.28300001E+02 -0.64235E-04
 0.28350000E+02 -0.23741E-04
 0.28400000E+02 -0.33839E-04
 0.28450001E+02 -0.94261E-04
 0.28500000E+02 -0.88882E-04
 0.28550001E+02 -0.26252E-04
 0.28600000E+02  0.55004E-04
 0.28650000E+02  0.11943E-03
 0.28700001E+02  0.71572E-04
 0.28750000E+02 -0.29197E-04
 0.28800001E+02 -0.73964E-04
 0.28850000E+02 -0.32685E-04
 0.28900000E+02  0.43365E-04
 0.28950001E+02  0.10371E-03
 0.29000000E+02  0.11498E-03
 0.29050001E+02  0.12749E-04
 0.29100000E+02 -0.11027E-03
 0.29150000E+02 -0.16863E-03
 0.29200001E+02 -0.13833E-03
 0.29250000E+02 -0.27319E-04
 0.29300001E+02  0.84749E-04
 0.29350000E+02  0.16242E-03
 0.29400000E+02  0.12742E-03
 0.29450001E+02  0.35729E-04
 0.29500000E+02  0.12970E-05
 0.29550001E+02 -0.11674E-04
 0.29600000E+02 -0.19070E-04
 0.29650000E+02 -0.46504E-04
 0.29700001E+02 -0.10375E-03
 0.29750000E+02 -0.16075E-03
 0.29800001E+02 -0.20504E-03
 0.29850000E+02 -0.16106E-03
 0.29900000E+02 -0.34752E-04
 0.29950001E+02  0.77688E-04
 0.30000000E+02  0.16099E-03
 0.30050001E+02  0.19134E-03
 0.30100000E+02  0.15426E-03
 0.30150000E+02  0.10054E-03
 0.30200001E+02  0.65653E-04
 0.30250000E+02  0.33754E-04
 0.30300001E+02  0.21624E-04
 0.30350000E+02  0.22706E-04
 0.30400000E+02  0.38538E-05
 0.30450001E+02 -0.28865E-04
 0.30500000E+02 -0.84290E-04
 0.30550001E+02 -0.12779E-03
 0.30600000E+02 -0.12783E-03
 0.30650000E+02 -0.65084E-04
 0.30700001E+02  0.40479E-04
 0.30750000E+02  0.10676E-03
 0.30800001E+02  0.10427E-03
 0.30850000E+02  0.51112E-04
 0.30900000E+02 -0.12214E-04
 0.30950001E+02 -0.64239E-04
 0.31000000E+02 -0.95909E-04
 0.31050001E+02 -0.65916E-04
 0.31100000E+02 -0.86673E-05
 0.31150000E+02  0.50954E-05
 0.31200001E+02 -0.37969E-05
 0.31250000E+02 -0.12573E-04
 0.31300001E+02 -0.11273E-04
 0.31350000E+02  0.12498E-04
 0.31400000E+02  0.35384E-04
 0.31450001E+02  0.33916E-04
 0.31500000E+02  0.25518E-04
 0.31550001E+02  0.28888E-04
 0.31600000E+02  0.12820E-04
 0.31650000E+02 -0.13346E-04
 0.31700001E+02 -0.33947E-05
 0.31750000E+02  0.40196E-04
 0.31800001E+02  0.79923E-04
 0.31850000E+02  0.62781E-04
 0.31900000E+02  0.39682E-05
 0.31950001E+02 -0.32293E-04
 0.32000000E+02 -0.34464E-04
 0.32049999E+02 -0.22094E-04
 0.32100002E+02 -0.72659E-05
 0.32150002E+02 -0.16866E-04
 0.32200001E+02 -0.72032E-04
 0.32250000E+02 -0.10978E-03
 0.32299999E+02 -0.88999E-04
 0.32350002E+02 -0.42588E-04
 0.32400002E+02  0.30535E-05
 0.32450001E+02  0.32541E-04
 0.32500000E+02  0.53493E-04
 0.32549999E+02  0.79404E-04
 0.32600002E+02  0.91687E-04
 0.32650002E+02  0.61524E-04
 0.32700001E+02  0.10416E-04
 0.32750000E+02 -0.28800E-04
 0.32799999E+02 -0.41544E-04
 0.32850002E+02 -0.32528E-04
 0.32900002E+02 -0.24250E-04
 0.32950001E+02 -0.21012E-04
 0.33000000E+02 -0.58137E-05
 0.33049999E+02  0.43725E-04
 0.33100002E+02  0.55218E-04
 0.33150002E+02  0.24835E-04
 0.33200001E+02  0.16612E-04
 0.33250000E+02 -0.96923E-05
 0.33299999E+02 -0.35303E-04
 0.33350002E+02 -0.50796E-04
 0.33400002E+02 -0.38193E-04
 0.33450001E+02  0.33586E-05
 0.33500000E+02  0.32846E-04
 0.33549999E+02  0.41158E-04
 0.33600002E+02  0.79675E-05
 0.33650002E+02 -0.15083E-04
 0.33700001E+02 -0.25643E-04
 0.33750000E+02 -0.26050E-04
 0.33799999E+02 -0.87063E-05
 0.33850002E+02  0.55502E-06
 0.33900002E+02  0.97496E-05
 0.33950001E+02  0.24014E-04
 0.34000000E+02  0.38365E-04
 0.34049999E+02  0.17555E-04
 0.34100002E+02 -0.14748E-04
 0.34150002E+02 -0.21289E-04
 0.34200001E+02 -0.75816E-05
 0.34250000E+02  0.12326E-05
 0.34299999E+02 -0.17259E-05
 0.34350002E+02 -0.40814E-06
 0.34400002E+02 -0.56425E-05
 0.34450001E+02 -0.11889E-04
 0.34500000E+02 -0.13026E-04
 0.34549999E+02  0.10818E-04
 0.34600002E+02  0.33063E-04
 0.34650002E+02  0.19614E-04
 0.34700001E+02 -0.78704E-05
 0.34750000E+02 -0.36911E-04
 0.34799999E+02 -0.44523E-04
 0.34850002E+02 -0.33101E-04
 0.34900002E+02 -0.71059E-05
 0.34950001E+02  0.66934E-05
 0.35000000E+02 -0.35059E-05
 0.35049999E+02  0.94518E-05
 0.35100002E+02  0.25040E-04
 0.35150002E+02  0.19437E-04
 0.35200001E+02  0.25506E-04
 0.35250000E+02  0.37396E-04
 0.35299999E+02  0.24256E-04
 0.35350002E+02 -0.46920E-05
 0.35400002E+02 -0.21876E-05
 0.35450001E+02  0.38190E-04
 0.35500000E+02  0.50608E-04
 0.35549999E+02  0.25828E-04
 0.35600002E+02 -0.77788E-05
 0.35650002E+02 -0.42875E-04
 0.35700001E+02 -0.52004E-04
 0.35750000E+02 -0.40303E-04
 0.35799999E+02 -0.48239E-04
 0.35850002E+02 -0.73413E-04
 0.35900002E+02 -0.62286E-04
 0.35950001E+02 -0.11526E-04
 0.36000000E+02  0.44898E-04
 0.36049999E+02  0.66046E-04
 0.36100002E+02  0.33185E-04
 0.36150002E+02  0.38518E-05
 0.36200001E+02  0.35729E-05
 0.36250000E+02  0.72873E-06
 0.36299999E+02 -0.21268E-04
 0.36350002E+02 -0.36154E-04
 0.36400002E+02 -0.13468E-04
 0.36450001E+02  0.40705E-04
 0.36500000E+02  0.92420E-04
 0.36549999E+02  0.85810E-04
 0.36600002E+02  0.28144E-04
 0.36650002E+02 -0.23016E-04
 0.36700001E+02 -0.47365E-04
 0.36750000E+02 -0.33490E-04
 0.36799999E+02 -0.64386E-05
 0.36850002E+02 -0.49345E-05
 0.36900002E+02 -0.25734E-04
 0.36950001E+02 -0.36895E-04
 0.37000000E+02 -0.22402E-04
 0.37049999E+02 -0.23847E-05
 0.37100002E+02  0.18214E-04
 0.37150002E+02  0.26913E-04
 0.37200001E+02  0.13509E-05
 0.37250000E+02 -0.31235E-04
 0.37299999E+02 -0.24164E-04
 0.37350002E+02  0.50229E-05
 0.37400002E+02  0.12099E-04
 0.37450001E+02  0.39927E-05
 0.37500000E+02  0.87231E-05
 0.37549999E+02  0.23639E-04
 0.37600002E+02  0.26495E-04
 0.37650002E+02  0.41804E-05
 0.37700001E+02 -0.19471E-04
 0.37750000E+02  0.33569E-05
 0.37799999E+02  0.50203E-04
 0.37850002E+02  0.53240E-04
 0.37900002E+02  0.14977E-04
 0.37950001E+02 -0.32188E-04
 0.38000000E+02 -0.59079E-04
 0.38049999E+02 -0.52673E-04
 0.38100002E+02 -0.36157E-04
 0.38150002E+02 -0.16857E-04
 0.38200001E+02 -0.16514E-04
 0.38250000E+02 -0.74807E-05
 0.38299999E+02  0.27729E-04
 0.38350002E+02  0.33160E-04
 0.38400002E+02  0.15596E-04
 0.38450001E+02 -0.70271E-05
 0.38500000E+02 -0.16227E-04
 0.38549999E+02  0.80359E-05
 0.38600002E+02  0.39293E-04
 0.38650002E+02  0.43095E-04
 0.38700001E+02  0.24996E-04
 0.38750000E+02  0.37129E-05
 0.38799999E+02 -0.17451E-04
 0.38850002E+02 -0.22392E-04
 0.38900002E+02 -0.13689E-04
 0.38950001E+02 -0.16136E-04
 0.39000000E+02 -0.32240E-04
 0.39049999E+02 -0.34676E-04
 0.39100002E+02 -0.12360E-04
 0.39150002E+02  0.25623E-04
 0.39200001E+02  0.37446E-04
 0.39250000E+02  0.98356E-05
 0.39299999E+02 -0.12354E-04
 0.39350002E+02 -0.19185E-04
 0.39400002E+02 -0.65769E-05
 0.39450001E+02  0.86549E-05
 0.39500000E+02  0.21933E-04
 0.39549999E+02  0.17780E-04
 0.39600002E+02 -0.16692E-04
 0.39650002E+02 -0.24147E-04
 0.39700001E+02 -0.11814E-04
 0.39750000E+02 -0.12112E-07
 0.39799999E+02  0.46334E-05
 0.39850002E+02  0.75298E-05
 0.39900002E+02  0.21141E-04
 0.39950001E+02  0.20864E-04
 0.40000000E+02  0.21764E-04
 0.40049999E+02  0.19644E-04
 0.40100002E+02  0.93265E-05
 0.40150002E+02  0.53128E-05
 0.40200001E+02 -0.36148E-05
 0.40250000E+02 -0.99230E-05
 0.40299999E+02 -0.54403E-05
 0.40350002E+02 -0.24642E-05
 0.40400002E+02  0.10168E-05
 0.40450001E+02 -0.11263E-05
 0.40500000E+02 -0.25747E-04
 0.40549999E+02 -0.38456E-04
 0.40600002E+02 -0.27482E-04
 0.40650002E+02 -0.12354E-04
 0.40700001E+02 -0.42103E-05
 0.40750000E+02 -0.56557E-05
 0.40799999E+02  0.61099E-05
 0.40850002E+02  0.17602E-04
 0.40900002E+02  0.14505E-04
 0.40950001E+02  0.54463E-05
 0.41000000E+02  0.43987E-06
 0.41049999E+02 -0.10513E-05
 0.41100002E+02 -0.17665E-05
 0.41150002E+02  0.70160E-05
 0.41200001E+02  0.66269E-05
 0.41250000E+02 -0.55656E-06
 0.41299999E+02  0.38408E-05
 0.41350002E+02  0.12935E-04
 0.41400002E+02  0.20163E-04
 0.41450001E+02  0.18936E-04
 0.41500000E+02  0.38368E-06
 0.41549999E+02 -0.16989E-04
 0.41600002E+02 -0.19732E-04
 0.41650002E+02 -0.21258E-04
 0.41700001E+02 -0.14764E-04
 0.41750000E+02  0.18486E-05
 0.41799999E+02  0.18527E-04
 0.41850002E+02  0.19690E-04
 0.41900002E+02  0.23485E-07
 0.41950001E+02 -0.16880E-04
 0.42000000E+02 -0.25095E-04
 0.42049999E+02 -0.24611E-04
 0.42100002E+02 -0.18330E-04
 0.42150002E+02 -0.11480E-04
 0.42200001E+02  0.37282E-05
 0.42250000E+02  0.24765E-04
 0.42299999E+02  0.44419E-04
 0.42350002E+02  0.36356E-04
 0.42400002E+02  0.11297E-04
 0.42450001E+02  0.34011E-05
 0.42500000E+02 -0.20795E-05
 0.42549999E+02 -0.53585E-05
 0.42600002E+02  0.11695E-05
 0.42650002E+02  0.33892E-05
 0.42700001E+02  0.18438E-05
 0.42750000E+02  0.73425E-05
 0.42799999E+02  0.48852E-05
 0.42850002E+02 -0.38368E-05
 0.42900002E+02 -0.11781E-04
 0.42950001E+02 -0.30654E-04
 0.43000000E+02 -0.35363E-04
 0.43049999E+02 -0.16967E-04
 0.43100002E+02  0.94919E-05
 0.43150002E+02  0.29644E-04
 0.43200001E+02  0.30554E-04
 0.43250000E+02  0.15524E-04
 0.43299999E+02 -0.13632E-04
 0.43350002E+02 -0.32012E-04
 0.43400002E+02 -0.23026E-04
 0.43450001E+02 -0.18011E-05
 0.43500000E+02  0.14508E-04
 0.43549999E+02  0.11653E-04
 0.43600002E+02 -0.63044E-05
 0.43650002E+02 -0.24239E-04
 0.43700001E+02 -0.25540E-04
 0.43750000E+02 -0.10212E-04
 0.43799999E+02  0.15180E-04
 0.43850002E+02  0.41052E-04
 0.43900002E+02  0.42619E-04
 0.43950001E+02  0.31642E-04
 0.44000000E+02  0.22279E-04
 0.44049999E+02  0.23346E-05
 0.44100002E+02 -0.16538E-04
 0.44150002E+02 -0.19884E-04
 0.44200001E+02 -0.15359E-04
 0.44250000E+02 -0.16951E-04
 0.44299999E+02 -0.21493E-04
 0.44350002E+02 -0.21629E-04
 0.44400002E+02 -0.25035E-04
 0.44450001E+02 -0.21966E-04
 0.44500000E+02 -0.22864E-05
 0.44549999E+02  0.13125E-04
 0.44600002E+02  0.20993E-04
 0.44650002E+02  0.31971E-04
 0.44700001E+02  0.30567E-04
 0.44750000E+02  0.12066E-04
 0.44799999E+02  0.31564E-05
 0.44850002E+02  0.75871E-05
 0.44900002E+02  0.53892E-05
 0.44950001E+02 -0.70849E-05
 0.45000000E+02 -0.24822E-04
 0.45049999E+02 -0.30205E-04
 0.45100002E+02 -0.16939E-04
 0.45150002E+02  0.40296E-06
 0.45200001E+02  0.12285E-04
 0.45250000E+02  0.10051E-04
 0.45299999E+02 -0.13110E-05
 0.45350002E+02 -0.12218E-04
 0.45400002E+02 -0.13928E-04
 0.45450001E+02 -0.31730E-05
 0.45500000E+02  0.76489E-05
 0.45549999E+02  0.10590E-04
 0.45600002E+02  0.60138E-05
 0.45650002E+02  0.38084E-05
 0.45700001E+02 -0.67823E-07
 0.45750000E+02 -0.20949E-05
 0.45799999E+02  0.66660E-05
 0.45850002E+02  0.14244E-04
 0.45900002E+02  0.17192E-04
 0.45950001E+02  0.12020E-04
 0.46000000E+02  0.21839E-05
 0.46049999E+02 -0.81462E-05
 0.46100002E+02 -0.12439E-04
 0.46150002E+02 -0.10729E-04
 0.46200001E+02 -0.11113E-04
 0.46250000E+02 -0.59907E-05
 0.46299999E+02  0.45167E-05
 0.46350002E+02  0.12745E-04
 0.46400002E+02  0.93894E-05
 0.46450001E+02  0.63499E-06
 0.46500000E+02 -0.11394E-05
 0.46549999E+02 -0.64216E-06
 0.46600002E+02 -0.23227E-05
 0.46650002E+02 -0.51575E-06
 0.46700001E+02  0.31192E-05
 0.46750000E+02  0.15897E-06
 0.46799999E+02 -0.89630E-05
 0.46850002E+02 -0.16272E-04
 0.46900002E+02 -0.14356E-04
 0.46950001E+02 -0.89660E-05
 0.47000000E+02 -0.33593E-05
 0.47049999E+02 -0.15175E-05
 0.47100002E+02  0.52272E-05
 0.47150002E+02  0.20253E-04
 0.47200001E+02  0.25969E-04
 0.47250000E+02  0.26800E-04
 0.47299999E+02  0.13727E-04
 0.47350002E+02 -0.13917E-04
 0.47400002E+02 -0.27491E-04
 0.47450001E+02 -0.21385E-04
 0.47500000E+02 -0.42525E-05
 0.47549999E+02  0.94115E-05
 0.47600002E+02  0.54481E-05
 0.47650002E+02 -0.89817E-05
 0.47700001E+02 -0.18052E-04
 0.47750000E+02 -0.16799E-04
 0.47799999E+02 -0.81768E-05
 0.47850002E+02  0.20164E-05
 0.47900002E+02  0.12836E-04
 0.47950001E+02  0.19646E-04
 0.48000000E+02  0.16193E-04
 0.48049999E+02  0.10509E-04
 0.48100002E+02  0.75792E-05
 0.48150002E+02  0.24993E-05
 0.48200001E+02 -0.19250E-05
 0.48250000E+02 -0.24318E-05
 0.48299999E+02 -0.39379E-05
 0.48350002E+02 -0.33930E-07
 0.48400002E+02  0.48275E-05
 0.48450001E+02  0.52319E-05
 0.48500000E+02  0.59559E-05
 0.48549999E+02  0.86653E-06
 0.48600002E+02 -0.51258E-05
 0.48650002E+02 -0.12699E-04
 0.48700001E+02 -0.18034E-04
 0.48750000E+02 -0.16361E-04
 0.48799999E+02 -0.16090E-04
 0.48850002E+02 -0.15692E-04
 0.48900002E+02 -0.94508E-05
 0.48950001E+02  0.18091E-05
 0.49000000E+02  0.10917E-04
 0.49049999E+02  0.19766E-04
 0.49100002E+02  0.18634E-04
 0.49150002E+02  0.70496E-05
 0.49200001E+02  0.30497E-06
 0.49250000E+02 -0.10216E-05
 0.49299999E+02  0.68849E-05
 0.49350002E+02  0.24839E-04
 0.49400002E+02  0.34674E-04
 0.49450001E+02  0.18113E-04
 0.49500000E+02 -0.77086E-05
 0.49549999E+02 -0.22357E-04
 0.49600002E+02 -0.26670E-04
 0.49650002E+02 -0.23347E-04
 0.49700001E+02 -0.14674E-04
 0.49750000E+02 -0.29810E-05
 0.49799999E+02  0.39567E-05
 0.49850002E+02 -0.36126E-06
 0.49900002E+02 -0.82197E-05
 0.49950001E+02 -0.61079E-05
 0.50000000E+02  0.25751E-05
 0.50049999E+02  0.94709E-05
 0.50100002E+02  0.11668E-04
 0.50150002E+02  0.80999E-05
 0.50200001E+02  0.25246E-05
 0.50250000E+02  0.16432E-05
 0.50299999E+02  0.51741E-05
 0.50350002E+02  0.68308E-06
 0.50400002E+02 -0.12069E-04
 0.50450001E+02 -0.17699E-04
 0.50500000E+02 -0.77881E-05
 0.50549999E+02  0.72667E-05
 0.50600002E+02  0.21242E-04
 0.50650002E+02  0.27411E-04
 0.50700001E+02  0.10788E-04
 0.50750000E+02 -0.14060E-04
 0.50799999E+02 -0.22215E-04
 0.50850002E+02 -0.98906E-05
 0.50900002E+02  0.51501E-05
 0.50950001E+02  0.64050E-05
 0.51000000E+02 -0.38596E-07
 0.51049999E+02 -0.62786E-05
 0.51100002E+02 -0.11240E-04
 0.51150002E+02 -0.91832E-05
 0.51200001E+02 -0.45530E-05
 0.51250000E+02 -0.45685E-05
 0.51299999E+02 -0.59593E-05
 0.51350002E+02 -0.37888E-05
 0.51400002E+02  0.27866E-05
 0.51450001E+02  0.75285E-05
 0.51500000E+02  0.14149E-04
 0.51549999E+02  0.17174E-04
 0.51600002E+02  0.96551E-05
 0.51650002E+02  0.21470E-05
 0.51700001E+02  0.53409E-05
 0.51750000E+02  0.14320E-04
 0.51799999E+02  0.10011E-04
 0.51850002E+02 -0.70681E-05
 0.51900002E+02 -0.25434E-04
 0.51950001E+02 -0.30973E-04
 0.52000000E+02 -0.15759E-04
 0.52049999E+02  0.69970E-05
 0.52100002E+02  0.22629E-04
 0.52150002E+02  0.22686E-04
 0.52200001E+02  0.68065E-05
 0.52250000E+02 -0.11341E-04
 0.52299999E+02 -0.16093E-04
 0.52350002E+02 -0.11301E-04
 0.52400002E+02 -0.55760E-05
 0.52450001E+02 -0.48107E-06
 0.52500000E+02  0.71572E-06
 0.52549999E+02  0.32359E-05
 0.52600002E+02  0.78478E-05
 0.52650002E+02  0.81166E-05
 0.52700001E+02  0.63151E-05
 0.52750000E+02  0.70333E-05
 0.52799999E+02  0.93695E-05
 0.52850002E+02  0.33920E-05
 0.52900002E+02 -0.61698E-05
 0.52950001E+02 -0.99949E-05
 0.53000000E+02 -0.11863E-04
 0.53049999E+02 -0.10368E-04
 0.53100002E+02 -0.97893E-05
 0.53150002E+02 -0.98494E-05
 0.53200001E+02 -0.47167E-05
 0.53250000E+02  0.26848E-05
 0.53299999E+02  0.10056E-04
 0.53350002E+02  0.14726E-04
 0.53400002E+02  0.14930E-04
 0.53450001E+02  0.93170E-05
 0.53500000E+02  0.18180E-05
 0.53549999E+02 -0.16120E-05
 0.53600002E+02 -0.12035E-05
 0.53650002E+02  0.26085E-05
 0.53700001E+02  0.64141E-05
 0.53750000E+02  0.99676E-05
 0.53799999E+02  0.10926E-04
 0.53850002E+02  0.63747E-05
 0.53900002E+02  0.27083E-05
 0.53950001E+02 -0.29205E-05
 0.54000000E+02 -0.80469E-05
 0.54049999E+02 -0.10267E-04
 0.54100002E+02 -0.14626E-04
 0.54150002E+02 -0.18722E-04
 0.54200001E+02 -0.21641E-04
 0.54250000E+02 -0.19299E-04
 0.54299999E+02 -0.13552E-04
 0.54350002E+02 -0.11390E-04
 0.54400002E+02 -0.96683E-05
 0.54450001E+02 -0.19632E-05
 0.54500000E+02  0.85439E-05
 0.54549999E+02  0.15903E-04
 0.54600002E+02  0.19419E-04
 0.54650002E+02  0.20615E-04
 0.54700001E+02  0.19195E-04
 0.54750000E+02  0.15081E-04
 0.54799999E+02  0.10671E-04
 0.54850002E+02  0.41206E-05
 0.54900002E+02  0.37464E-07
 0.54950001E+02 -0.17525E-05
 0.55000000E+02 -0.51301E-05
 0.55049999E+02 -0.48603E-05
 0.55100002E+02 -0.33029E-05
 0.55150002E+02  0.30619E-05
 0.55200001E+02  0.98726E-05
 0.55250000E+02  0.50942E-05
 0.55299999E+02 -0.44474E-05
 0.55350002E+02 -0.12537E-04
 0.55400002E+02 -0.14655E-04
 0.55450001E+02 -0.13000E-04
 0.55500000E+02 -0.93020E-05
 0.55549999E+02 -0.23643E-05
 0.55600002E+02  0.98625E-06
 0.55650002E+02 -0.39511E-05
 0.55700001E+02 -0.16516E-04
 0.55750000E+02 -0.19672E-04
 0.55799999E+02 -0.66155E-05
 0.55850002E+02  0.11470E-04
 0.55900002E+02  0.26903E-04
 0.55950001E+02  0.29308E-04
 0.56000000E+02  0.17103E-04
 0.56049999E+02  0.30696E-05
 0.56100002E+02 -0.13748E-05
 0.56150002E+02  0.52827E-05
 0.56200001E+02  0.13734E-04
 0.56250000E+02  0.12431E-04
 0.56299999E+02  0.38250E-05
 0.56350002E+02 -0.67603E-05
 0.56400002E+02 -0.17655E-04
 0.56450001E+02 -0.20588E-04
 0.56500000E+02 -0.16727E-04
 0.56549999E+02 -0.15641E-04
 0.56600002E+02 -0.16593E-04
 0.56650002E+02 -0.14686E-04
 0.56700001E+02 -0.67808E-05
 0.56750000E+02  0.44756E-05
 0.56799999E+02  0.13896E-04
 0.56850002E+02  0.18662E-04
 0.56900002E+02  0.13332E-04
 0.56950001E+02  0.47029E-05
 0.57000000E+02  0.15395E-05
 0.57049999E+02  0.14712E-05
 0.57100002E+02  0.10706E-05
 0.57150002E+02 -0.11171E-05
 0.57200001E+02 -0.31007E-05
 0.57250000E+02 -0.40192E-05
 0.57299999E+02 -0.14774E-05
 0.57350002E+02  0.25793E-05
 0.57400002E+02  0.56664E-05
 0.57450001E+02  0.66442E-05
 0.57500000E+02  0.40219E-05
 0.57549999E+02  0.32960E-05
 0.57600002E+02  0.51086E-05
 0.57650002E+02  0.50074E-05
 0.57700001E+02  0.15376E-05
 0.57750000E+02 -0.28014E-06
 0.57799999E+02  0.19650E-05
 0.57850002E+02  0.27204E-05
 0.57900002E+02 -0.20634E-05
 0.57950001E+02 -0.91997E-05
 0.58000000E+02 -0.13088E-04
 0.58049999E+02 -0.15967E-04
 0.58100002E+02 -0.14955E-04
 0.58150002E+02 -0.54030E-05
 0.58200001E+02  0.65292E-05
 0.58250000E+02  0.16599E-04
 0.58299999E+02  0.19939E-04
 0.58350002E+02  0.13436E-04
 0.58400002E+02  0.27166E-05
 0.58450001E+02 -0.71162E-05
 0.58500000E+02 -0.75106E-05
 0.58549999E+02 -0.25242E-05
 0.58600002E+02 -0.61997E-05
 0.58650002E+02 -0.14480E-04
 0.58700001E+02 -0.19124E-04
 0.58750000E+02 -0.18047E-04
 0.58799999E+02 -0.89268E-05
 0.58850002E+02  0.68139E-05
 0.58900002E+02  0.14812E-04
 0.58950001E+02  0.10538E-04
 0.59000000E+02  0.40906E-05
 0.59049999E+02  0.30139E-05
 0.59100002E+02  0.74475E-05
 0.59150002E+02  0.98053E-05
 0.59200001E+02  0.11022E-04
 0.59250000E+02  0.10962E-04
 0.59299999E+02  0.79569E-05
 0.59350002E+02  0.38665E-05
 0.59400002E+02 -0.24664E-05
 0.59450001E+02 -0.99739E-05
 0.59500000E+02 -0.12270E-04
 0.59549999E+02 -0.60976E-05
 0.59600002E+02  0.15394E-05
 0.59650002E+02  0.46550E-05
 0.59700001E+02  0.33071E-05
 0.59750000E+02 -0.25759E-05
 0.59799999E+02 -0.10488E-04
 0.59850002E+02 -0.10797E-04
 0.59900002E+02 -0.33727E-05
 0.59950001E+02  0.39433E-05
 0.60000000E+02  0.81778E-05
 0.60049999E+02  0.91618E-05
 0.60100002E+02  0.89936E-05
 0.60150002E+02  0.85809E-05
 0.60200001E+02  0.45515E-05
 0.60250000E+02 -0.60312E-05
 0.60299999E+02 -0.16741E-04
 0.60350002E+02 -0.19600E-04
 0.60400002E+02 -0.12349E-04
 0.60450001E+02 -0.97277E-06
 0.60500000E+02  0.60158E-05
 0.60549999E+02  0.86725E-05
 0.60600002E+02  0.65661E-05
 0.60650002E+02  0.42368E-06
 0.60700001E+02 -0.56107E-05
 0.60750000E+02 -0.67036E-05
 0.60799999E+02  0.40933E-07
 0.60850002E+02  0.48393E-05
 0.60900002E+02  0.22291E-05
 0.60950001E+02 -0.22805E-05
 0.61000000E+02 -0.46241E-05
 0.61049999E+02 -0.43670E-05
 0.61100002E+02 -0.54075E-06
 0.61150002E+02  0.60256E-05
 0.61200001E+02  0.94617E-05
 0.61250000E+02  0.92844E-05
 0.61299999E+02  0.56111E-05
 0.61350002E+02  0.35869E-05
 0.61400002E+02  0.57615E-05
 0.61450001E+02  0.48216E-05
 0.61500000E+02 -0.16782E-06
 0.61549999E+02 -0.74102E-05
 0.61600002E+02 -0.13292E-04
 0.61650002E+02 -0.12701E-04
 0.61700001E+02 -0.60258E-05
 0.61750000E+02  0.29312E-05
 0.61799999E+02  0.10701E-04
 0.61850002E+02  0.11002E-04
 0.61900002E+02  0.51305E-05
 0.61950001E+02  0.46948E-06
 0.62000000E+02 -0.56192E-06
 0.62049999E+02  0.44937E-06
 0.62100002E+02 -0.65222E-06
 0.62150002E+02 -0.17265E-05
 0.62200001E+02 -0.15792E-05
 0.62250000E+02  0.59307E-06
 0.62299999E+02  0.47943E-05
 0.62350002E+02  0.57716E-05
 0.62400002E+02  0.50869E-06
 0.62450001E+02 -0.88095E-05
 0.62500000E+02 -0.13980E-04
 0.62549999E+02 -0.11889E-04
 0.62600002E+02 -0.54322E-05
 0.62650002E+02  0.11182E-05
 0.62700001E+02  0.25117E-05
 0.62750000E+02 -0.75883E-06
 0.62799999E+02 -0.14891E-05
 0.62850002E+02  0.36063E-05
 0.62900002E+02  0.10122E-04
 0.62950001E+02  0.11306E-04
 0.63000000E+02  0.74795E-05
 0.63049999E+02  0.34523E-05
 0.63100002E+02 -0.84226E-06
 0.63150002E+02 -0.52087E-05
 0.63200001E+02 -0.80023E-05
 0.63250000E+02 -0.54419E-05
 0.63299999E+02 -0.45960E-06
 0.63350002E+02  0.19025E-05
 0.63400002E+02  0.25924E-05
 0.63450001E+02 -0.71820E-06
 0.63500000E+02 -0.61980E-05
 0.63549999E+02 -0.97221E-05
 0.63600002E+02 -0.80900E-05
 0.63650002E+02  0.78846E-06
 0.63700001E+02  0.10077E-04
 0.63750000E+02  0.10296E-04
 0.63799999E+02  0.17754E-05
 0.63850002E+02 -0.45748E-05
 0.63900002E+02 -0.51648E-05
 0.63950001E+02 -0.30570E-05
 0.64000000E+02  0.87109E-06
 0.64050003E+02  0.22687E-05
 0.64099998E+02  0.89367E-06
 0.64150002E+02 -0.13180E-05
 0.64200005E+02 -0.16863E-05
 0.64250000E+02  0.24497E-05
 0.64300003E+02  0.71988E-05
 0.64349998E+02  0.96736E-05
 0.64400002E+02  0.69490E-05
 0.64450005E+02  0.12648E-05
 0.64500000E+02 -0.20117E-05
 0.64550003E+02 -0.35049E-05
 0.64599998E+02 -0.33082E-05
 0.64650002E+02 -0.18274E-05
 0.64700005E+02  0.21452E-05
 0.64750000E+02  0.65920E-05
 0.64800003E+02  0.48595E-05
 0.64849998E+02 -0.15612E-05
 0.64900002E+02 -0.74375E-05
 0.64950005E+02 -0.97926E-05
 0.65000000E+02 -0.81065E-05
 0.65050003E+02 -0.60923E-05
 0.65099998E+02 -0.59505E-05
 0.65150002E+02 -0.48526E-05
 0.65200005E+02 -0.45703E-06
 0.65250000E+02  0.51538E-05
 0.65300003E+02  0.83806E-05
 0.65349998E+02  0.10880E-04
 0.65400002E+02  0.12218E-04
 0.65450005E+02  0.65445E-05
 0.65500000E+02 -0.23953E-05
 0.65550003E+02 -0.68558E-05
 0.65599998E+02 -0.55174E-05
 0.65650002E+02 -0.20084E-05
 0.65700005E+02  0.16963E-07
 0.65750000E+02  0.21200E-06
 0.65800003E+02 -0.19293E-05
 0.65849998E+02 -0.72937E-05
 0.65900002E+02 -0.12258E-04
 0.65950005E+02 -0.10635E-04
 0.66000000E+02 -0.43799E-05
 0.66050003E+02  0.21560E-05
 0.66099998E+02  0.66686E-05
 0.66150002E+02  0.96092E-05
 0.66200005E+02  0.11625E-04
 0.66250000E+02  0.10702E-04
 0.66300003E+02  0.89952E-05
 0.66349998E+02  0.39608E-05
 0.66400002E+02 -0.44465E-05
 0.66450005E+02 -0.82224E-05
 0.66500000E+02 -0.57700E-05
 0.66550003E+02 -0.47266E-06
 0.66599998E+02  0.42608E-05
 0.66650002E+02  0.61010E-05
 0.66700005E+02  0.54056E-05
 0.66750000E+02  0.50450E-05
 0.66800003E+02  0.49139E-05
 0.66849998E+02  0.20484E-05
 0.66900002E+02 -0.20272E-05
 0.66950005E+02 -0.48956E-05
 0.67000000E+02 -0.65580E-05
 0.67050003E+02 -0.67319E-05
 0.67099998E+02 -0.61933E-05
 0.67150002E+02 -0.73610E-05
 0.67200005E+02 -0.10041E-04
 0.67250000E+02 -0.84391E-05
 0.67300003E+02 -0.15189E-05
 0.67349998E+02  0.28843E-05
 0.67400002E+02  0.14078E-05
 0.67450005E+02 -0.13312E-05
 0.67500000E+02 -0.10554E-05
 0.67550003E+02  0.25524E-05
 0.67599998E+02  0.71547E-05
 0.67650002E+02  0.95739E-05
 0.67700005E+02  0.84502E-05
 0.67750000E+02  0.50525E-05
 0.67800003E+02  0.27590E-05
 0.67849998E+02  0.20908E-05
 0.67900002E+02  0.37163E-06
 0.67950005E+02 -0.15245E-05
 0.68000000E+02 -0.27180E-05
 0.68050003E+02 -0.39586E-05
 0.68099998E+02 -0.39509E-05
 0.68150002E+02 -0.32783E-05
 0.68200005E+02 -0.34344E-05
 0.68250000E+02 -0.18100E-05
 0.68300003E+02  0.19117E-05
 0.68349998E+02  0.35742E-05
 0.68400002E+02  0.42549E-06
 0.68450005E+02 -0.40214E-05
 0.68500000E+02 -0.36123E-05
 0.68550003E+02 -0.52660E-06
 0.68599998E+02  0.10278E-05
 0.68650002E+02  0.17728E-05
 0.68700005E+02  0.34189E-05
 0.68750000E+02  0.41015E-05
 0.68800003E+02  0.19693E-05
 0.68849998E+02  0.40711E-06
 0.68900002E+02  0.29548E-06
 0.68950005E+02  0.11076E-05
 0.69000000E+02  0.20858E-05
 0.69050003E+02  0.14729E-05
 0.69099998E+02 -0.40708E-06
 0.69150002E+02 -0.25508E-05
 0.69200005E+02 -0.36073E-05
 0.69250000E+02 -0.30457E-05
 0.69300003E+02 -0.64730E-06
 0.69349998E+02  0.75475E-06
 0.69400002E+02  0.23331E-06
 0.69450005E+02  0.31748E-06
 0.69500000E+02  0.55557E-08
 0.69550003E+02 -0.16595E-05
 0.69599998E+02 -0.39023E-05
 0.69650002E+02 -0.51439E-05
 0.69700005E+02 -0.49784E-05
 0.69750000E+02 -0.29855E-05
 0.69800003E+02  0.18968E-05
 0.69849998E+02  0.81923E-05
 0.69900002E+02  0.11804E-04
 0.69950005E+02  0.91606E-05
 0.70000000E+02  0.27408E-05
 0.70050003E+02 -0.33363E-05
 0.70099998E+02 -0.76151E-05
 0.70150002E+02 -0.86130E-05
 0.70200005E+02 -0.59672E-05
 0.70250000E+02 -0.19700E-05
 0.70300003E+02  0.52803E-06
 0.70349998E+02  0.20556E-07
 0.70400002E+02 -0.18633E-05
 0.70450005E+02 -0.88136E-06
 0.70500000E+02  0.21572E-05
 0.70550003E+02  0.44587E-05
 0.70599998E+02  0.63680E-05
 0.70650002E+02  0.63567E-05
 0.70700005E+02  0.36689E-05
 0.70750000E+02  0.59857E-06
 0.70800003E+02 -0.98194E-06
 0.70849998E+02 -0.10827E-05
 0.70900002E+02  0.51132E-06
 0.70950005E+02  0.36723E-05
 0.71000000E+02  0.49660E-05
 0.71050003E+02  0.37831E-05
 0.71099998E+02  0.18306E-05
 0.71150002E+02 -0.81969E-06
 0.71200005E+02 -0.33836E-05
 0.71250000E+02 -0.53514E-05
 0.71300003E+02 -0.50477E-05
 0.71349998E+02 -0.37666E-05
 0.71400002E+02 -0.45274E-05
 0.71450005E+02 -0.56338E-05
 0.71500000E+02 -0.57366E-05
 0.71550003E+02 -0.51091E-05
 0.71599998E+02 -0.24734E-05
 0.71650002E+02  0.23722E-05
 0.71700005E+02  0.74837E-05
 0.71750000E+02  0.11002E-04
 0.71800003E+02  0.10903E-04
 0.71849998E+02  0.66242E-05
 0.71900002E+02 -0.11431E-05
 0.71950005E+02 -0.95430E-05
 0.72000000E+02 -0.14425E-04
 0.72050003E+02 -0.13630E-04
 0.72099998E+02 -0.77855E-05
 0.72150002E+02 -0.13523E-05
 0.72200005E+02  0.28902E-05
 0.72250000E+02  0.56195E-05
 0.72300003E+02  0.80809E-05
 0.72349998E+02  0.93485E-05
 0.72400002E+02  0.75922E-05
 0.72450005E+02  0.43010E-05
 0.72500000E+02  0.15281E-05
 0.72550003E+02  0.11255E-05
 0.72599998E+02  0.25517E-05
 0.72650002E+02  0.31772E-05
 0.72700005E+02  0.18426E-05
 0.72750000E+02 -0.23988E-05
 0.72800003E+02 -0.68273E-05
 0.72849998E+02 -0.86169E-05
 0.72900002E+02 -0.81529E-05
 0.72950005E+02 -0.55664E-05
 0.73000000E+02 -0.16414E-05
 0.73050003E+02  0.27485E-05
 0.73099998E+02  0.58705E-05
 0.73150002E+02  0.69098E-05
 0.73200005E+02  0.57363E-05
 0.73250000E+02  0.27074E-05
 0.73300003E+02 -0.12151E-05
 0.73349998E+02 -0.58863E-05
 0.73400002E+02 -0.81503E-05
 0.73450005E+02 -0.56965E-05
 0.73500000E+02 -0.52834E-06
 0.73550003E+02  0.41073E-05
 0.73599998E+02  0.59705E-05
 0.73650002E+02  0.38727E-05
 0.73700005E+02 -0.98449E-06
 0.73750000E+02 -0.28506E-05
 0.73800003E+02 -0.13469E-05
 0.73849998E+02 -0.15836E-06
 0.73900002E+02  0.14459E-05
 0.73950005E+02  0.24178E-05
 0.74000000E+02  0.17500E-05
 0.74050003E+02 -0.16206E-06
 0.74099998E+02 -0.20593E-05
 0.74150002E+02 -0.16563E-05
 0.74200005E+02  0.13439E-06
 0.74250000E+02  0.81118E-06
 0.74300003E+02 -0.47109E-06
 0.74349998E+02 -0.15112E-05
 0.74400002E+02 -0.61385E-06
 0.74450005E+02  0.13637E-05
 0.74500000E+02  0.22958E-05
 0.74550003E+02  0.13104E-05
 0.74599998E+02  0.25369E-06
 0.74650002E+02  0.36609E-06
 0.74700005E+02  0.78412E-06
 0.74750000E+02  0.57637E-06
 0.74800003E+02  0.14686E-05
 0.74849998E+02  0.39986E-05
 0.74900002E+02  0.51204E-05
 0.74950005E+02  0.33744E-05
 0.75000000E+02 -0.43959E-07
 0.75050003E+02 -0.29997E-05
 0.75099998E+02 -0.44488E-05
 0.75150002E+02 -0.49642E-05
 0.75200005E+02 -0.48960E-05
 0.75250000E+02 -0.39574E-05
 0.75300003E+02 -0.26799E-05
 0.75349998E+02 -0.27781E-05
 0.75400002E+02 -0.36171E-05
 0.75450005E+02 -0.28549E-05
 0.75500000E+02 -0.77419E-06
 0.75550003E+02  0.50171E-06
 0.75599998E+02  0.91261E-06
 0.75650002E+02  0.24838E-05
 0.75700005E+02  0.45506E-05
 0.75750000E+02  0.56196E-05
 0.75800003E+02  0.52890E-05
 0.75849998E+02  0.29189E-05
 0.75900002E+02  0.76672E-06
 0.75950005E+02  0.50046E-08
 0.76000000E+02 -0.82178E-06
 0.76050003E+02 -0.17281E-05
 0.76099998E+02 -0.18292E-05
 0.76150002E+02 -0.15021E-05
 0.76200005E+02 -0.23851E-05
 0.76250000E+02 -0.30678E-05
 0.76300003E+02 -0.27726E-05
 0.76349998E+02 -0.17910E-05
 0.76400002E+02  0.13036E-05
 0.76450005E+02  0.54978E-05
 0.76500000E+02  0.83661E-05
 0.76550003E+02  0.74071E-05
 0.76599998E+02  0.32881E-05
 0.76650002E+02 -0.90786E-06
 0.76700005E+02 -0.33636E-05
 0.76750000E+02 -0.33573E-05
 0.76800003E+02 -0.25979E-05
 0.76849998E+02 -0.33035E-05
 0.76900002E+02 -0.52864E-05
 0.76950005E+02 -0.60925E-05
 0.77000000E+02 -0.37732E-05
 0.77050003E+02  0.82778E-06
 0.77099998E+02  0.48115E-05
 0.77150002E+02  0.59142E-05
 0.77200005E+02  0.33510E-05
 0.77250000E+02 -0.11461E-05
 0.77300003E+02 -0.34968E-05
 0.77349998E+02 -0.27673E-05
 0.77400002E+02 -0.14401E-05
 0.77450005E+02 -0.73610E-06
 0.77500000E+02  0.29517E-06
 0.77550003E+02  0.21368E-05
 0.77599998E+02  0.35624E-05
 0.77650002E+02  0.37823E-05
 0.77700005E+02  0.24935E-05
 0.77750000E+02  0.31475E-06
 0.77800003E+02 -0.18322E-05
 0.77849998E+02 -0.34949E-05
 0.77900002E+02 -0.32046E-05
 0.77950005E+02 -0.10692E-05
 0.78000000E+02  0.71619E-06
 0.78050003E+02  0.49137E-06
 0.78099998E+02 -0.15205E-05
 0.78150002E+02 -0.39641E-05
 0.78200005E+02 -0.40140E-05
 0.78250000E+02  0.84615E-08
 0.78300003E+02  0.50775E-05
 0.78349998E+02  0.72415E-05
 0.78400002E+02  0.52141E-05
 0.78450005E+02  0.18400E-05
 0.78500000E+02 -0.44957E-06
 0.78550003E+02 -0.15364E-05
 0.78599998E+02 -0.92572E-06
 0.78650002E+02  0.67687E-06
 0.78700005E+02  0.22513E-05
 0.78750000E+02  0.27364E-05
 0.78800003E+02  0.10989E-05
 0.78849998E+02 -0.22558E-05
 0.78900002E+02 -0.52804E-05
 0.78950005E+02 -0.45407E-05
 0.79000000E+02 -0.88071E-06
 0.79050003E+02  0.14643E-05
 0.79099998E+02  0.18542E-05
 0.79150002E+02  0.72623E-06
 0.79200005E+02 -0.38798E-06
 0.79250000E+02 -0.63470E-06
 0.79300003E+02 -0.13331E-05
 0.79349998E+02 -0.27111E-05
 0.79400002E+02 -0.38277E-05
 0.79450005E+02 -0.28134E-05
 0.79500000E+02 -0.10422E-05
 0.79550003E+02 -0.21248E-06
 0.79599998E+02 -0.16640E-06
 0.79650002E+02 -0.13494E-05
 0.79700005E+02 -0.28559E-05
 0.79750000E+02 -0.27419E-05
 0.79800003E+02 -0.14830E-06
 0.79849998E+02  0.28686E-05
 0.79900002E+02  0.54814E-05
 0.79950005E+02  0.78826E-05
 0.80000000E+02  0.94429E-05
 0.80050003E+02  0.10258E-04
 0.80099998E+02  0.91788E-05
 0.80150002E+02  0.52253E-05
 0.80200005E+02 -0.98950E-06
 0.80250000E+02 -0.62155E-05
 0.80300003E+02 -0.84987E-05
 0.80349998E+02 -0.94290E-05
 0.80400002E+02 -0.93486E-05
 0.80450005E+02 -0.74997E-05
 0.80500000E+02 -0.35423E-05
 0.80550003E+02  0.70943E-06
 0.80599998E+02  0.26343E-05
 0.80650002E+02  0.20349E-05
 0.80700005E+02  0.61426E-06
 0.80750000E+02  0.21190E-06
 0.80800003E+02  0.11815E-05
 0.80849998E+02  0.20154E-05
 0.80900002E+02  0.87896E-06
 0.80950005E+02 -0.82634E-06
 0.81000000E+02 -0.99487E-06
 0.81050003E+02 -0.73380E-06
 0.81099998E+02 -0.93395E-06
 0.81150002E+02 -0.90592E-06
 0.81200005E+02 -0.20938E-06
 0.81250000E+02  0.72997E-06
 0.81300003E+02  0.14003E-05
 0.81349998E+02  0.18995E-05
 0.81400002E+02  0.28941E-05
 0.81450005E+02  0.48467E-05
 0.81500000E+02  0.67124E-05
 0.81550003E+02  0.71435E-05
 0.81599998E+02  0.51012E-05
 0.81650002E+02  0.66213E-06
 0.81700005E+02 -0.33838E-05
 0.81750000E+02 -0.51383E-05
 0.81800003E+02 -0.53126E-05
 0.81849998E+02 -0.45829E-05
 0.81900002E+02 -0.36383E-05
 0.81950005E+02 -0.36353E-05
 0.82000000E+02 -0.51911E-05
 0.82050003E+02 -0.67324E-05
 0.82099998E+02 -0.49355E-05
 0.82150002E+02 -0.14499E-06
 0.82200005E+02  0.35970E-05
 0.82250000E+02  0.41184E-05
 0.82300003E+02  0.15638E-05
 0.82349998E+02 -0.81338E-06
 0.82400002E+02 -0.90817E-06
 0.82450005E+02  0.12711E-06
 0.82500000E+02  0.20697E-05
 0.82550003E+02  0.32316E-05
 0.82599998E+02  0.33323E-05
 0.82650002E+02  0.35449E-05
 0.82700005E+02  0.36988E-05
 0.82750000E+02  0.36646E-05
 0.82800003E+02  0.29231E-05
 0.82849998E+02  0.11206E-05
 0.82900002E+02 -0.15287E-05
 0.82950005E+02 -0.27186E-05
 0.83000000E+02 -0.15374E-05
 0.83050003E+02  0.79388E-06
 0.83099998E+02  0.26064E-05
 0.83150002E+02  0.20377E-05
 0.83200005E+02  0.54776E-06
 0.83250000E+02 -0.79855E-06
 0.83300003E+02 -0.23174E-05
 0.83349998E+02 -0.31340E-05
 0.83400002E+02 -0.37079E-05
 0.83450005E+02 -0.40273E-05
 0.83500000E+02 -0.26843E-05
 0.83550003E+02 -0.68115E-06
 0.83599998E+02  0.13195E-06
 0.83650002E+02 -0.52139E-06
 0.83700005E+02 -0.15018E-05
 0.83750000E+02 -0.17903E-05
 0.83800003E+02 -0.19240E-05
 0.83849998E+02 -0.18402E-05
 0.83900002E+02 -0.16400E-05
 0.83950005E+02 -0.12924E-05
 0.84000000E+02 -0.30707E-06
 0.84050003E+02  0.91623E-06
 0.84099998E+02  0.22098E-05
 0.84150002E+02  0.31530E-05
 0.84200005E+02  0.26977E-05
 0.84250000E+02  0.14026E-05
 0.84300003E+02  0.10801E-05
 0.84349998E+02  0.10000E-05
 0.84400002E+02  0.61760E-06
 0.84450005E+02  0.45651E-06
 0.84500000E+02  0.64549E-06
 0.84550003E+02  0.15101E-05
 0.84599998E+02  0.21778E-05
 0.84650002E+02  0.22449E-05
 0.84700005E+02  0.11957E-05
 0.84750000E+02 -0.85672E-06
 0.84800003E+02 -0.24376E-05
 0.84849998E+02 -0.31215E-05
 0.84900002E+02 -0.33050E-05
 0.84950005E+02 -0.29798E-05
 0.85000000E+02 -0.14766E-05
 0.85050003E+02  0.40318E-06
 0.85099998E+02  0.12796E-05
 0.85150002E+02  0.11759E-05
 0.85200005E+02  0.10458E-05
 0.85250000E+02  0.18917E-05
 0.85300003E+02  0.33580E-05
 0.85349998E+02  0.48672E-05
 0.85400002E+02  0.59450E-05
 0.85450005E+02  0.57544E-05
 0.85500000E+02  0.42103E-05
 0.85550003E+02  0.13558E-05
 0.85599998E+02 -0.15071E-05
 0.85650002E+02 -0.31688E-05
 0.85700005E+02 -0.43044E-05
 0.85750000E+02 -0.43027E-05
 0.85800003E+02 -0.31150E-05
 0.85849998E+02 -0.21186E-05
 0.85900002E+02 -0.16304E-05
 0.85950005E+02 -0.19160E-05
 0.86000000E+02 -0.29868E-05
 0.86050003E+02 -0.37737E-05
 0.86099998E+02 -0.31979E-05
 0.86150002E+02 -0.12275E-05
 0.86200005E+02  0.11865E-05
 0.86250000E+02  0.25374E-05
 0.86300003E+02  0.19604E-05
 0.86349998E+02  0.50735E-06
 0.86400002E+02 -0.85056E-06
 0.86450005E+02 -0.16420E-05
 0.86500000E+02 -0.50512E-06
 0.86550003E+02  0.17031E-05
 0.86599998E+02  0.29686E-05
 0.86650002E+02  0.29229E-05
 0.86700005E+02  0.18353E-05
 0.86750000E+02  0.26085E-06
 0.86800003E+02 -0.17526E-05
 0.86849998E+02 -0.32674E-05
 0.86900002E+02 -0.29047E-05
 0.86950005E+02 -0.10008E-05
 0.87000000E+02  0.14401E-05
 0.87050003E+02  0.32159E-05
 0.87099998E+02  0.30111E-05
 0.87150002E+02  0.13157E-05
 0.87200005E+02 -0.52765E-06
 0.87250000E+02 -0.14555E-05
 0.87300003E+02 -0.83395E-06
 0.87349998E+02  0.72199E-07
 0.87400002E+02  0.20863E-06
 0.87450005E+02 -0.14367E-06
 0.87500000E+02 -0.73821E-06
 0.87550003E+02 -0.15411E-05
 0.87599998E+02 -0.13563E-05
 0.87650002E+02  0.23435E-06
 0.87700005E+02  0.23287E-05
 0.87750000E+02  0.39330E-05
 0.87800003E+02  0.27514E-05
 0.87849998E+02 -0.34998E-06
 0.87900002E+02 -0.28579E-05
 0.87950005E+02 -0.41666E-05
 0.88000000E+02 -0.43069E-05
 0.88050003E+02 -0.41002E-05
 0.88099998E+02 -0.33592E-05
 0.88150002E+02 -0.18821E-05
 0.88200005E+02  0.54542E-07
 0.88250000E+02  0.17556E-05
 0.88300003E+02  0.27724E-05
 0.88349998E+02  0.43628E-05
 0.88400002E+02  0.64079E-05
 0.88450005E+02  0.72429E-05
 0.88500000E+02  0.62968E-05
 0.88550003E+02  0.40873E-05
 0.88599998E+02  0.17740E-05
 0.88650002E+02 -0.31628E-06
 0.88700005E+02 -0.24712E-05
 0.88750000E+02 -0.39172E-05
 0.88800003E+02 -0.38829E-05
 0.88849998E+02 -0.26167E-05
 0.88900002E+02 -0.12394E-05
 0.88950005E+02 -0.11166E-05
 0.89000000E+02 -0.21333E-05
 0.89050003E+02 -0.26445E-05
 0.89099998E+02 -0.29351E-05
 0.89150002E+02 -0.37876E-05
 0.89200005E+02 -0.44284E-05
 0.89250000E+02 -0.43339E-05
 0.89300003E+02 -0.26408E-05
 0.89349998E+02  0.57728E-06
 0.89400002E+02  0.37978E-05
 0.89450005E+02  0.55722E-05
 0.89500000E+02  0.52265E-05
 0.89550003E+02  0.38084E-05
 0.89599998E+02  0.28895E-05
 0.89650002E+02  0.24281E-05
 0.89700005E+02  0.19706E-05
 0.89750000E+02  0.17727E-05
 0.89800003E+02  0.17209E-05
 0.89849998E+02  0.15217E-05
 0.89900002E+02  0.46663E-06
 0.89950005E+02 -0.18825E-05
 0.90000000E+02 -0.41408E-05
 0.90050003E+02 -0.47947E-05
 0.90099998E+02 -0.39864E-05
 0.90150002E+02 -0.25066E-05
 0.90200005E+02 -0.62963E-06
 0.90250000E+02  0.86217E-06
 0.90300003E+02  0.11442E-05
 0.90349998E+02  0.32893E-06
 0.90400002E+02 -0.14825E-05
 0.90450005E+02 -0.29329E-05
 0.90500000E+02 -0.27554E-05
 0.90550003E+02 -0.82820E-06
 0.90599998E+02  0.18976E-05
 0.90650002E+02  0.29362E-05
 0.90700005E+02  0.21743E-05
 0.90750000E+02  0.11572E-05
 0.90800003E+02  0.44176E-06
 0.90849998E+02  0.49792E-07
 0.90900002E+02  0.11573E-06
 0.90950005E+02  0.13126E-05
 0.91000000E+02  0.31915E-05
 0.91050003E+02  0.43598E-05
 0.91099998E+02  0.43338E-05
 0.91150002E+02  0.31274E-05
 0.91200005E+02  0.92965E-06
 0.91250000E+02 -0.13454E-05
 0.91300003E+02 -0.23776E-05
 0.91349998E+02 -0.24554E-05
 0.91400002E+02 -0.29390E-05
 0.91450005E+02 -0.34068E-05
 0.91500000E+02 -0.33433E-05
 0.91550003E+02 -0.29271E-05
 0.91599998E+02 -0.23380E-05
 0.91650002E+02 -0.13073E-05
 0.91700005E+02  0.21896E-06
 0.91750000E+02  0.12400E-05
 0.91800003E+02  0.20670E-05
 0.91849998E+02  0.26948E-05
 0.91900002E+02  0.17409E-05
 0.91950005E+02 -0.78583E-06
 0.92000000E+02 -0.31493E-05
 0.92050003E+02 -0.34338E-05
 0.92099998E+02 -0.12815E-05
 0.92150002E+02  0.14719E-05
 0.92200005E+02  0.22802E-05
 0.92250000E+02  0.11000E-05
 0.92300003E+02  0.46460E-07
 0.92349998E+02 -0.79264E-07
 0.92400002E+02  0.23359E-06
 0.92450005E+02  0.18823E-06
 0.92500000E+02 -0.62197E-06
 0.92550003E+02 -0.16688E-05
 0.92599998E+02 -0.14618E-05
 0.92650002E+02  0.64777E-06
 0.92700005E+02  0.22538E-05
 0.92750000E+02  0.19201E-05
 0.92800003E+02  0.81418E-06
 0.92849998E+02 -0.11405E-06
 0.92900002E+02 -0.75773E-06
 0.92950005E+02 -0.13754E-05
 0.93000000E+02 -0.14955E-05
 0.93050003E+02 -0.67839E-06
 0.93099998E+02  0.80660E-06
 0.93150002E+02  0.26197E-05
 0.93200005E+02  0.42371E-05
 0.93250000E+02  0.47931E-05
 0.93300003E+02  0.40035E-05
 0.93349998E+02  0.23920E-05
 0.93400002E+02  0.72835E-06
 0.93450005E+02 -0.19629E-06
 0.93500000E+02 -0.55010E-06
 0.93550003E+02 -0.66767E-06
 0.93599998E+02 -0.71137E-06
 0.93650002E+02 -0.10548E-05
 0.93700005E+02 -0.14865E-05
 0.93750000E+02 -0.20845E-05
 0.93800003E+02 -0.32906E-05
 0.93849998E+02 -0.46220E-05
 0.93900002E+02 -0.47010E-05
 0.93950005E+02 -0.30451E-05
 0.94000000E+02 -0.39725E-06
 0.94050003E+02  0.19120E-05
 0.94099998E+02  0.24683E-05
 0.94150002E+02  0.15373E-05
 0.94200005E+02  0.13213E-06
 0.94250000E+02 -0.92212E-06
 0.94300003E+02 -0.87548E-06
 0.94349998E+02 -0.40083E-06
 0.94400002E+02 -0.25487E-08
 0.94450005E+02  0.10248E-05
 0.94500000E+02  0.22504E-05
 0.94550003E+02  0.28982E-05
 0.94599998E+02  0.28864E-05
 0.94650002E+02  0.14712E-05
 0.94700005E+02 -0.10001E-05
 0.94750000E+02 -0.26312E-05
 0.94800003E+02 -0.29361E-05
 0.94849998E+02 -0.23075E-05
 0.94900002E+02 -0.11265E-05
 0.94950005E+02 -0.41814E-06
 0.95000000E+02 -0.51345E-06
 0.95050003E+02 -0.94429E-06
 0.95099998E+02 -0.12522E-05
 0.95150002E+02 -0.12597E-05
 0.95200005E+02 -0.73972E-06
 0.95250000E+02  0.59020E-06
 0.95300003E+02  0.18366E-05
 0.95349998E+02  0.23861E-05
 0.95400002E+02  0.24823E-05
 0.95450005E+02  0.21996E-05
 0.95500000E+02  0.20101E-05
 0.95550003E+02  0.21164E-05
 0.95599998E+02  0.19914E-05
 0.95650002E+02  0.10542E-05
 0.95700005E+02 -0.34444E-06
 0.95750000E+02 -0.14083E-05
 0.95800003E+02 -0.22721E-05
 0.95849998E+02 -0.29249E-05
 0.95900002E+02 -0.32796E-05
 0.95950005E+02 -0.32782E-05
 0.96000000E+02 -0.23602E-05
 0.96050003E+02 -0.49583E-06
 0.96099998E+02  0.17511E-05
 0.96150002E+02  0.30709E-05
 0.96200005E+02  0.29851E-05
 0.96250000E+02  0.26645E-05
 0.96300003E+02  0.22401E-05
 0.96349998E+02  0.95803E-06
 0.96400002E+02 -0.70269E-06
 0.96450005E+02 -0.15206E-05
 0.96500000E+02 -0.10042E-05
 0.96550003E+02  0.28202E-06
 0.96599998E+02  0.11622E-05
 0.96650002E+02  0.79930E-06
 0.96700005E+02 -0.45719E-06
 0.96750000E+02 -0.15693E-05
 0.96800003E+02 -0.19311E-05
 0.96849998E+02 -0.13494E-05
 0.96900002E+02 -0.29971E-06
 0.96950005E+02  0.57432E-06
 0.97000000E+02  0.12003E-05
 0.97050003E+02  0.11033E-05
 0.97099998E+02  0.16454E-06
 0.97150002E+02 -0.99393E-06
 0.97200005E+02 -0.16228E-05
 0.97250000E+02 -0.14405E-05
 0.97300003E+02 -0.74074E-06
 0.97349998E+02  0.56630E-06
 0.97400002E+02  0.15876E-05
 0.97450005E+02  0.15665E-05
 0.97500000E+02  0.10521E-05
 0.97550003E+02  0.16533E-06
 0.97599998E+02 -0.45195E-06
 0.97650002E+02 -0.43013E-06
 0.97700005E+02 -0.22108E-06
 0.97750000E+02 -0.10420E-06
 0.97800003E+02 -0.71410E-07
 0.97849998E+02  0.28591E-06
 0.97900002E+02  0.34304E-06
 0.97950005E+02 -0.95387E-07
 0.98000000E+02 -0.24305E-06
 0.98050003E+02 -0.83981E-07
 0.98099998E+02  0.69987E-06
 0.98150002E+02  0.16218E-05
 0.98200005E+02  0.12768E-05
 0.98250000E+02  0.56702E-07
 0.98300003E+02 -0.10565E-05
 0.98349998E+02 -0.18848E-05
 0.98400002E+02 -0.25120E-05
 0.98450005E+02 -0.24664E-05
 0.98500000E+02 -0.11206E-05
 0.98550003E+02  0.29285E-06
 0.98599998E+02  0.84589E-06
 0.98650002E+02  0.82942E-06
 0.98700005E+02  0.36860E-06
 0.98750000E+02 -0.58585E-07
 0.98800003E+02  0.15725E-07
 0.98849998E+02  0.75691E-06
 0.98900002E+02  0.94135E-06
 0.98950005E+02  0.57531E-07
 0.99000000E+02 -0.60928E-06
 0.99050003E+02 -0.68764E-06
 0.99099998E+02 -0.20018E-06
 0.99150002E+02  0.15555E-06
 0.99200005E+02 -0.23301E-06
 0.99250000E+02 -0.57155E-06
 0.99300003E+02 -0.48150E-06
 0.99349998E+02  0.16320E-06
 0.99400002E+02  0.11319E-05
 0.99450005E+02  0.14499E-05
 0.99500000E+02  0.11865E-05
 0.99550003E+02  0.89424E-06
 0.99599998E+02  0.95251E-06
 0.99650002E+02  0.14232E-05
 0.99700005E+02  0.14041E-05
 0.99750000E+02  0.88115E-06
 0.99800003E+02  0.25820E-06
 0.99849998E+02 -0.56095E-06
 0.99900002E+02 -0.13953E-05
 0.99950005E+02 -0.22156E-05
 0.10000000E+03 -0.26067E-05
