 0.00000000E+00 -0.39923E-07
 0.50000001E-01 -0.15567E-07
 0.10000000E+00  0.19104E-07
 0.15000001E+00  0.26774E-07
 0.20000000E+00 -0.31952E-08
 0.25000000E+00 -0.26609E-07
 0.30000001E+00 -0.41077E-07
 0.34999999E+00 -0.37838E-07
 0.40000001E+00 -0.17466E-07
 0.45000002E+00 -0.21749E-07
 0.50000000E+00 -0.40230E-07
 0.55000001E+00 -0.46308E-07
 0.60000002E+00 -0.30277E-07
 0.65000004E+00 -0.18516E-07
 0.69999999E+00 -0.16478E-07
 0.75000000E+00 -0.81268E-08
 0.80000001E+00 -0.84743E-08
 0.85000002E+00  0.37436E-08
 0.90000004E+00  0.30031E-07
 0.94999999E+00  0.57509E-07
 0.10000000E+01  0.57799E-07
 0.10500001E+01  0.32365E-07
 0.11000000E+01  0.86848E-08
 0.11500000E+01  0.64669E-08
 0.12000000E+01  0.38851E-07
 0.12500000E+01  0.58725E-07
 0.13000001E+01  0.42280E-07
 0.13500000E+01  0.24522E-07
 0.14000000E+01  0.26737E-07
 0.14500000E+01  0.35863E-07
 0.15000000E+01  0.56316E-07
 0.15500001E+01  0.56963E-07
 0.16000000E+01  0.44221E-07
 0.16500000E+01  0.43938E-07
 0.17000000E+01  0.36731E-07
 0.17500000E+01  0.32018E-07
 0.18000001E+01  0.26106E-07
 0.18500000E+01  0.24349E-07
 0.19000000E+01  0.16180E-07
 0.19500000E+01  0.12184E-07
 0.20000000E+01 -0.59777E-08
 0.20500000E+01 -0.36851E-07
 0.21000001E+01 -0.51149E-07
 0.21500001E+01 -0.65428E-07
 0.22000000E+01 -0.65197E-07
 0.22500000E+01 -0.72843E-07
 0.23000000E+01 -0.86833E-07
 0.23500001E+01 -0.85652E-07
 0.24000001E+01 -0.62122E-07
 0.24500000E+01 -0.35366E-07
 0.25000000E+01 -0.22675E-07
 0.25500000E+01 -0.23838E-07
 0.26000001E+01 -0.35383E-07
 0.26500001E+01 -0.24688E-07
 0.27000000E+01 -0.19342E-07
 0.27500000E+01 -0.21034E-07
 0.28000000E+01 -0.11213E-07
 0.28500001E+01 -0.14819E-07
 0.29000001E+01 -0.14988E-07
 0.29500000E+01  0.19993E-08
 0.30000000E+01 -0.12058E-07
 0.30500000E+01 -0.33136E-07
 0.31000001E+01 -0.14751E-07
 0.31500001E+01  0.42634E-08
 0.32000000E+01  0.11349E-07
 0.32500000E+01  0.38566E-08
 0.33000000E+01  0.22580E-07
 0.33500001E+01  0.34363E-07
 0.34000001E+01  0.18818E-07
 0.34500000E+01  0.28949E-07
 0.35000000E+01  0.42975E-07
 0.35500000E+01  0.52967E-07
 0.36000001E+01  0.36368E-07
 0.36500001E+01  0.20894E-07
 0.37000000E+01  0.12787E-07
 0.37500000E+01  0.33826E-08
 0.38000000E+01 -0.37829E-09
 0.38500001E+01 -0.46669E-08
 0.39000001E+01 -0.19756E-07
 0.39500000E+01 -0.47870E-07
 0.40000000E+01 -0.15969E-07
 0.40500002E+01  0.35968E-07
 0.40999999E+01  0.55582E-07
 0.41500001E+01  0.55750E-07
 0.42000003E+01  0.40891E-07
 0.42500000E+01  0.40154E-07
 0.43000002E+01  0.52983E-07
 0.43499999E+01  0.63629E-07
 0.44000001E+01  0.64074E-07
 0.44500003E+01  0.52220E-07
 0.45000000E+01  0.40740E-07
 0.45500002E+01  0.52989E-07
 0.45999999E+01  0.46417E-07
 0.46500001E+01  0.65082E-09
 0.47000003E+01 -0.17947E-07
 0.47500000E+01 -0.13495E-07
 0.48000002E+01 -0.30850E-07
 0.48499999E+01 -0.26154E-07
 0.49000001E+01 -0.61027E-08
 0.49500003E+01 -0.11823E-07
 0.50000000E+01 -0.15177E-07
 0.50500002E+01 -0.22784E-07
 0.50999999E+01 -0.16932E-07
 0.51500001E+01 -0.18494E-07
 0.52000003E+01 -0.39305E-07
 0.52500000E+01 -0.28200E-07
 0.53000002E+01 -0.19447E-07
 0.53499999E+01 -0.37381E-07
 0.54000001E+01 -0.60818E-07
 0.54500003E+01 -0.68103E-07
 0.55000000E+01 -0.84150E-07
 0.55500002E+01 -0.11406E-06
 0.55999999E+01 -0.11582E-06
 0.56500001E+01 -0.77765E-07
 0.57000003E+01 -0.33763E-07
 0.57500000E+01 -0.12683E-07
 0.58000002E+01 -0.16406E-08
 0.58499999E+01  0.10977E-07
 0.59000001E+01  0.37257E-07
 0.59500003E+01  0.55568E-07
 0.60000000E+01  0.57445E-07
 0.60500002E+01  0.50220E-07
 0.60999999E+01  0.33924E-07
 0.61500001E+01  0.32189E-07
 0.62000003E+01  0.40251E-07
 0.62500000E+01  0.40281E-07
 0.63000002E+01  0.30707E-07
 0.63499999E+01  0.19558E-07
 0.64000001E+01  0.19363E-08
 0.64500003E+01 -0.31640E-08
 0.65000000E+01  0.58969E-08
 0.65500002E+01  0.13459E-07
 0.65999999E+01  0.19135E-07
 0.66500001E+01  0.11703E-07
 0.67000003E+01  0.14260E-07
 0.67500000E+01  0.20476E-07
 0.68000002E+01  0.29809E-07
 0.68499999E+01  0.41982E-07
 0.69000001E+01  0.32114E-07
 0.69500003E+01  0.47713E-08
 0.70000000E+01 -0.28405E-07
 0.70500002E+01 -0.32462E-07
 0.70999999E+01 -0.28642E-07
 0.71500001E+01 -0.49001E-07
 0.72000003E+01 -0.73695E-07
 0.72500000E+01 -0.82659E-07
 0.73000002E+01 -0.66830E-07
 0.73499999E+01 -0.55441E-07
 0.74000001E+01 -0.41140E-07
 0.74500003E+01 -0.10864E-07
 0.75000000E+01  0.12286E-07
 0.75500002E+01  0.28054E-07
 0.75999999E+01  0.31145E-07
 0.76500001E+01  0.33804E-07
 0.77000003E+01  0.28662E-07
 0.77500000E+01  0.23697E-07
 0.78000002E+01  0.14478E-07
 0.78499999E+01 -0.30870E-08
 0.79000001E+01  0.19904E-07
 0.79500003E+01  0.31144E-07
 0.80000000E+01  0.20594E-07
 0.80500002E+01  0.17895E-07
 0.81000004E+01  0.13770E-08
 0.81500006E+01 -0.23948E-07
 0.81999998E+01 -0.39537E-07
 0.82500000E+01 -0.32375E-07
 0.83000002E+01 -0.16599E-07
 0.83500004E+01 -0.57831E-08
 0.84000006E+01 -0.69634E-08
 0.84499998E+01  0.11591E-07
 0.85000000E+01  0.35274E-07
 0.85500002E+01  0.40636E-07
 0.86000004E+01  0.51300E-07
 0.86500006E+01  0.46707E-07
 0.86999998E+01  0.38103E-07
 0.87500000E+01  0.17128E-07
 0.88000002E+01 -0.43748E-08
 0.88500004E+01  0.18915E-08
 0.89000006E+01  0.17201E-07
 0.89499998E+01  0.36444E-07
 0.90000000E+01  0.24880E-07
 0.90500002E+01  0.59306E-08
 0.91000004E+01  0.17456E-07
 0.91500006E+01  0.40927E-07
 0.91999998E+01  0.84793E-07
 0.92500000E+01  0.10707E-06
 0.93000002E+01  0.75567E-07
 0.93500004E+01  0.45479E-07
 0.94000006E+01  0.38738E-07
 0.94499998E+01  0.35435E-07
 0.95000000E+01  0.11399E-07
 0.95500002E+01 -0.14149E-07
 0.96000004E+01 -0.40522E-07
 0.96500006E+01 -0.85011E-07
 0.96999998E+01 -0.98451E-07
 0.97500000E+01 -0.99480E-07
 0.98000002E+01 -0.11185E-06
 0.98500004E+01 -0.11684E-06
 0.99000006E+01 -0.12623E-06
 0.99499998E+01 -0.11035E-06
 0.10000000E+02 -0.65557E-07
 0.10050000E+02 -0.36011E-07
 0.10100000E+02 -0.21797E-07
 0.10150001E+02 -0.39379E-08
 0.10200000E+02  0.11647E-07
 0.10250000E+02  0.17846E-07
 0.10300000E+02  0.21341E-07
 0.10350000E+02  0.94734E-08
 0.10400001E+02 -0.74808E-08
 0.10450000E+02 -0.21567E-07
 0.10500000E+02 -0.50800E-07
 0.10550000E+02 -0.73095E-07
 0.10600000E+02 -0.65949E-07
 0.10650001E+02 -0.52889E-07
 0.10700000E+02 -0.51071E-07
 0.10750000E+02 -0.34677E-07
 0.10800000E+02 -0.28688E-07
 0.10850000E+02 -0.19682E-07
 0.10900001E+02  0.20413E-07
 0.10950000E+02  0.47348E-07
 0.11000000E+02  0.49377E-07
 0.11050000E+02  0.23192E-07
 0.11100000E+02  0.80315E-08
 0.11150001E+02  0.16097E-07
 0.11200000E+02  0.24745E-07
 0.11250000E+02  0.49280E-07
 0.11300000E+02  0.40398E-07
 0.11350000E+02 -0.89092E-08
 0.11400001E+02 -0.35685E-07
 0.11450000E+02 -0.32192E-07
 0.11500000E+02 -0.19738E-07
 0.11550000E+02  0.73165E-08
 0.11600000E+02  0.24398E-07
 0.11650001E+02  0.41974E-07
 0.11700000E+02  0.61635E-07
 0.11750000E+02  0.75014E-07
 0.11800000E+02  0.13128E-06
 0.11850000E+02  0.12091E-06
 0.11900001E+02  0.14046E-06
 0.11950000E+02  0.10929E-06
 0.12000000E+02  0.13583E-06
 0.12050000E+02  0.22076E-06
 0.12100000E+02  0.31197E-07
 0.12150001E+02 -0.58998E-06
 0.12200000E+02 -0.22069E-05
 0.12250000E+02 -0.43278E-05
 0.12300000E+02 -0.13187E-04
 0.12350000E+02 -0.38835E-04
 0.12400001E+02 -0.55551E-04
 0.12450000E+02  0.39162E-05
 0.12500000E+02  0.10475E-03
 0.12550000E+02  0.10640E-03
 0.12600000E+02  0.33816E-04
 0.12650001E+02 -0.89543E-05
 0.12700000E+02 -0.46515E-04
 0.12750000E+02 -0.60603E-04
 0.12800000E+02 -0.16087E-04
 0.12850000E+02  0.50377E-05
 0.12900001E+02 -0.18925E-04
 0.12950000E+02 -0.25374E-04
 0.13000000E+02 -0.13819E-04
 0.13050000E+02 -0.29059E-05
 0.13100000E+02 -0.62206E-05
 0.13150001E+02  0.49665E-05
 0.13200000E+02  0.49577E-04
 0.13250000E+02  0.49146E-04
 0.13300000E+02  0.10789E-04
 0.13350000E+02 -0.12008E-04
 0.13400001E+02 -0.23129E-04
 0.13450000E+02 -0.40124E-04
 0.13500000E+02 -0.57397E-04
 0.13550000E+02 -0.47105E-05
 0.13600000E+02  0.51851E-04
 0.13650001E+02  0.32841E-04
 0.13700000E+02  0.23627E-04
 0.13750000E+02  0.29824E-04
 0.13800000E+02  0.19848E-04
 0.13850000E+02  0.15458E-04
 0.13900001E+02  0.32632E-05
 0.13950000E+02 -0.38557E-04
 0.14000000E+02 -0.64139E-04
 0.14050000E+02 -0.38303E-04
 0.14100000E+02 -0.16919E-04
 0.14150001E+02 -0.31521E-04
 0.14200000E+02 -0.42699E-04
 0.14250000E+02 -0.90695E-05
 0.14300000E+02  0.39744E-04
 0.14350000E+02  0.83125E-04
 0.14400001E+02  0.11277E-03
 0.14450000E+02  0.77175E-04
 0.14500000E+02  0.20631E-05
 0.14550000E+02 -0.57920E-04
 0.14600000E+02 -0.89737E-04
 0.14650001E+02 -0.70848E-04
 0.14700000E+02  0.66259E-05
 0.14750000E+02  0.40425E-04
 0.14800000E+02  0.97929E-06
 0.14850000E+02 -0.22929E-04
 0.14900001E+02 -0.32748E-04
 0.14950000E+02 -0.37612E-05
 0.15000000E+02  0.39759E-04
 0.15050000E+02  0.42584E-04
 0.15100000E+02  0.41917E-04
 0.15150001E+02  0.27625E-04
 0.15200000E+02 -0.12751E-04
 0.15250000E+02 -0.66725E-04
 0.15300000E+02 -0.86003E-04
 0.15350000E+02 -0.36378E-04
 0.15400001E+02  0.26580E-04
 0.15450000E+02  0.64827E-04
 0.15500000E+02  0.54209E-04
 0.15550000E+02  0.41802E-05
 0.15600000E+02 -0.85108E-06
 0.15650001E+02  0.21433E-04
 0.15700000E+02 -0.10872E-05
 0.15750000E+02 -0.33817E-04
 0.15800000E+02 -0.46265E-04
 0.15850000E+02 -0.23432E-04
 0.15900001E+02  0.16854E-04
 0.15950000E+02  0.35319E-04
 0.16000000E+02  0.27984E-04
 0.16050001E+02  0.90298E-06
 0.16100000E+02 -0.21894E-04
 0.16150000E+02 -0.27969E-04
 0.16200001E+02 -0.59385E-06
 0.16250000E+02  0.17271E-04
 0.16300001E+02 -0.56366E-05
 0.16350000E+02 -0.39839E-04
 0.16400000E+02 -0.50567E-04
 0.16450001E+02 -0.10882E-04
 0.16500000E+02  0.24361E-04
 0.16550001E+02  0.48283E-04
 0.16600000E+02  0.70083E-04
 0.16650000E+02  0.52212E-04
 0.16700001E+02  0.86861E-05
 0.16750000E+02 -0.28403E-04
 0.16800001E+02 -0.38650E-04
 0.16850000E+02 -0.19825E-04
 0.16900000E+02  0.14609E-04
 0.16950001E+02  0.12418E-04
 0.17000000E+02 -0.15128E-04
 0.17050001E+02 -0.88418E-05
 0.17100000E+02  0.56458E-05
 0.17150000E+02  0.69525E-05
 0.17200001E+02 -0.10797E-04
 0.17250000E+02 -0.40359E-04
 0.17300001E+02 -0.57467E-04
 0.17350000E+02 -0.38974E-04
 0.17400000E+02  0.20954E-04
 0.17450001E+02  0.70832E-04
 0.17500000E+02  0.63697E-04
 0.17550001E+02  0.95439E-05
 0.17600000E+02 -0.30851E-04
 0.17650000E+02 -0.25525E-04
 0.17700001E+02  0.92026E-05
 0.17750000E+02  0.35079E-04
 0.17800001E+02  0.35722E-04
 0.17850000E+02  0.23621E-04
 0.17900000E+02 -0.14460E-04
 0.17950001E+02 -0.62816E-04
 0.18000000E+02 -0.90273E-04
 0.18050001E+02 -0.67463E-04
 0.18100000E+02  0.12407E-04
 0.18150000E+02  0.86455E-04
 0.18200001E+02  0.90178E-04
 0.18250000E+02  0.42367E-04
 0.18300001E+02 -0.13211E-06
 0.18350000E+02 -0.29782E-04
 0.18400000E+02 -0.35951E-04
 0.18450001E+02 -0.21816E-04
 0.18500000E+02 -0.17302E-04
 0.18550001E+02 -0.67153E-05
 0.18600000E+02  0.93548E-05
 0.18650000E+02 -0.10657E-05
 0.18700001E+02 -0.23107E-04
 0.18750000E+02 -0.18946E-04
 0.18800001E+02  0.11119E-04
 0.18850000E+02  0.34211E-04
 0.18900000E+02  0.37552E-04
 0.18950001E+02  0.26393E-04
 0.19000000E+02  0.12663E-04
 0.19050001E+02 -0.10615E-05
 0.19100000E+02 -0.35218E-04
 0.19150000E+02 -0.76919E-04
 0.19200001E+02 -0.78778E-04
 0.19250000E+02 -0.74308E-05
 0.19300001E+02  0.82592E-04
 0.19350000E+02  0.10183E-03
 0.19400000E+02  0.49368E-04
 0.19450001E+02 -0.12438E-04
 0.19500000E+02 -0.44998E-04
 0.19550001E+02 -0.30491E-04
 0.19600000E+02  0.70469E-05
 0.19650000E+02  0.32414E-05
 0.19700001E+02  0.51326E-06
 0.19750000E+02  0.72454E-05
 0.19800001E+02 -0.72388E-05
 0.19850000E+02 -0.98142E-05
 0.19900000E+02 -0.25753E-04
 0.19950001E+02 -0.37818E-04
 0.20000000E+02 -0.17268E-04
 0.20050001E+02  0.13564E-04
 0.20100000E+02  0.24571E-04
 0.20150000E+02  0.10636E-05
 0.20200001E+02 -0.57658E-05
 0.20250000E+02  0.19701E-04
 0.20300001E+02  0.26931E-04
 0.20350000E+02  0.11175E-04
 0.20400000E+02 -0.37612E-06
 0.20450001E+02 -0.10993E-04
 0.20500000E+02 -0.12224E-04
 0.20550001E+02 -0.29374E-04
 0.20600000E+02 -0.45457E-04
 0.20650000E+02 -0.29099E-04
 0.20700001E+02  0.21286E-06
 0.20750000E+02  0.52348E-04
 0.20800001E+02  0.67497E-04
 0.20850000E+02  0.48414E-04
 0.20900000E+02  0.31408E-04
 0.20950001E+02  0.32483E-04
 0.21000000E+02  0.31452E-04
 0.21050001E+02 -0.23551E-04
 0.21100000E+02 -0.10041E-03
 0.21150000E+02 -0.89207E-04
 0.21200001E+02  0.48216E-04
 0.21250000E+02  0.90441E-04
 0.21300001E+02  0.55751E-04
 0.21350000E+02  0.61771E-05
 0.21400000E+02 -0.96524E-04
 0.21450001E+02 -0.16234E-03
 0.21500000E+02 -0.16644E-03
 0.21550001E+02 -0.30116E-04
 0.21600000E+02  0.10984E-03
 0.21650000E+02  0.16268E-03
 0.21700001E+02  0.69588E-04
 0.21750000E+02 -0.74537E-04
 0.21800001E+02 -0.19289E-04
 0.21850000E+02  0.79265E-05
 0.21900000E+02 -0.28610E-04
 0.21950001E+02 -0.14022E-04
 0.22000000E+02  0.50760E-04
 0.22050001E+02  0.48699E-04
 0.22100000E+02 -0.95428E-04
 0.22150000E+02 -0.11408E-03
 0.22200001E+02  0.53663E-04
 0.22250000E+02  0.28458E-03
 0.22300001E+02  0.38374E-03
 0.22350000E+02  0.27056E-03
 0.22400000E+02  0.78501E-04
 0.22450001E+02 -0.94865E-04
 0.22500000E+02 -0.15699E-03
 0.22550001E+02 -0.22290E-03
 0.22600000E+02 -0.42291E-03
 0.22650000E+02 -0.51755E-03
 0.22700001E+02 -0.31675E-03
 0.22750000E+02  0.30454E-05
 0.22800001E+02  0.19785E-03
 0.22850000E+02  0.20315E-03
 0.22900000E+02  0.80163E-04
 0.22950001E+02 -0.91918E-04
 0.23000000E+02 -0.19694E-03
 0.23050001E+02 -0.14087E-03
 0.23100000E+02  0.14641E-03
 0.23150000E+02  0.51572E-03
 0.23200001E+02  0.65600E-03
 0.23250000E+02  0.54370E-03
 0.23300001E+02  0.32020E-03
 0.23350000E+02  0.57413E-04
 0.23400000E+02 -0.22649E-03
 0.23450001E+02 -0.47836E-03
 0.23500000E+02 -0.59483E-03
 0.23550001E+02 -0.49959E-03
 0.23600000E+02 -0.22370E-03
 0.23650000E+02  0.14321E-04
 0.23700001E+02  0.43688E-04
 0.23750000E+02  0.54795E-04
 0.23800001E+02  0.16174E-03
 0.23850000E+02  0.17391E-03
 0.23900000E+02  0.12377E-03
 0.23950001E+02  0.18905E-03
 0.24000000E+02  0.24899E-03
 0.24050001E+02  0.12490E-03
 0.24100000E+02 -0.12982E-03
 0.24150000E+02 -0.33615E-03
 0.24200001E+02 -0.30759E-03
 0.24250000E+02 -0.15913E-03
 0.24300001E+02 -0.52253E-04
 0.24350000E+02  0.63994E-05
 0.24400000E+02  0.38070E-04
 0.24450001E+02  0.88476E-04
 0.24500000E+02  0.78003E-04
 0.24550001E+02  0.42595E-04
 0.24600000E+02  0.73184E-04
 0.24650000E+02  0.15167E-03
 0.24700001E+02  0.13825E-03
 0.24750000E+02  0.43008E-04
 0.24800001E+02  0.97793E-04
 0.24850000E+02  0.16933E-03
 0.24900000E+02  0.99719E-04
 0.24950001E+02  0.16699E-04
 0.25000000E+02 -0.58229E-04
 0.25050001E+02 -0.14630E-03
 0.25100000E+02 -0.24847E-03
 0.25150000E+02 -0.27613E-03
 0.25200001E+02 -0.17190E-03
 0.25250000E+02 -0.11042E-03
 0.25300001E+02 -0.10213E-03
 0.25350000E+02  0.22049E-05
 0.25400000E+02  0.16236E-03
 0.25450001E+02  0.20245E-03
 0.25500000E+02  0.13398E-03
 0.25550001E+02  0.97825E-04
 0.25600000E+02  0.52110E-04
 0.25650000E+02 -0.45110E-04
 0.25700001E+02 -0.15493E-03
 0.25750000E+02 -0.17753E-03
 0.25800001E+02 -0.53785E-04
 0.25850000E+02  0.91836E-04
 0.25900000E+02  0.20437E-03
 0.25950001E+02  0.23809E-03
 0.26000000E+02  0.19344E-03
 0.26050001E+02  0.16794E-03
 0.26100000E+02  0.11646E-03
 0.26150000E+02 -0.12466E-04
 0.26200001E+02 -0.23378E-03
 0.26250000E+02 -0.43405E-03
 0.26300001E+02 -0.45586E-03
 0.26350000E+02 -0.30761E-03
 0.26400000E+02 -0.69514E-04
 0.26450001E+02  0.13846E-03
 0.26500000E+02  0.23213E-03
 0.26550001E+02  0.17467E-03
 0.26600000E+02  0.55499E-04
 0.26650000E+02  0.10775E-04
 0.26700001E+02  0.42038E-04
 0.26750000E+02  0.11752E-03
 0.26800001E+02  0.18624E-03
 0.26850000E+02  0.20417E-03
 0.26900000E+02  0.14996E-03
 0.26950001E+02  0.13475E-04
 0.27000000E+02 -0.99061E-04
 0.27050001E+02 -0.12272E-03
 0.27100000E+02 -0.12445E-03
 0.27150000E+02 -0.14713E-03
 0.27200001E+02 -0.19277E-03
 0.27250000E+02 -0.18695E-03
 0.27300001E+02 -0.72848E-04
 0.27350000E+02  0.91870E-04
 0.27400000E+02  0.18169E-03
 0.27450001E+02  0.13724E-03
 0.27500000E+02  0.72826E-04
 0.27550001E+02  0.25345E-05
 0.27600000E+02 -0.74828E-04
 0.27650000E+02 -0.63686E-04
 0.27700001E+02  0.38530E-05
 0.27750000E+02  0.52157E-04
 0.27800001E+02  0.39587E-04
 0.27850000E+02  0.58077E-04
 0.27900000E+02  0.89156E-04
 0.27950001E+02  0.26037E-04
 0.28000000E+02 -0.46154E-04
 0.28050001E+02 -0.93189E-04
 0.28100000E+02 -0.71213E-04
 0.28150000E+02  0.17461E-04
 0.28200001E+02  0.88316E-04
 0.28250000E+02  0.75940E-04
 0.28300001E+02 -0.31879E-04
 0.28350000E+02 -0.12364E-03
 0.28400000E+02 -0.13865E-03
 0.28450001E+02 -0.79411E-04
 0.28500000E+02 -0.30331E-04
 0.28550001E+02 -0.14693E-04
 0.28600000E+02  0.10490E-04
 0.28650000E+02  0.28370E-04
 0.28700001E+02  0.99935E-04
 0.28750000E+02  0.19020E-03
 0.28800001E+02  0.19135E-03
 0.28850000E+02  0.93767E-04
 0.28900000E+02 -0.56009E-04
 0.28950001E+02 -0.17016E-03
 0.29000000E+02 -0.18884E-03
 0.29050001E+02 -0.11571E-03
 0.29100000E+02 -0.66400E-05
 0.29150000E+02  0.86510E-04
 0.29200001E+02  0.11183E-03
 0.29250000E+02  0.49775E-04
 0.29300001E+02 -0.40268E-04
 0.29350000E+02 -0.11643E-03
 0.29400000E+02 -0.12312E-03
 0.29450001E+02 -0.46631E-04
 0.29500000E+02  0.54729E-04
 0.29550001E+02  0.14721E-03
 0.29600000E+02  0.15910E-03
 0.29650000E+02  0.82804E-04
 0.29700001E+02  0.46778E-05
 0.29750000E+02 -0.43368E-04
 0.29800001E+02 -0.70140E-04
 0.29850000E+02 -0.91915E-04
 0.29900000E+02 -0.11185E-03
 0.29950001E+02 -0.97469E-04
 0.30000000E+02 -0.46091E-04
 0.30050001E+02  0.19117E-04
 0.30100000E+02  0.85608E-04
 0.30150000E+02  0.11482E-03
 0.30200001E+02  0.12153E-03
 0.30250000E+02  0.13914E-03
 0.30300001E+02  0.13805E-03
 0.30350000E+02  0.73446E-04
 0.30400000E+02 -0.31656E-04
 0.30450001E+02 -0.10806E-03
 0.30500000E+02 -0.12881E-03
 0.30550001E+02 -0.92173E-04
 0.30600000E+02 -0.52263E-04
 0.30650000E+02 -0.38120E-04
 0.30700001E+02 -0.66268E-04
 0.30750000E+02 -0.11413E-03
 0.30800001E+02 -0.75241E-04
 0.30850000E+02  0.10690E-04
 0.30900000E+02  0.76944E-04
 0.30950001E+02  0.12537E-03
 0.31000000E+02  0.13014E-03
 0.31050001E+02  0.93424E-04
 0.31100000E+02  0.30296E-04
 0.31150000E+02 -0.46874E-05
 0.31200001E+02 -0.13147E-04
 0.31250000E+02 -0.63414E-04
 0.31300001E+02 -0.11631E-03
 0.31350000E+02 -0.13413E-03
 0.31400000E+02 -0.13713E-03
 0.31450001E+02 -0.92037E-04
 0.31500000E+02 -0.56144E-05
 0.31550001E+02  0.83759E-04
 0.31600000E+02  0.16270E-03
 0.31650000E+02  0.16802E-03
 0.31700001E+02  0.11147E-03
 0.31750000E+02  0.38026E-04
 0.31800001E+02 -0.28070E-04
 0.31850000E+02 -0.43891E-04
 0.31900000E+02 -0.31086E-05
 0.31950001E+02  0.50032E-04
 0.32000000E+02  0.50456E-04
 0.32049999E+02  0.17032E-04
 0.32100002E+02 -0.53404E-04
 0.32150002E+02 -0.12975E-03
 0.32200001E+02 -0.15694E-03
 0.32250000E+02 -0.14721E-03
 0.32299999E+02 -0.84763E-04
 0.32350002E+02 -0.13636E-04
 0.32400002E+02  0.50597E-04
 0.32450001E+02  0.11896E-03
 0.32500000E+02  0.15761E-03
 0.32549999E+02  0.14471E-03
 0.32600002E+02  0.83706E-04
 0.32650002E+02  0.17514E-04
 0.32700001E+02 -0.40087E-04
 0.32750000E+02 -0.61793E-04
 0.32799999E+02 -0.29242E-04
 0.32850002E+02  0.17790E-04
 0.32900002E+02  0.25016E-04
 0.32950001E+02 -0.35844E-04
 0.33000000E+02 -0.83665E-04
 0.33049999E+02 -0.86814E-04
 0.33100002E+02 -0.63750E-04
 0.33150002E+02 -0.21515E-04
 0.33200001E+02 -0.18395E-05
 0.33250000E+02  0.28887E-04
 0.33299999E+02  0.56722E-04
 0.33350002E+02  0.56915E-04
 0.33400002E+02  0.55991E-04
 0.33450001E+02  0.39669E-04
 0.33500000E+02  0.76539E-05
 0.33549999E+02 -0.18265E-04
 0.33600002E+02 -0.13249E-05
 0.33650002E+02  0.30131E-04
 0.33700001E+02  0.44463E-04
 0.33750000E+02  0.32559E-04
 0.33799999E+02 -0.32631E-04
 0.33850002E+02 -0.95609E-04
 0.33900002E+02 -0.10151E-03
 0.33950001E+02 -0.44872E-04
 0.34000000E+02  0.20613E-04
 0.34049999E+02  0.40519E-04
 0.34100002E+02  0.23243E-04
 0.34150002E+02 -0.15397E-05
 0.34200001E+02  0.88504E-05
 0.34250000E+02  0.18715E-04
 0.34299999E+02  0.11470E-04
 0.34350002E+02  0.24066E-04
 0.34400002E+02  0.41725E-04
 0.34450001E+02  0.26785E-04
 0.34500000E+02 -0.27357E-04
 0.34549999E+02 -0.63480E-04
 0.34600002E+02 -0.63899E-04
 0.34650002E+02 -0.47633E-04
 0.34700001E+02 -0.28477E-04
 0.34750000E+02 -0.33616E-04
 0.34799999E+02 -0.42463E-04
 0.34850002E+02 -0.14554E-04
 0.34900002E+02  0.46653E-04
 0.34950001E+02  0.10408E-03
 0.35000000E+02  0.13217E-03
 0.35049999E+02  0.10008E-03
 0.35100002E+02  0.21825E-04
 0.35150002E+02 -0.37933E-04
 0.35200001E+02 -0.65494E-04
 0.35250000E+02 -0.38356E-04
 0.35299999E+02  0.11916E-04
 0.35350002E+02  0.11012E-04
 0.35400002E+02 -0.15914E-04
 0.35450001E+02 -0.35752E-04
 0.35500000E+02 -0.42207E-04
 0.35549999E+02 -0.44406E-04
 0.35600002E+02 -0.42194E-04
 0.35650002E+02 -0.22687E-04
 0.35700001E+02 -0.14875E-04
 0.35750000E+02 -0.75767E-06
 0.35799999E+02  0.37641E-04
 0.35850002E+02  0.57580E-04
 0.35900002E+02  0.57470E-04
 0.35950001E+02  0.46986E-04
 0.36000000E+02  0.23045E-04
 0.36049999E+02 -0.11383E-04
 0.36100002E+02 -0.35987E-04
 0.36150002E+02 -0.21177E-04
 0.36200001E+02  0.21969E-04
 0.36250000E+02  0.49333E-04
 0.36299999E+02  0.48151E-04
 0.36350002E+02  0.35242E-04
 0.36400002E+02  0.15233E-04
 0.36450001E+02 -0.83550E-05
 0.36500000E+02 -0.38358E-04
 0.36549999E+02 -0.55015E-04
 0.36600002E+02 -0.48507E-04
 0.36650002E+02 -0.41342E-04
 0.36700001E+02 -0.58125E-04
 0.36750000E+02 -0.85542E-04
 0.36799999E+02 -0.76792E-04
 0.36850002E+02 -0.28004E-04
 0.36900002E+02  0.36482E-04
 0.36950001E+02  0.78248E-04
 0.37000000E+02  0.80963E-04
 0.37049999E+02  0.64637E-04
 0.37100002E+02  0.51624E-04
 0.37150002E+02  0.43551E-04
 0.37200001E+02  0.19337E-04
 0.37250000E+02 -0.16253E-04
 0.37299999E+02 -0.31176E-04
 0.37350002E+02 -0.27649E-04
 0.37400002E+02 -0.26193E-04
 0.37450001E+02 -0.36212E-04
 0.37500000E+02 -0.45596E-04
 0.37549999E+02 -0.29162E-04
 0.37600002E+02  0.70327E-05
 0.37650002E+02  0.40966E-04
 0.37700001E+02  0.50260E-04
 0.37750000E+02  0.40612E-04
 0.37799999E+02  0.17552E-04
 0.37850002E+02 -0.37357E-05
 0.37900002E+02 -0.33154E-05
 0.37950001E+02  0.13069E-04
 0.38000000E+02  0.28985E-04
 0.38049999E+02  0.16060E-04
 0.38100002E+02 -0.61982E-05
 0.38150002E+02 -0.18001E-04
 0.38200001E+02 -0.22071E-04
 0.38250000E+02 -0.38299E-04
 0.38299999E+02 -0.70586E-04
 0.38350002E+02 -0.72432E-04
 0.38400002E+02 -0.37432E-04
 0.38450001E+02  0.78521E-05
 0.38500000E+02  0.39671E-04
 0.38549999E+02  0.43315E-04
 0.38600002E+02  0.33268E-04
 0.38650002E+02  0.33917E-04
 0.38700001E+02  0.39514E-04
 0.38750000E+02  0.40987E-04
 0.38799999E+02  0.28405E-04
 0.38850002E+02 -0.54460E-06
 0.38900002E+02 -0.32895E-04
 0.38950001E+02 -0.60210E-04
 0.39000000E+02 -0.60911E-04
 0.39049999E+02 -0.38293E-04
 0.39100002E+02 -0.15184E-05
 0.39150002E+02  0.22988E-04
 0.39200001E+02  0.27997E-04
 0.39250000E+02  0.40224E-04
 0.39299999E+02  0.31160E-04
 0.39350002E+02  0.21377E-05
 0.39400002E+02 -0.10745E-04
 0.39450001E+02 -0.17482E-05
 0.39500000E+02  0.60600E-05
 0.39549999E+02  0.75177E-05
 0.39600002E+02  0.17317E-04
 0.39650002E+02  0.13028E-04
 0.39700001E+02  0.23437E-05
 0.39750000E+02 -0.88471E-05
 0.39799999E+02 -0.26111E-04
 0.39850002E+02 -0.39475E-04
 0.39900002E+02 -0.51730E-04
 0.39950001E+02 -0.38400E-04
 0.40000000E+02 -0.42492E-05
 0.40049999E+02  0.25848E-04
 0.40100002E+02  0.38939E-04
 0.40150002E+02  0.26436E-04
 0.40200001E+02 -0.59724E-06
 0.40250000E+02 -0.31507E-04
 0.40299999E+02 -0.35117E-04
 0.40350002E+02  0.20559E-05
 0.40400002E+02  0.36889E-04
 0.40450001E+02  0.36810E-04
 0.40500000E+02  0.20999E-04
 0.40549999E+02  0.67320E-05
 0.40600002E+02 -0.92517E-05
 0.40650002E+02 -0.12658E-04
 0.40700001E+02  0.48755E-05
 0.40750000E+02  0.17466E-04
 0.40799999E+02  0.14071E-04
 0.40850002E+02  0.67007E-05
 0.40900002E+02 -0.11787E-04
 0.40950001E+02 -0.37079E-04
 0.41000000E+02 -0.43113E-04
 0.41049999E+02 -0.23085E-04
 0.41100002E+02  0.68277E-05
 0.41150002E+02  0.27282E-04
 0.41200001E+02  0.33175E-04
 0.41250000E+02  0.18228E-04
 0.41299999E+02 -0.58799E-05
 0.41350002E+02 -0.11346E-04
 0.41400002E+02 -0.60619E-05
 0.41450001E+02  0.34254E-05
 0.41500000E+02  0.15929E-04
 0.41549999E+02  0.32157E-04
 0.41600002E+02  0.46269E-04
 0.41650002E+02  0.26258E-04
 0.41700001E+02 -0.29690E-04
 0.41750000E+02 -0.77316E-04
 0.41799999E+02 -0.86185E-04
 0.41850002E+02 -0.59857E-04
 0.41900002E+02 -0.13249E-05
 0.41950001E+02  0.53428E-04
 0.42000000E+02  0.68821E-04
 0.42049999E+02  0.48291E-04
 0.42100002E+02  0.14180E-04
 0.42150002E+02 -0.42537E-05
 0.42200001E+02 -0.56745E-05
 0.42250000E+02 -0.52946E-05
 0.42299999E+02 -0.10610E-04
 0.42350002E+02 -0.13513E-04
 0.42400002E+02 -0.23062E-04
 0.42450001E+02 -0.38271E-04
 0.42500000E+02 -0.40114E-04
 0.42549999E+02 -0.21435E-04
 0.42600002E+02  0.19079E-04
 0.42650002E+02  0.51329E-04
 0.42700001E+02  0.49639E-04
 0.42750000E+02  0.16718E-04
 0.42799999E+02 -0.17466E-04
 0.42850002E+02 -0.30168E-04
 0.42900002E+02 -0.17457E-04
 0.42950001E+02  0.17973E-04
 0.43000000E+02  0.34241E-04
 0.43049999E+02  0.23128E-04
 0.43100002E+02  0.56972E-05
 0.43150002E+02 -0.11446E-04
 0.43200001E+02 -0.17833E-04
 0.43250000E+02 -0.12099E-04
 0.43299999E+02  0.34645E-05
 0.43350002E+02  0.80776E-05
 0.43400002E+02 -0.32495E-05
 0.43450001E+02 -0.83279E-05
 0.43500000E+02  0.28917E-05
 0.43549999E+02  0.17615E-04
 0.43600002E+02  0.22681E-04
 0.43650002E+02  0.17707E-04
 0.43700001E+02 -0.16936E-05
 0.43750000E+02 -0.28592E-04
 0.43799999E+02 -0.44713E-04
 0.43850002E+02 -0.39501E-04
 0.43900002E+02 -0.21479E-04
 0.43950001E+02 -0.25181E-06
 0.44000000E+02  0.93001E-05
 0.44049999E+02  0.37315E-05
 0.44100002E+02 -0.26961E-06
 0.44150002E+02  0.58663E-05
 0.44200001E+02  0.25305E-04
 0.44250000E+02  0.38226E-04
 0.44299999E+02  0.33616E-04
 0.44350002E+02  0.15919E-04
 0.44400002E+02 -0.87571E-05
 0.44450001E+02 -0.21932E-04
 0.44500000E+02 -0.21687E-04
 0.44549999E+02 -0.14021E-04
 0.44600002E+02 -0.49712E-06
 0.44650002E+02  0.12226E-04
 0.44700001E+02  0.14670E-04
 0.44750000E+02  0.63100E-05
 0.44799999E+02 -0.11557E-06
 0.44850002E+02  0.19632E-06
 0.44900002E+02 -0.66903E-05
 0.44950001E+02 -0.25678E-04
 0.45000000E+02 -0.33685E-04
 0.45049999E+02 -0.24149E-04
 0.45100002E+02 -0.77833E-05
 0.45150002E+02  0.11367E-04
 0.45200001E+02  0.16703E-04
 0.45250000E+02  0.96546E-05
 0.45299999E+02  0.90946E-05
 0.45350002E+02  0.17584E-04
 0.45400002E+02  0.22215E-04
 0.45450001E+02  0.16523E-04
 0.45500000E+02  0.53867E-05
 0.45549999E+02 -0.59854E-05
 0.45600002E+02 -0.78325E-05
 0.45650002E+02 -0.69682E-05
 0.45700001E+02  0.37312E-05
 0.45750000E+02  0.22450E-04
 0.45799999E+02  0.21787E-04
 0.45850002E+02  0.11829E-04
 0.45900002E+02 -0.41507E-05
 0.45950001E+02 -0.26995E-04
 0.46000000E+02 -0.46232E-04
 0.46049999E+02 -0.50342E-04
 0.46100002E+02 -0.32127E-04
 0.46150002E+02 -0.83123E-05
 0.46200001E+02  0.12830E-04
 0.46250000E+02  0.27979E-04
 0.46299999E+02  0.36269E-04
 0.46350002E+02  0.30635E-04
 0.46400002E+02  0.13313E-04
 0.46450001E+02  0.29849E-05
 0.46500000E+02  0.13795E-05
 0.46549999E+02  0.56070E-05
 0.46600002E+02  0.10510E-04
 0.46650002E+02  0.11095E-04
 0.46700001E+02  0.34713E-05
 0.46750000E+02 -0.12707E-04
 0.46799999E+02 -0.24471E-04
 0.46850002E+02 -0.21933E-04
 0.46900002E+02 -0.15608E-04
 0.46950001E+02 -0.13288E-04
 0.47000000E+02 -0.12845E-04
 0.47049999E+02 -0.77661E-05
 0.47100002E+02  0.42065E-05
 0.47150002E+02  0.81654E-05
 0.47200001E+02  0.28715E-05
 0.47250000E+02 -0.64243E-05
 0.47299999E+02 -0.89931E-05
 0.47350002E+02  0.23583E-05
 0.47400002E+02  0.14862E-04
 0.47450001E+02  0.19684E-04
 0.47500000E+02  0.11829E-04
 0.47549999E+02  0.30575E-05
 0.47600002E+02  0.90298E-06
 0.47650002E+02  0.51916E-05
 0.47700001E+02  0.16086E-04
 0.47750000E+02  0.15349E-04
 0.47799999E+02  0.33529E-07
 0.47850002E+02 -0.17031E-04
 0.47900002E+02 -0.21971E-04
 0.47950001E+02 -0.16309E-04
 0.48000000E+02 -0.14009E-04
 0.48049999E+02 -0.13573E-04
 0.48100002E+02 -0.10058E-04
 0.48150002E+02 -0.60673E-06
 0.48200001E+02  0.87042E-05
 0.48250000E+02  0.17294E-04
 0.48299999E+02  0.27259E-04
 0.48350002E+02  0.28999E-04
 0.48400002E+02  0.19052E-04
 0.48450001E+02  0.49421E-05
 0.48500000E+02  0.69196E-07
 0.48549999E+02  0.24674E-06
 0.48600002E+02 -0.59495E-05
 0.48650002E+02 -0.16110E-04
 0.48700001E+02 -0.28418E-04
 0.48750000E+02 -0.37331E-04
 0.48799999E+02 -0.34818E-04
 0.48850002E+02 -0.21076E-04
 0.48900002E+02 -0.25666E-05
 0.48950001E+02  0.14801E-04
 0.49000000E+02  0.27627E-04
 0.49049999E+02  0.25889E-04
 0.49100002E+02  0.18263E-04
 0.49150002E+02  0.16527E-04
 0.49200001E+02  0.16079E-04
 0.49250000E+02  0.17615E-04
 0.49299999E+02  0.11449E-04
 0.49350002E+02 -0.21863E-05
 0.49400002E+02 -0.17200E-04
 0.49450001E+02 -0.28754E-04
 0.49500000E+02 -0.23538E-04
 0.49549999E+02 -0.70307E-05
 0.49600002E+02  0.64699E-05
 0.49650002E+02  0.73145E-05
 0.49700001E+02 -0.30325E-06
 0.49750000E+02 -0.70754E-05
 0.49799999E+02 -0.10047E-04
 0.49850002E+02 -0.33310E-05
 0.49900002E+02  0.71459E-05
 0.49950001E+02  0.13923E-04
 0.50000000E+02  0.14700E-04
 0.50049999E+02  0.89963E-05
 0.50100002E+02  0.68348E-05
 0.50150002E+02  0.11790E-04
 0.50200001E+02  0.16406E-04
 0.50250000E+02  0.10300E-04
 0.50299999E+02 -0.51266E-05
 0.50350002E+02 -0.22755E-04
 0.50400002E+02 -0.35255E-04
 0.50450001E+02 -0.29543E-04
 0.50500000E+02 -0.11804E-04
 0.50549999E+02  0.45971E-06
 0.50600002E+02  0.60553E-05
 0.50650002E+02  0.74715E-05
 0.50700001E+02  0.28369E-05
 0.50750000E+02  0.44741E-07
 0.50799999E+02  0.52520E-05
 0.50850002E+02  0.15247E-04
 0.50900002E+02  0.17902E-04
 0.50950001E+02  0.69598E-05
 0.51000000E+02 -0.19665E-05
 0.51049999E+02 -0.42270E-05
 0.51100002E+02 -0.60536E-05
 0.51150002E+02 -0.12800E-04
 0.51200001E+02 -0.18911E-04
 0.51250000E+02 -0.10870E-04
 0.51299999E+02  0.13582E-05
 0.51350002E+02  0.12542E-04
 0.51400002E+02  0.18484E-04
 0.51450001E+02  0.13410E-04
 0.51500000E+02  0.87431E-05
 0.51549999E+02  0.76801E-05
 0.51600002E+02  0.48625E-05
 0.51650002E+02 -0.41957E-05
 0.51700001E+02 -0.12998E-04
 0.51750000E+02 -0.19031E-04
 0.51799999E+02 -0.20387E-04
 0.51850002E+02 -0.86184E-05
 0.51900002E+02  0.56624E-05
 0.51950001E+02  0.11974E-04
 0.52000000E+02  0.15070E-04
 0.52049999E+02  0.16430E-04
 0.52100002E+02  0.11797E-04
 0.52150002E+02  0.36506E-05
 0.52200001E+02 -0.40524E-05
 0.52250000E+02 -0.11108E-04
 0.52299999E+02 -0.19251E-04
 0.52350002E+02 -0.22232E-04
 0.52400002E+02 -0.14222E-04
 0.52450001E+02 -0.53917E-05
 0.52500000E+02 -0.43164E-06
 0.52549999E+02  0.70740E-05
 0.52600002E+02  0.16604E-04
 0.52650002E+02  0.15995E-04
 0.52700001E+02  0.92777E-05
 0.52750000E+02  0.92559E-05
 0.52799999E+02  0.84695E-05
 0.52850002E+02  0.24660E-05
 0.52900002E+02 -0.48918E-05
 0.52950001E+02 -0.92812E-05
 0.53000000E+02 -0.69914E-05
 0.53049999E+02 -0.48407E-05
 0.53100002E+02 -0.67864E-05
 0.53150002E+02 -0.94422E-05
 0.53200001E+02 -0.12023E-04
 0.53250000E+02 -0.63810E-05
 0.53299999E+02  0.57618E-05
 0.53350002E+02  0.12870E-04
 0.53400002E+02  0.16922E-04
 0.53450001E+02  0.14032E-04
 0.53500000E+02  0.67864E-05
 0.53549999E+02  0.63323E-05
 0.53600002E+02  0.75634E-05
 0.53650002E+02  0.48060E-05
 0.53700001E+02  0.26622E-05
 0.53750000E+02  0.19927E-05
 0.53799999E+02 -0.18432E-05
 0.53850002E+02 -0.10148E-04
 0.53900002E+02 -0.21101E-04
 0.53950001E+02 -0.26916E-04
 0.54000000E+02 -0.26988E-04
 0.54049999E+02 -0.20535E-04
 0.54100002E+02 -0.37660E-05
 0.54150002E+02  0.97684E-05
 0.54200001E+02  0.16430E-04
 0.54250000E+02  0.21232E-04
 0.54299999E+02  0.18168E-04
 0.54350002E+02  0.65399E-05
 0.54400002E+02 -0.50371E-05
 0.54450001E+02 -0.41591E-05
 0.54500000E+02  0.48076E-05
 0.54549999E+02  0.91106E-05
 0.54600002E+02  0.11097E-04
 0.54650002E+02  0.11176E-04
 0.54700001E+02  0.66274E-05
 0.54750000E+02 -0.15039E-05
 0.54799999E+02 -0.86503E-05
 0.54850002E+02 -0.11191E-04
 0.54900002E+02 -0.14642E-04
 0.54950001E+02 -0.17429E-04
 0.55000000E+02 -0.12067E-04
 0.55049999E+02 -0.35585E-05
 0.55100002E+02  0.39213E-05
 0.55150002E+02  0.11190E-04
 0.55200001E+02  0.16229E-04
 0.55250000E+02  0.15930E-04
 0.55299999E+02  0.62508E-05
 0.55350002E+02 -0.51358E-05
 0.55400002E+02 -0.67166E-05
 0.55450001E+02 -0.37926E-05
 0.55500000E+02 -0.34684E-05
 0.55549999E+02 -0.44605E-05
 0.55600002E+02 -0.57752E-05
 0.55650002E+02 -0.73358E-05
 0.55700001E+02 -0.68508E-05
 0.55750000E+02 -0.15654E-05
 0.55799999E+02  0.21297E-05
 0.55850002E+02  0.59229E-06
 0.55900002E+02  0.40701E-06
 0.55950001E+02  0.51482E-05
 0.56000000E+02  0.83148E-05
 0.56049999E+02  0.21905E-05
 0.56100002E+02 -0.57375E-05
 0.56150002E+02 -0.49189E-05
 0.56200001E+02  0.31455E-05
 0.56250000E+02  0.11633E-04
 0.56299999E+02  0.15192E-04
 0.56350002E+02  0.12355E-04
 0.56400002E+02  0.76526E-05
 0.56450001E+02  0.20266E-05
 0.56500000E+02 -0.48233E-05
 0.56549999E+02 -0.93420E-05
 0.56600002E+02 -0.91955E-05
 0.56650002E+02 -0.48520E-05
 0.56700001E+02 -0.15338E-05
 0.56750000E+02 -0.29207E-05
 0.56799999E+02 -0.84934E-05
 0.56850002E+02 -0.12020E-04
 0.56900002E+02 -0.76103E-05
 0.56950001E+02  0.12041E-05
 0.57000000E+02  0.61773E-05
 0.57049999E+02  0.54488E-05
 0.57100002E+02  0.48836E-05
 0.57150002E+02  0.71162E-05
 0.57200001E+02  0.88888E-05
 0.57250000E+02  0.86754E-05
 0.57299999E+02  0.40828E-05
 0.57350002E+02 -0.36800E-05
 0.57400002E+02 -0.92340E-05
 0.57450001E+02 -0.14611E-04
 0.57500000E+02 -0.16915E-04
 0.57549999E+02 -0.12316E-04
 0.57600002E+02 -0.30733E-05
 0.57650002E+02  0.28626E-05
 0.57700001E+02 -0.43614E-06
 0.57750000E+02 -0.38192E-05
 0.57799999E+02 -0.17359E-05
 0.57850002E+02  0.62229E-05
 0.57900002E+02  0.15984E-04
 0.57950001E+02  0.19209E-04
 0.58000000E+02  0.14741E-04
 0.58049999E+02  0.55577E-05
 0.58100002E+02 -0.68172E-06
 0.58150002E+02 -0.26174E-05
 0.58200001E+02 -0.21833E-05
 0.58250000E+02 -0.70758E-07
 0.58299999E+02 -0.40043E-06
 0.58350002E+02 -0.81076E-06
 0.58400002E+02 -0.22709E-05
 0.58450001E+02 -0.46860E-05
 0.58500000E+02 -0.55943E-05
 0.58549999E+02 -0.53724E-05
 0.58600002E+02  0.48749E-07
 0.58650002E+02  0.87406E-05
 0.58700001E+02  0.14037E-04
 0.58750000E+02  0.10094E-04
 0.58799999E+02 -0.21579E-05
 0.58850002E+02 -0.13193E-04
 0.58900002E+02 -0.16851E-04
 0.58950001E+02 -0.14897E-04
 0.59000000E+02 -0.79395E-05
 0.59049999E+02  0.11888E-05
 0.59100002E+02  0.61738E-05
 0.59150002E+02  0.63669E-05
 0.59200001E+02  0.30094E-05
 0.59250000E+02  0.18889E-05
 0.59299999E+02  0.43796E-05
 0.59350002E+02  0.51239E-05
 0.59400002E+02  0.12966E-05
 0.59450001E+02 -0.44143E-05
 0.59500000E+02 -0.63127E-05
 0.59549999E+02 -0.43552E-05
 0.59600002E+02 -0.69546E-06
 0.59650002E+02  0.36086E-05
 0.59700001E+02  0.68435E-05
 0.59750000E+02  0.62434E-05
 0.59799999E+02  0.10465E-05
 0.59850002E+02 -0.66334E-05
 0.59900002E+02 -0.10521E-04
 0.59950001E+02 -0.63757E-05
 0.60000000E+02  0.17489E-05
 0.60049999E+02  0.69775E-05
 0.60100002E+02  0.53654E-05
 0.60150002E+02  0.76870E-07
 0.60200001E+02 -0.29613E-05
 0.60250000E+02 -0.80280E-08
 0.60299999E+02  0.63014E-05
 0.60350002E+02  0.10781E-04
 0.60400002E+02  0.10412E-04
 0.60450001E+02  0.33193E-05
 0.60500000E+02 -0.60923E-05
 0.60549999E+02 -0.11642E-04
 0.60600002E+02 -0.10371E-04
 0.60650002E+02 -0.53166E-05
 0.60700001E+02 -0.16762E-05
 0.60750000E+02 -0.15522E-06
 0.60799999E+02  0.62521E-06
 0.60850002E+02  0.39707E-05
 0.60900002E+02  0.78807E-05
 0.60950001E+02  0.75537E-05
 0.61000000E+02  0.40222E-05
 0.61049999E+02 -0.11508E-05
 0.61100002E+02 -0.66317E-05
 0.61150002E+02 -0.85924E-05
 0.61200001E+02 -0.35609E-05
 0.61250000E+02  0.32141E-05
 0.61299999E+02  0.44576E-05
 0.61350002E+02  0.20976E-05
 0.61400002E+02 -0.30114E-05
 0.61450001E+02 -0.96059E-05
 0.61500000E+02 -0.13288E-04
 0.61549999E+02 -0.11210E-04
 0.61600002E+02 -0.56837E-05
 0.61650002E+02 -0.29161E-05
 0.61700001E+02  0.11473E-06
 0.61750000E+02  0.59651E-05
 0.61799999E+02  0.10528E-04
 0.61850002E+02  0.12428E-04
 0.61900002E+02  0.11369E-04
 0.61950001E+02  0.80407E-05
 0.62000000E+02  0.64100E-05
 0.62049999E+02  0.81052E-05
 0.62100002E+02  0.96527E-05
 0.62150002E+02  0.97414E-05
 0.62200001E+02  0.72895E-05
 0.62250000E+02  0.18749E-05
 0.62299999E+02 -0.52220E-05
 0.62350002E+02 -0.12388E-04
 0.62400002E+02 -0.16183E-04
 0.62450001E+02 -0.16129E-04
 0.62500000E+02 -0.11273E-04
 0.62549999E+02 -0.46375E-05
 0.62600002E+02 -0.12601E-05
 0.62650002E+02  0.71141E-07
 0.62700001E+02  0.25071E-05
 0.62750000E+02  0.63999E-05
 0.62799999E+02  0.69888E-05
 0.62850002E+02  0.30005E-05
 0.62900002E+02 -0.32451E-05
 0.62950001E+02 -0.63988E-05
 0.63000000E+02 -0.43130E-05
 0.63049999E+02 -0.75896E-06
 0.63100002E+02  0.29271E-05
 0.63150002E+02  0.40873E-05
 0.63200001E+02  0.22581E-05
 0.63250000E+02 -0.46215E-06
 0.63299999E+02 -0.38326E-05
 0.63350002E+02 -0.87598E-05
 0.63400002E+02 -0.11373E-04
 0.63450001E+02 -0.60798E-05
 0.63500000E+02  0.28176E-05
 0.63549999E+02  0.10037E-04
 0.63600002E+02  0.14814E-04
 0.63650002E+02  0.14501E-04
 0.63700001E+02  0.10342E-04
 0.63750000E+02  0.57374E-05
 0.63799999E+02  0.14672E-05
 0.63850002E+02 -0.43778E-06
 0.63900002E+02 -0.88858E-06
 0.63950001E+02 -0.39166E-05
 0.64000000E+02 -0.84061E-05
 0.64050003E+02 -0.86291E-05
 0.64099998E+02 -0.48796E-05
 0.64150002E+02 -0.12147E-06
 0.64200005E+02  0.36382E-05
 0.64250000E+02  0.37714E-05
 0.64300003E+02  0.27598E-05
 0.64349998E+02  0.29033E-05
 0.64400002E+02  0.29604E-05
 0.64450005E+02  0.69549E-06
 0.64500000E+02 -0.42230E-05
 0.64550003E+02 -0.71838E-05
 0.64599998E+02 -0.60558E-05
 0.64650002E+02 -0.25329E-05
 0.64700005E+02  0.73499E-06
 0.64750000E+02  0.55463E-06
 0.64800003E+02 -0.32865E-05
 0.64849998E+02 -0.95024E-05
 0.64900002E+02 -0.12301E-04
 0.64950005E+02 -0.76635E-05
 0.65000000E+02 -0.40996E-06
 0.65050003E+02  0.60635E-05
 0.65099998E+02  0.11679E-04
 0.65150002E+02  0.14658E-04
 0.65200005E+02  0.13109E-04
 0.65250000E+02  0.78131E-05
 0.65300003E+02  0.11310E-05
 0.65349998E+02 -0.42041E-05
 0.65400002E+02 -0.65855E-05
 0.65450005E+02 -0.62553E-05
 0.65500000E+02 -0.50547E-05
 0.65550003E+02 -0.19583E-05
 0.65599998E+02  0.38429E-05
 0.65650002E+02  0.63960E-05
 0.65700005E+02  0.28754E-05
 0.65750000E+02 -0.32915E-05
 0.65800003E+02 -0.72509E-05
 0.65849998E+02 -0.58955E-05
 0.65900002E+02 -0.56319E-06
 0.65950005E+02  0.51573E-05
 0.66000000E+02  0.85787E-05
 0.66050003E+02  0.83075E-05
 0.66099998E+02  0.42913E-05
 0.66150002E+02 -0.45133E-06
 0.66200005E+02 -0.36627E-05
 0.66250000E+02 -0.45760E-05
 0.66300003E+02 -0.35330E-05
 0.66349998E+02 -0.25141E-05
 0.66400002E+02 -0.20290E-05
 0.66450005E+02 -0.10708E-05
 0.66500000E+02  0.11160E-05
 0.66550003E+02  0.25925E-05
 0.66599998E+02  0.26832E-05
 0.66650002E+02  0.26033E-05
 0.66700005E+02  0.56656E-06
 0.66750000E+02 -0.39852E-05
 0.66800003E+02 -0.64686E-05
 0.66849998E+02 -0.36222E-05
 0.66900002E+02 -0.25050E-06
 0.66950005E+02  0.23546E-06
 0.67000000E+02 -0.21384E-05
 0.67050003E+02 -0.75956E-05
 0.67099998E+02 -0.86711E-05
 0.67150002E+02 -0.32713E-05
 0.67200005E+02  0.16030E-05
 0.67250000E+02  0.45651E-05
 0.67300003E+02  0.60625E-05
 0.67349998E+02  0.48586E-05
 0.67400002E+02  0.15737E-05
 0.67450005E+02  0.27874E-06
 0.67500000E+02  0.25231E-05
 0.67550003E+02  0.55096E-05
 0.67599998E+02  0.82022E-05
 0.67650002E+02  0.82648E-05
 0.67700005E+02  0.41853E-05
 0.67750000E+02 -0.43028E-06
 0.67800003E+02 -0.26227E-05
 0.67849998E+02 -0.13450E-05
 0.67900002E+02  0.99113E-06
 0.67950005E+02  0.16587E-05
 0.68000000E+02  0.14201E-06
 0.68050003E+02 -0.33368E-05
 0.68099998E+02 -0.49840E-05
 0.68150002E+02 -0.48216E-05
 0.68200005E+02 -0.39828E-05
 0.68250000E+02 -0.21255E-05
 0.68300003E+02 -0.42132E-06
 0.68349998E+02  0.11441E-05
 0.68400002E+02 -0.15908E-06
 0.68450005E+02 -0.44275E-05
 0.68500000E+02 -0.80053E-05
 0.68550003E+02 -0.84577E-05
 0.68599998E+02 -0.59637E-05
 0.68650002E+02 -0.64539E-06
 0.68700005E+02  0.78881E-05
 0.68750000E+02  0.14018E-04
 0.68800003E+02  0.13135E-04
 0.68849998E+02  0.74208E-05
 0.68900002E+02  0.98960E-06
 0.68950005E+02 -0.32152E-05
 0.69000000E+02 -0.49058E-05
 0.69050003E+02 -0.49444E-05
 0.69099998E+02 -0.44585E-05
 0.69150002E+02 -0.48722E-05
 0.69200005E+02 -0.43981E-05
 0.69250000E+02 -0.20031E-05
 0.69300003E+02 -0.77847E-06
 0.69349998E+02 -0.66185E-06
 0.69400002E+02  0.70645E-07
 0.69450005E+02  0.25410E-06
 0.69500000E+02 -0.10978E-07
 0.69550003E+02  0.72382E-06
 0.69599998E+02  0.30535E-05
 0.69650002E+02  0.72471E-05
 0.69700005E+02  0.10285E-04
 0.69750000E+02  0.86699E-05
 0.69800003E+02  0.34586E-05
 0.69849998E+02  0.39220E-06
 0.69900002E+02  0.15050E-05
 0.69950005E+02  0.16233E-05
 0.70000000E+02  0.68260E-06
 0.70050003E+02 -0.59055E-06
 0.70099998E+02 -0.22140E-05
 0.70150002E+02 -0.17135E-05
 0.70200005E+02 -0.19551E-06
 0.70250000E+02 -0.95242E-06
 0.70300003E+02 -0.57561E-05
 0.70349998E+02 -0.10556E-04
 0.70400002E+02 -0.12027E-04
 0.70450005E+02 -0.94126E-05
 0.70500000E+02 -0.41483E-05
 0.70550003E+02  0.43521E-06
 0.70599998E+02  0.35764E-05
 0.70650002E+02  0.41181E-05
 0.70700005E+02  0.31257E-05
 0.70750000E+02  0.30075E-05
 0.70800003E+02  0.57394E-05
 0.70849998E+02  0.87818E-05
 0.70900002E+02  0.75818E-05
 0.70950005E+02  0.32275E-05
 0.71000000E+02 -0.14622E-05
 0.71050003E+02 -0.41408E-05
 0.71099998E+02 -0.42665E-05
 0.71150002E+02 -0.26889E-05
 0.71200005E+02 -0.19400E-05
 0.71250000E+02 -0.26680E-05
 0.71300003E+02 -0.46144E-05
 0.71349998E+02 -0.73516E-05
 0.71400002E+02 -0.87235E-05
 0.71450005E+02 -0.75562E-05
 0.71500000E+02 -0.21631E-05
 0.71550003E+02  0.42252E-05
 0.71599998E+02  0.78955E-05
 0.71650002E+02  0.81570E-05
 0.71700005E+02  0.47555E-05
 0.71750000E+02  0.84298E-06
 0.71800003E+02 -0.29676E-06
 0.71849998E+02  0.21932E-05
 0.71900002E+02  0.55934E-05
 0.71950005E+02  0.70000E-05
 0.72000000E+02  0.73430E-05
 0.72050003E+02  0.70967E-05
 0.72099998E+02  0.47629E-05
 0.72150002E+02  0.42316E-06
 0.72200005E+02 -0.50605E-05
 0.72250000E+02 -0.93281E-05
 0.72300003E+02 -0.95556E-05
 0.72349998E+02 -0.64437E-05
 0.72400002E+02 -0.14835E-05
 0.72450005E+02  0.37878E-05
 0.72500000E+02  0.64587E-05
 0.72550003E+02  0.47720E-05
 0.72599998E+02 -0.10990E-05
 0.72650002E+02 -0.74744E-05
 0.72700005E+02 -0.94707E-05
 0.72750000E+02 -0.65121E-05
 0.72800003E+02 -0.18120E-05
 0.72849998E+02  0.93296E-06
 0.72900002E+02  0.22390E-05
 0.72950005E+02  0.32343E-05
 0.73000000E+02  0.47977E-05
 0.73050003E+02  0.81391E-05
 0.73099998E+02  0.94665E-05
 0.73150002E+02  0.70408E-05
 0.73200005E+02  0.30197E-05
 0.73250000E+02 -0.86147E-06
 0.73300003E+02 -0.36867E-05
 0.73349998E+02 -0.57059E-05
 0.73400002E+02 -0.65194E-05
 0.73450005E+02 -0.73673E-05
 0.73500000E+02 -0.75363E-05
 0.73550003E+02 -0.51784E-05
 0.73599998E+02 -0.14474E-05
 0.73650002E+02  0.14353E-05
 0.73700005E+02  0.86348E-06
 0.73750000E+02 -0.96249E-06
 0.73800003E+02 -0.94638E-06
 0.73849998E+02  0.11989E-05
 0.73900002E+02  0.42577E-05
 0.73950005E+02  0.62497E-05
 0.74000000E+02  0.62242E-05
 0.74050003E+02  0.39324E-05
 0.74099998E+02  0.49296E-06
 0.74150002E+02 -0.32108E-05
 0.74200005E+02 -0.54448E-05
 0.74250000E+02 -0.50345E-05
 0.74300003E+02 -0.34305E-05
 0.74349998E+02 -0.27384E-05
 0.74400002E+02 -0.31081E-05
 0.74450005E+02 -0.26232E-05
 0.74500000E+02 -0.73148E-08
 0.74550003E+02  0.41355E-05
 0.74599998E+02  0.94314E-05
 0.74650002E+02  0.13902E-04
 0.74700005E+02  0.12448E-04
 0.74750000E+02  0.49361E-05
 0.74800003E+02 -0.49672E-05
 0.74849998E+02 -0.11982E-04
 0.74900002E+02 -0.12462E-04
 0.74950005E+02 -0.81954E-05
 0.75000000E+02 -0.15442E-05
 0.75050003E+02  0.50361E-05
 0.75099998E+02  0.81602E-05
 0.75150002E+02  0.54054E-05
 0.75200005E+02 -0.22938E-07
 0.75250000E+02 -0.35162E-05
 0.75300003E+02 -0.36667E-05
 0.75349998E+02 -0.94275E-06
 0.75400002E+02  0.19644E-05
 0.75450005E+02  0.24602E-05
 0.75500000E+02  0.23679E-06
 0.75550003E+02 -0.20028E-05
 0.75599998E+02 -0.17272E-05
 0.75650002E+02  0.59475E-06
 0.75700005E+02  0.21999E-05
 0.75750000E+02  0.10143E-05
 0.75800003E+02 -0.17994E-05
 0.75849998E+02 -0.34969E-05
 0.75900002E+02 -0.32272E-05
 0.75950005E+02 -0.16721E-05
 0.76000000E+02  0.65339E-06
 0.76050003E+02  0.17268E-05
 0.76099998E+02  0.17429E-05
 0.76150002E+02  0.21990E-05
 0.76200005E+02  0.16338E-05
 0.76250000E+02  0.61236E-07
 0.76300003E+02 -0.85560E-06
 0.76349998E+02 -0.90575E-06
 0.76400002E+02 -0.11544E-05
 0.76450005E+02 -0.13870E-05
 0.76500000E+02 -0.11162E-05
 0.76550003E+02 -0.69516E-06
 0.76599998E+02 -0.29651E-06
 0.76650002E+02  0.38345E-06
 0.76700005E+02  0.17464E-05
 0.76750000E+02  0.30873E-05
 0.76800003E+02  0.39163E-05
 0.76849998E+02  0.37714E-05
 0.76900002E+02  0.32487E-05
 0.76950005E+02  0.29557E-05
 0.77000000E+02  0.19563E-05
 0.77050003E+02  0.11755E-07
 0.77099998E+02 -0.19947E-05
 0.77150002E+02 -0.41224E-05
 0.77200005E+02 -0.57071E-05
 0.77250000E+02 -0.51620E-05
 0.77300003E+02 -0.29700E-05
 0.77349998E+02  0.73557E-06
 0.77400002E+02  0.38585E-05
 0.77450005E+02  0.47387E-05
 0.77500000E+02  0.45125E-05
 0.77550003E+02  0.23541E-05
 0.77599998E+02 -0.16835E-05
 0.77650002E+02 -0.53442E-05
 0.77700005E+02 -0.70978E-05
 0.77750000E+02 -0.69117E-05
 0.77800003E+02 -0.48869E-05
 0.77849998E+02 -0.23758E-05
 0.77900002E+02 -0.19404E-05
 0.77950005E+02 -0.35573E-05
 0.78000000E+02 -0.43936E-05
 0.78050003E+02 -0.22032E-05
 0.78099998E+02  0.22932E-05
 0.78150002E+02  0.70151E-05
 0.78200005E+02  0.94024E-05
 0.78250000E+02  0.84044E-05
 0.78300003E+02  0.70389E-05
 0.78349998E+02  0.64822E-05
 0.78400002E+02  0.51058E-05
 0.78450005E+02  0.30278E-05
 0.78500000E+02  0.12045E-05
 0.78550003E+02  0.42345E-06
 0.78599998E+02 -0.40997E-06
 0.78650002E+02 -0.29444E-05
 0.78700005E+02 -0.65665E-05
 0.78750000E+02 -0.88451E-05
 0.78800003E+02 -0.83176E-05
 0.78849998E+02 -0.61672E-05
 0.78900002E+02 -0.39246E-05
 0.78950005E+02 -0.26490E-05
 0.79000000E+02 -0.14862E-05
 0.79050003E+02  0.16560E-06
 0.79099998E+02  0.12641E-05
 0.79150002E+02  0.26442E-05
 0.79200005E+02  0.46057E-05
 0.79250000E+02  0.55271E-05
 0.79300003E+02  0.46189E-05
 0.79349998E+02  0.33468E-05
 0.79400002E+02  0.32471E-05
 0.79450005E+02  0.36085E-05
 0.79500000E+02  0.41428E-05
 0.79550003E+02  0.41575E-05
 0.79599998E+02  0.22453E-05
 0.79650002E+02 -0.71976E-06
 0.79700005E+02 -0.39255E-05
 0.79750000E+02 -0.66779E-05
 0.79800003E+02 -0.86278E-05
 0.79849998E+02 -0.90143E-05
 0.79900002E+02 -0.70658E-05
 0.79950005E+02 -0.41126E-05
 0.80000000E+02 -0.83579E-06
 0.80050003E+02  0.18758E-05
 0.80099998E+02  0.32601E-05
 0.80150002E+02  0.30632E-05
 0.80200005E+02  0.21616E-05
 0.80250000E+02  0.21172E-05
 0.80300003E+02  0.32482E-05
 0.80349998E+02  0.46070E-05
 0.80400002E+02  0.47111E-05
 0.80450005E+02  0.36722E-05
 0.80500000E+02  0.14443E-05
 0.80550003E+02 -0.13157E-05
 0.80599998E+02 -0.22605E-05
 0.80650002E+02 -0.50359E-06
 0.80700005E+02  0.22239E-05
 0.80750000E+02  0.38960E-05
 0.80800003E+02  0.36230E-05
 0.80849998E+02  0.15353E-05
 0.80900002E+02 -0.74667E-06
 0.80950005E+02 -0.20654E-05
 0.81000000E+02 -0.26127E-05
 0.81050003E+02 -0.29877E-05
 0.81099998E+02 -0.31367E-05
 0.81150002E+02 -0.30397E-05
 0.81200005E+02 -0.29735E-05
 0.81250000E+02 -0.29227E-05
 0.81300003E+02 -0.31136E-05
 0.81349998E+02 -0.29653E-05
 0.81400002E+02 -0.24848E-05
 0.81450005E+02 -0.20663E-05
 0.81500000E+02 -0.12578E-05
 0.81550003E+02 -0.16436E-06
 0.81599998E+02  0.10838E-05
 0.81650002E+02  0.20556E-05
 0.81700005E+02  0.28983E-05
 0.81750000E+02  0.43426E-05
 0.81800003E+02  0.51062E-05
 0.81849998E+02  0.36710E-05
 0.81900002E+02  0.14814E-05
 0.81950005E+02  0.21592E-06
 0.82000000E+02 -0.50405E-06
 0.82050003E+02 -0.79723E-06
 0.82099998E+02 -0.12009E-05
 0.82150002E+02 -0.22085E-05
 0.82200005E+02 -0.27046E-05
 0.82250000E+02 -0.15958E-05
 0.82300003E+02  0.93533E-06
 0.82349998E+02  0.31418E-05
 0.82400002E+02  0.34378E-05
 0.82450005E+02  0.18630E-05
 0.82500000E+02  0.51169E-07
 0.82550003E+02 -0.24727E-06
 0.82599998E+02 -0.47268E-07
 0.82650002E+02 -0.56676E-06
 0.82700005E+02 -0.14917E-05
 0.82750000E+02 -0.28674E-05
 0.82800003E+02 -0.37275E-05
 0.82849998E+02 -0.31667E-05
 0.82900002E+02 -0.11074E-05
 0.82950005E+02  0.95191E-06
 0.83000000E+02  0.17843E-05
 0.83050003E+02  0.82462E-06
 0.83099998E+02 -0.17419E-05
 0.83150002E+02 -0.19620E-05
 0.83200005E+02 -0.33477E-06
 0.83250000E+02  0.97126E-06
 0.83300003E+02  0.26529E-05
 0.83349998E+02  0.34490E-05
 0.83400002E+02  0.35157E-05
 0.83450005E+02  0.31355E-05
 0.83500000E+02  0.24669E-05
 0.83550003E+02  0.18390E-05
 0.83599998E+02  0.95160E-06
 0.83650002E+02  0.10844E-05
 0.83700005E+02  0.19909E-05
 0.83750000E+02  0.22753E-05
 0.83800003E+02  0.17375E-05
 0.83849998E+02  0.50207E-10
 0.83900002E+02 -0.21609E-05
 0.83950005E+02 -0.34755E-05
 0.84000000E+02 -0.42232E-05
 0.84050003E+02 -0.49788E-05
 0.84099998E+02 -0.54490E-05
 0.84150002E+02 -0.50452E-05
 0.84200005E+02 -0.42506E-05
 0.84250000E+02 -0.29440E-05
 0.84300003E+02 -0.10737E-05
 0.84349998E+02  0.48890E-06
 0.84400002E+02  0.16492E-05
 0.84450005E+02  0.25911E-05
 0.84500000E+02  0.35283E-05
 0.84550003E+02  0.30507E-05
 0.84599998E+02  0.17569E-05
 0.84650002E+02  0.16711E-05
 0.84700005E+02  0.15963E-05
 0.84750000E+02  0.64739E-06
 0.84800003E+02 -0.69526E-06
 0.84849998E+02 -0.17507E-05
 0.84900002E+02 -0.23543E-05
 0.84950005E+02 -0.17018E-05
 0.85000000E+02 -0.89756E-07
 0.85050003E+02  0.71707E-06
 0.85099998E+02  0.59910E-06
 0.85150002E+02  0.28175E-06
 0.85200005E+02  0.98748E-06
 0.85250000E+02  0.27659E-05
 0.85300003E+02  0.41576E-05
 0.85349998E+02  0.36501E-05
 0.85400002E+02  0.12522E-05
 0.85450005E+02 -0.16160E-05
 0.85500000E+02 -0.36976E-05
 0.85550003E+02 -0.35631E-05
 0.85599998E+02 -0.12419E-05
 0.85650002E+02  0.49080E-06
 0.85700005E+02  0.15529E-06
 0.85750000E+02 -0.84120E-06
 0.85800003E+02 -0.18345E-05
 0.85849998E+02 -0.31750E-05
 0.85900002E+02 -0.38051E-05
 0.85950005E+02 -0.24568E-05
 0.86000000E+02 -0.47104E-06
 0.86050003E+02  0.16845E-05
 0.86099998E+02  0.40527E-05
 0.86150002E+02  0.49342E-05
 0.86200005E+02  0.46260E-05
 0.86250000E+02  0.45253E-05
 0.86300003E+02  0.53472E-05
 0.86349998E+02  0.60486E-05
 0.86400002E+02  0.47629E-05
 0.86450005E+02  0.11887E-05
 0.86500000E+02 -0.38263E-05
 0.86550003E+02 -0.77066E-05
 0.86599998E+02 -0.88334E-05
 0.86650002E+02 -0.79415E-05
 0.86700005E+02 -0.53677E-05
 0.86750000E+02 -0.27207E-05
 0.86800003E+02 -0.12120E-05
 0.86849998E+02  0.37406E-07
 0.86900002E+02  0.12806E-05
 0.86950005E+02  0.20924E-05
 0.87000000E+02  0.20918E-05
 0.87050003E+02  0.21809E-05
 0.87099998E+02  0.27858E-05
 0.87150002E+02  0.35260E-05
 0.87200005E+02  0.38013E-05
 0.87250000E+02  0.31954E-05
 0.87300003E+02  0.23992E-05
 0.87349998E+02  0.21369E-05
 0.87400002E+02  0.24007E-05
 0.87450005E+02  0.17673E-05
 0.87500000E+02  0.24150E-06
 0.87550003E+02 -0.92558E-06
 0.87599998E+02 -0.11430E-05
 0.87650002E+02 -0.12507E-05
 0.87700005E+02 -0.24372E-05
 0.87750000E+02 -0.38326E-05
 0.87800003E+02 -0.50118E-05
 0.87849998E+02 -0.60310E-05
 0.87900002E+02 -0.64868E-05
 0.87950005E+02 -0.53685E-05
 0.88000000E+02 -0.19503E-05
 0.88050003E+02  0.16052E-05
 0.88099998E+02  0.34787E-05
 0.88150002E+02  0.36384E-05
 0.88200005E+02  0.18425E-05
 0.88250000E+02 -0.58122E-06
 0.88300003E+02 -0.16446E-05
 0.88349998E+02 -0.10551E-05
 0.88400002E+02  0.25480E-06
 0.88450005E+02  0.10106E-05
 0.88500000E+02  0.96751E-06
 0.88550003E+02  0.83421E-06
 0.88599998E+02  0.11114E-05
 0.88650002E+02  0.12349E-05
 0.88700005E+02  0.91261E-06
 0.88750000E+02  0.74607E-06
 0.88800003E+02  0.74523E-06
 0.88849998E+02  0.10561E-05
 0.88900002E+02  0.14074E-05
 0.88950005E+02  0.16207E-05
 0.89000000E+02  0.16928E-05
 0.89050003E+02  0.15328E-05
 0.89099998E+02  0.17638E-05
 0.89150002E+02  0.19844E-05
 0.89200005E+02  0.19882E-05
 0.89250000E+02  0.16840E-05
 0.89300003E+02 -0.94737E-07
 0.89349998E+02 -0.28943E-05
 0.89400002E+02 -0.42692E-05
 0.89450005E+02 -0.35872E-05
 0.89500000E+02 -0.18779E-05
 0.89550003E+02  0.49973E-06
 0.89599998E+02  0.21390E-05
 0.89650002E+02  0.18885E-05
 0.89700005E+02  0.17553E-06
 0.89750000E+02 -0.18189E-05
 0.89800003E+02 -0.31963E-05
 0.89849998E+02 -0.37324E-05
 0.89900002E+02 -0.24888E-05
 0.89950005E+02 -0.14811E-06
 0.90000000E+02  0.11984E-05
 0.90050003E+02  0.12392E-05
 0.90099998E+02  0.10867E-05
 0.90150002E+02  0.13023E-05
 0.90200005E+02  0.12213E-05
 0.90250000E+02  0.84775E-06
 0.90300003E+02  0.96503E-06
 0.90349998E+02  0.16191E-05
 0.90400002E+02  0.22832E-05
 0.90450005E+02  0.20973E-05
 0.90500000E+02  0.10617E-05
 0.90550003E+02  0.10148E-06
 0.90599998E+02 -0.45415E-06
 0.90650002E+02 -0.60526E-06
 0.90700005E+02 -0.76956E-06
 0.90750000E+02 -0.11128E-05
 0.90800003E+02 -0.14254E-05
 0.90849998E+02 -0.20231E-05
 0.90900002E+02 -0.29520E-05
 0.90950005E+02 -0.34050E-05
 0.91000000E+02 -0.26955E-05
 0.91050003E+02 -0.94702E-06
 0.91099998E+02  0.11915E-05
 0.91150002E+02  0.27620E-05
 0.91200005E+02  0.29406E-05
 0.91250000E+02  0.14970E-05
 0.91300003E+02  0.82897E-07
 0.91349998E+02 -0.19379E-06
 0.91400002E+02  0.13974E-07
 0.91450005E+02  0.68165E-06
 0.91500000E+02  0.85995E-06
 0.91550003E+02 -0.19893E-06
 0.91599998E+02 -0.16074E-05
 0.91650002E+02 -0.22757E-05
 0.91700005E+02 -0.18274E-05
 0.91750000E+02 -0.11480E-05
 0.91800003E+02 -0.78313E-06
 0.91849998E+02 -0.46718E-08
 0.91900002E+02  0.14675E-05
 0.91950005E+02  0.31676E-05
 0.92000000E+02  0.46274E-05
 0.92050003E+02  0.44802E-05
 0.92099998E+02  0.26075E-05
 0.92150002E+02  0.41659E-06
 0.92200005E+02 -0.11815E-05
 0.92250000E+02 -0.16472E-05
 0.92300003E+02 -0.14763E-05
 0.92349998E+02 -0.15244E-05
 0.92400002E+02 -0.21176E-05
 0.92450005E+02 -0.26919E-05
 0.92500000E+02 -0.30436E-05
 0.92550003E+02 -0.35265E-05
 0.92599998E+02 -0.36168E-05
 0.92650002E+02 -0.27514E-05
 0.92700005E+02 -0.12951E-05
 0.92750000E+02  0.66138E-07
 0.92800003E+02  0.11668E-05
 0.92849998E+02  0.20260E-05
 0.92900002E+02  0.28239E-05
 0.92950005E+02  0.39753E-05
 0.93000000E+02  0.51285E-05
 0.93050003E+02  0.49581E-05
 0.93099998E+02  0.33696E-05
 0.93150002E+02  0.16068E-05
 0.93200005E+02  0.33957E-06
 0.93250000E+02 -0.30183E-06
 0.93300003E+02 -0.15307E-06
 0.93349998E+02  0.19746E-06
 0.93400002E+02 -0.56038E-07
 0.93450005E+02 -0.43756E-06
 0.93500000E+02 -0.14809E-06
 0.93550003E+02  0.61138E-06
 0.93599998E+02  0.66764E-06
 0.93650002E+02 -0.22650E-06
 0.93700005E+02 -0.18522E-05
 0.93750000E+02 -0.40473E-05
 0.93800003E+02 -0.56045E-05
 0.93849998E+02 -0.54236E-05
 0.93900002E+02 -0.32795E-05
 0.93950005E+02 -0.49703E-06
 0.94000000E+02  0.14921E-05
 0.94050003E+02  0.21724E-05
 0.94099998E+02  0.11887E-05
 0.94150002E+02 -0.42578E-06
 0.94200005E+02 -0.13542E-05
 0.94250000E+02 -0.14601E-05
 0.94300003E+02 -0.12417E-05
 0.94349998E+02 -0.64837E-06
 0.94400002E+02  0.37540E-06
 0.94450005E+02  0.85340E-06
 0.94500000E+02  0.77136E-06
 0.94550003E+02  0.52646E-06
 0.94599998E+02  0.49174E-06
 0.94650002E+02  0.90545E-06
 0.94700005E+02  0.14566E-05
 0.94750000E+02  0.21176E-05
 0.94800003E+02  0.24646E-05
 0.94849998E+02  0.22991E-05
 0.94900002E+02  0.15226E-05
 0.94950005E+02  0.42680E-06
 0.95000000E+02  0.25669E-07
 0.95050003E+02  0.57682E-06
 0.95099998E+02  0.14271E-05
 0.95150002E+02  0.15562E-05
 0.95200005E+02  0.49947E-06
 0.95250000E+02 -0.99774E-06
 0.95300003E+02 -0.20174E-05
 0.95349998E+02 -0.22502E-05
 0.95400002E+02 -0.15742E-05
 0.95450005E+02 -0.58700E-06
 0.95500000E+02  0.10283E-06
 0.95550003E+02  0.65840E-06
 0.95599998E+02  0.11954E-05
 0.95650002E+02  0.16434E-05
 0.95700005E+02  0.16751E-05
 0.95750000E+02  0.77959E-06
 0.95800003E+02 -0.77050E-06
 0.95849998E+02 -0.18105E-05
 0.95900002E+02 -0.18353E-05
 0.95950005E+02 -0.13084E-05
 0.96000000E+02 -0.91618E-06
 0.96050003E+02 -0.63522E-06
 0.96099998E+02  0.36203E-07
 0.96150002E+02  0.93812E-06
 0.96200005E+02  0.13144E-05
 0.96250000E+02  0.83448E-06
 0.96300003E+02  0.11607E-06
 0.96349998E+02 -0.38516E-06
 0.96400002E+02 -0.34418E-06
 0.96450005E+02  0.11817E-06
 0.96500000E+02  0.20179E-06
 0.96550003E+02 -0.53567E-06
 0.96599998E+02 -0.18441E-05
 0.96650002E+02 -0.31260E-05
 0.96700005E+02 -0.37158E-05
 0.96750000E+02 -0.33048E-05
 0.96800003E+02 -0.24928E-05
 0.96849998E+02 -0.15665E-05
 0.96900002E+02 -0.44799E-06
 0.96950005E+02  0.83328E-06
 0.97000000E+02  0.20950E-05
 0.97050003E+02  0.29540E-05
 0.97099998E+02  0.34971E-05
 0.97150002E+02  0.36703E-05
 0.97200005E+02  0.31134E-05
 0.97250000E+02  0.20395E-05
 0.97300003E+02  0.11396E-05
 0.97349998E+02  0.92919E-06
 0.97400002E+02  0.13655E-05
 0.97450005E+02  0.16706E-05
 0.97500000E+02  0.11009E-05
 0.97550003E+02 -0.25934E-06
 0.97599998E+02 -0.16074E-05
 0.97650002E+02 -0.22008E-05
 0.97700005E+02 -0.20091E-05
 0.97750000E+02 -0.14003E-05
 0.97800003E+02 -0.56397E-06
 0.97849998E+02  0.11563E-06
 0.97900002E+02  0.61640E-07
 0.97950005E+02 -0.53701E-06
 0.98000000E+02 -0.10380E-05
 0.98050003E+02 -0.11088E-05
 0.98099998E+02 -0.85401E-06
 0.98150002E+02 -0.62139E-06
 0.98200005E+02 -0.46011E-06
 0.98250000E+02  0.19456E-08
 0.98300003E+02  0.90043E-06
 0.98349998E+02  0.18204E-05
 0.98400002E+02  0.21179E-05
 0.98450005E+02  0.15408E-05
 0.98500000E+02  0.60096E-06
 0.98550003E+02 -0.42451E-06
 0.98599998E+02 -0.13329E-05
 0.98650002E+02 -0.10030E-05
 0.98700005E+02  0.24427E-06
 0.98750000E+02  0.57578E-06
 0.98800003E+02 -0.34326E-06
 0.98849998E+02 -0.16714E-05
 0.98900002E+02 -0.24630E-05
 0.98950005E+02 -0.20479E-05
 0.99000000E+02 -0.76021E-06
 0.99050003E+02  0.34569E-06
 0.99099998E+02  0.46430E-06
 0.99150002E+02 -0.12751E-06
 0.99200005E+02 -0.25432E-06
 0.99250000E+02  0.40436E-06
 0.99300003E+02  0.15733E-05
 0.99349998E+02  0.26356E-05
 0.99400002E+02  0.25254E-05
 0.99450005E+02  0.11283E-05
 0.99500000E+02 -0.97075E-06
 0.99550003E+02 -0.25476E-05
 0.99599998E+02 -0.26560E-05
 0.99650002E+02 -0.17341E-05
 0.99700005E+02 -0.73052E-06
 0.99750000E+02 -0.99376E-07
 0.99800003E+02  0.22853E-06
 0.99849998E+02  0.61976E-06
 0.99900002E+02  0.14744E-05
 0.99950005E+02  0.22419E-05
 0.10000000E+03  0.21650E-05
