 0.00000000E+00 -0.13137E-06
 0.50000001E-01 -0.15879E-06
 0.10000000E+00 -0.15406E-06
 0.15000001E+00 -0.11598E-06
 0.20000000E+00 -0.82635E-07
 0.25000000E+00 -0.74904E-07
 0.30000001E+00 -0.88597E-07
 0.34999999E+00 -0.87477E-07
 0.40000001E+00 -0.45910E-07
 0.45000002E+00 -0.31877E-07
 0.50000000E+00 -0.18724E-07
 0.55000001E+00  0.52093E-07
 0.60000002E+00  0.59108E-07
 0.65000004E+00  0.66817E-07
 0.69999999E+00  0.10300E-06
 0.75000000E+00  0.11873E-06
 0.80000001E+00  0.92617E-07
 0.85000002E+00  0.27050E-07
 0.90000004E+00  0.25798E-07
 0.94999999E+00 -0.69193E-08
 0.10000000E+01 -0.17399E-07
 0.10500001E+01  0.25820E-07
 0.11000000E+01  0.16848E-07
 0.11500000E+01  0.49653E-08
 0.12000000E+01  0.38724E-07
 0.12500000E+01  0.59255E-07
 0.13000001E+01  0.74028E-07
 0.13500000E+01  0.77556E-07
 0.14000000E+01  0.51704E-07
 0.14500000E+01  0.90256E-07
 0.15000000E+01  0.55607E-07
 0.15500001E+01 -0.12833E-09
 0.16000000E+01  0.26605E-07
 0.16500000E+01  0.17342E-07
 0.17000000E+01 -0.10683E-07
 0.17500000E+01  0.11196E-07
 0.18000001E+01  0.69290E-07
 0.18500000E+01  0.45277E-07
 0.19000000E+01  0.50511E-07
 0.19500000E+01  0.87610E-07
 0.20000000E+01  0.71738E-07
 0.20500000E+01  0.75690E-07
 0.21000001E+01  0.51454E-07
 0.21500001E+01  0.21829E-07
 0.22000000E+01  0.11023E-07
 0.22500000E+01  0.15542E-07
 0.23000000E+01 -0.12651E-07
 0.23500001E+01 -0.58762E-07
 0.24000001E+01 -0.64516E-07
 0.24500000E+01 -0.77746E-07
 0.25000000E+01 -0.32636E-07
 0.25500000E+01 -0.62551E-08
 0.26000001E+01 -0.14299E-07
 0.26500001E+01  0.30234E-07
 0.27000000E+01  0.98133E-08
 0.27500000E+01 -0.18794E-07
 0.28000000E+01  0.18084E-07
 0.28500001E+01 -0.30877E-08
 0.29000001E+01 -0.38700E-07
 0.29500000E+01  0.19158E-07
 0.30000000E+01  0.24487E-07
 0.30500000E+01  0.88277E-08
 0.31000001E+01  0.52189E-07
 0.31500001E+01  0.44771E-07
 0.32000000E+01  0.42385E-07
 0.32500000E+01  0.21534E-07
 0.33000000E+01 -0.38929E-07
 0.33500001E+01 -0.60653E-07
 0.34000001E+01 -0.71305E-07
 0.34500000E+01 -0.10623E-06
 0.35000000E+01 -0.10657E-06
 0.35500000E+01 -0.40129E-07
 0.36000001E+01 -0.74256E-08
 0.36500001E+01  0.21307E-07
 0.37000000E+01  0.47971E-07
 0.37500000E+01  0.45302E-07
 0.38000000E+01  0.45123E-07
 0.38500001E+01  0.11542E-07
 0.39000001E+01 -0.41583E-08
 0.39500000E+01  0.17142E-07
 0.40000000E+01  0.43352E-07
 0.40500002E+01  0.29225E-07
 0.40999999E+01  0.17021E-07
 0.41500001E+01  0.94178E-08
 0.42000003E+01 -0.37198E-07
 0.42500000E+01 -0.58536E-07
 0.43000002E+01 -0.64336E-07
 0.43499999E+01 -0.65275E-07
 0.44000001E+01 -0.92863E-07
 0.44500003E+01 -0.11782E-06
 0.45000000E+01 -0.95312E-07
 0.45500002E+01 -0.70436E-07
 0.45999999E+01 -0.65137E-07
 0.46500001E+01 -0.87542E-07
 0.47000003E+01 -0.72198E-07
 0.47500000E+01 -0.39846E-07
 0.48000002E+01 -0.31414E-07
 0.48499999E+01  0.13919E-07
 0.49000001E+01  0.45855E-07
 0.49500003E+01  0.30424E-07
 0.50000000E+01  0.16889E-07
 0.50500002E+01  0.28730E-08
 0.50999999E+01 -0.29823E-07
 0.51500001E+01 -0.47203E-07
 0.52000003E+01  0.74972E-09
 0.52500000E+01 -0.25455E-07
 0.53000002E+01 -0.60907E-07
 0.53499999E+01  0.67960E-08
 0.54000001E+01  0.11283E-08
 0.54500003E+01 -0.21298E-07
 0.55000000E+01 -0.28798E-07
 0.55500002E+01 -0.50791E-07
 0.55999999E+01 -0.45299E-07
 0.56500001E+01 -0.67979E-07
 0.57000003E+01 -0.64332E-07
 0.57500000E+01 -0.21412E-07
 0.58000002E+01 -0.39116E-07
 0.58499999E+01 -0.44942E-07
 0.59000001E+01 -0.80631E-08
 0.59500003E+01  0.14247E-07
 0.60000000E+01  0.17066E-07
 0.60500002E+01  0.31827E-07
 0.60999999E+01  0.44706E-07
 0.61500001E+01  0.44202E-07
 0.62000003E+01  0.76138E-07
 0.62500000E+01  0.69416E-07
 0.63000002E+01  0.50376E-07
 0.63499999E+01  0.49636E-07
 0.64000001E+01  0.80189E-07
 0.64500003E+01  0.11165E-06
 0.65000000E+01  0.87040E-07
 0.65500002E+01  0.71430E-07
 0.65999999E+01  0.61250E-07
 0.66500001E+01  0.28315E-07
 0.67000003E+01  0.45104E-07
 0.67500000E+01  0.10517E-06
 0.68000002E+01  0.83119E-07
 0.68499999E+01  0.86173E-07
 0.69000001E+01  0.92749E-07
 0.69500003E+01  0.55694E-07
 0.70000000E+01  0.38198E-07
 0.70500002E+01  0.13563E-07
 0.70999999E+01  0.38850E-07
 0.71500001E+01  0.15739E-07
 0.72000003E+01 -0.37750E-07
 0.72500000E+01 -0.16898E-07
 0.73000002E+01 -0.35193E-07
 0.73499999E+01 -0.28183E-07
 0.74000001E+01 -0.14659E-07
 0.74500003E+01 -0.40220E-07
 0.75000000E+01  0.15453E-07
 0.75500002E+01  0.40766E-07
 0.75999999E+01  0.68049E-07
 0.76500001E+01  0.76500E-07
 0.77000003E+01  0.45137E-07
 0.77500000E+01  0.51636E-07
 0.78000002E+01  0.25395E-07
 0.78499999E+01  0.73209E-08
 0.79000001E+01 -0.14011E-07
 0.79500003E+01 -0.30902E-08
 0.80000000E+01 -0.33240E-07
 0.80500002E+01 -0.84126E-07
 0.81000004E+01 -0.76182E-07
 0.81500006E+01 -0.68150E-07
 0.81999998E+01 -0.68666E-07
 0.82500000E+01 -0.38413E-07
 0.83000002E+01  0.54105E-07
 0.83500004E+01  0.48218E-07
 0.84000006E+01  0.21867E-07
 0.84499998E+01  0.17933E-07
 0.85000000E+01 -0.25423E-07
 0.85500002E+01 -0.30099E-07
 0.86000004E+01 -0.20334E-07
 0.86500006E+01 -0.72653E-08
 0.86999998E+01 -0.40477E-07
 0.87500000E+01 -0.66881E-07
 0.88000002E+01 -0.64119E-07
 0.88500004E+01 -0.99373E-07
 0.89000006E+01 -0.11360E-06
 0.89499998E+01 -0.12673E-06
 0.90000000E+01 -0.11343E-06
 0.90500002E+01 -0.79081E-07
 0.91000004E+01 -0.80936E-07
 0.91500006E+01 -0.44190E-07
 0.91999998E+01 -0.51358E-08
 0.92500000E+01 -0.36973E-07
 0.93000002E+01 -0.21794E-07
 0.93500004E+01  0.13565E-07
 0.94000006E+01 -0.15777E-07
 0.94499998E+01  0.28800E-08
 0.95000000E+01 -0.50565E-09
 0.95500002E+01 -0.27306E-07
 0.96000004E+01 -0.32751E-07
 0.96500006E+01 -0.37194E-07
 0.96999998E+01 -0.50583E-07
 0.97500000E+01 -0.34019E-07
 0.98000002E+01  0.41011E-07
 0.98500004E+01  0.98396E-08
 0.99000006E+01 -0.17309E-07
 0.99499998E+01  0.23170E-07
 0.10000000E+02  0.43690E-07
 0.10050000E+02  0.21906E-07
 0.10100000E+02  0.33904E-08
 0.10150001E+02  0.53712E-07
 0.10200000E+02  0.53819E-07
 0.10250000E+02  0.34046E-07
 0.10300000E+02  0.21017E-07
 0.10350000E+02  0.14951E-07
 0.10400001E+02  0.44477E-07
 0.10450000E+02  0.41537E-07
 0.10500000E+02  0.58994E-07
 0.10550000E+02  0.91315E-07
 0.10600000E+02  0.70887E-07
 0.10650001E+02  0.77954E-07
 0.10700000E+02  0.98904E-07
 0.10750000E+02  0.58240E-07
 0.10800000E+02  0.54537E-07
 0.10850000E+02  0.63300E-07
 0.10900001E+02  0.32799E-07
 0.10950000E+02  0.34476E-07
 0.11000000E+02  0.76948E-07
 0.11050000E+02  0.10397E-06
 0.11100000E+02  0.60035E-07
 0.11150001E+02  0.86318E-07
 0.11200000E+02  0.14836E-06
 0.11250000E+02  0.13526E-06
 0.11300000E+02  0.11280E-06
 0.11350000E+02  0.10048E-06
 0.11400001E+02  0.78535E-07
 0.11450000E+02  0.37064E-07
 0.11500000E+02  0.50462E-07
 0.11550000E+02  0.15211E-07
 0.11600000E+02 -0.65120E-07
 0.11650001E+02 -0.62468E-07
 0.11700000E+02 -0.89570E-07
 0.11750000E+02 -0.57181E-07
 0.11800000E+02 -0.21072E-07
 0.11850000E+02 -0.65455E-07
 0.11900001E+02 -0.29375E-07
 0.11950000E+02 -0.42869E-07
 0.12000000E+02 -0.27787E-07
 0.12050000E+02 -0.17473E-07
 0.12100000E+02 -0.77097E-07
 0.12150001E+02 -0.86463E-07
 0.12200000E+02 -0.13526E-06
 0.12250000E+02 -0.89642E-07
 0.12300000E+02 -0.61140E-07
 0.12350000E+02 -0.90073E-07
 0.12400001E+02 -0.66944E-08
 0.12450000E+02  0.10712E-07
 0.12500000E+02 -0.12669E-08
 0.12550000E+02  0.24177E-07
 0.12600000E+02  0.12691E-07
 0.12650001E+02 -0.21957E-07
 0.12700000E+02 -0.53157E-07
 0.12750000E+02 -0.33087E-07
 0.12800000E+02 -0.69681E-07
 0.12850000E+02 -0.93521E-07
 0.12900001E+02 -0.64692E-07
 0.12950000E+02 -0.92334E-07
 0.13000000E+02 -0.83148E-07
 0.13050000E+02 -0.63017E-07
 0.13100000E+02 -0.70111E-07
 0.13150001E+02 -0.65447E-07
 0.13200000E+02 -0.28948E-07
 0.13250000E+02  0.95190E-08
 0.13300000E+02  0.41383E-07
 0.13350000E+02  0.13135E-07
 0.13400001E+02 -0.16608E-08
 0.13450000E+02  0.10470E-07
 0.13500000E+02 -0.31930E-07
 0.13550000E+02 -0.10403E-07
 0.13600000E+02  0.11800E-07
 0.13650001E+02  0.20715E-07
 0.13700000E+02  0.25564E-07
 0.13750000E+02  0.31793E-07
 0.13800000E+02  0.20501E-07
 0.13850000E+02 -0.48868E-07
 0.13900001E+02 -0.42082E-07
 0.13950000E+02 -0.16047E-07
 0.14000000E+02 -0.29891E-07
 0.14050000E+02 -0.21502E-08
 0.14100000E+02  0.14223E-07
 0.14150001E+02 -0.26802E-08
 0.14200000E+02 -0.22059E-07
 0.14250000E+02 -0.39480E-07
 0.14300000E+02  0.38470E-08
 0.14350000E+02  0.36896E-07
 0.14400001E+02  0.28868E-07
 0.14450000E+02  0.50048E-07
 0.14500000E+02  0.31758E-07
 0.14550000E+02  0.14294E-07
 0.14600000E+02  0.27012E-07
 0.14650001E+02  0.49313E-07
 0.14700000E+02  0.51298E-07
 0.14750000E+02  0.18211E-07
 0.14800000E+02  0.78687E-07
 0.14850000E+02  0.92849E-07
 0.14900001E+02  0.59458E-07
 0.14950000E+02  0.10170E-06
 0.15000000E+02  0.63730E-07
 0.15050000E+02  0.19135E-07
 0.15100000E+02  0.41121E-07
 0.15150001E+02  0.39982E-07
 0.15200000E+02  0.27683E-07
 0.15250000E+02  0.26723E-07
 0.15300000E+02  0.25155E-07
 0.15350000E+02  0.58734E-07
 0.15400001E+02  0.73562E-07
 0.15450000E+02  0.39761E-07
 0.15500000E+02  0.52290E-07
 0.15550000E+02  0.41801E-07
 0.15600000E+02  0.55192E-07
 0.15650001E+02  0.86005E-07
 0.15700000E+02  0.58273E-07
 0.15750000E+02  0.94694E-07
 0.15800000E+02  0.75033E-07
 0.15850000E+02 -0.10451E-07
 0.15900001E+02 -0.27432E-07
 0.15950000E+02 -0.18612E-07
 0.16000000E+02 -0.30559E-07
 0.16050001E+02 -0.93859E-07
 0.16100000E+02 -0.11776E-06
 0.16150000E+02 -0.34906E-07
 0.16200001E+02  0.11092E-07
 0.16250000E+02 -0.84426E-08
 0.16300001E+02  0.67634E-08
 0.16350000E+02 -0.35242E-08
 0.16400000E+02 -0.40477E-07
 0.16450001E+02 -0.64108E-07
 0.16500000E+02 -0.55811E-07
 0.16550001E+02 -0.66299E-07
 0.16600000E+02 -0.75657E-07
 0.16650000E+02 -0.43352E-07
 0.16700001E+02 -0.85200E-07
 0.16750000E+02 -0.11395E-06
 0.16800001E+02 -0.11965E-06
 0.16850000E+02 -0.13041E-06
 0.16900000E+02 -0.15309E-06
 0.16950001E+02 -0.19235E-06
 0.17000000E+02 -0.13761E-06
 0.17050001E+02 -0.14039E-06
 0.17100000E+02 -0.16830E-06
 0.17150000E+02 -0.12812E-06
 0.17200001E+02 -0.97621E-07
 0.17250000E+02 -0.49928E-07
 0.17300001E+02 -0.18513E-07
 0.17350000E+02  0.26598E-07
 0.17400000E+02  0.55383E-07
 0.17450001E+02  0.73375E-07
 0.17500000E+02  0.10727E-06
 0.17550001E+02  0.10925E-06
 0.17600000E+02  0.10015E-06
 0.17650000E+02  0.10139E-06
 0.17700001E+02  0.12985E-06
 0.17750000E+02  0.15001E-06
 0.17800001E+02  0.14133E-06
 0.17850000E+02  0.12084E-06
 0.17900000E+02  0.11032E-06
 0.17950001E+02  0.11938E-06
 0.18000000E+02  0.92921E-07
 0.18050001E+02  0.54959E-07
 0.18100000E+02  0.50468E-07
 0.18150000E+02  0.84119E-07
 0.18200001E+02  0.11168E-06
 0.18250000E+02  0.76212E-07
 0.18300001E+02  0.56496E-07
 0.18350000E+02  0.36528E-07
 0.18400000E+02  0.22378E-07
 0.18450001E+02  0.29809E-07
 0.18500000E+02 -0.35462E-07
 0.18550001E+02 -0.63334E-07
 0.18600000E+02 -0.43892E-07
 0.18650000E+02 -0.90367E-07
 0.18700001E+02 -0.11053E-06
 0.18750000E+02 -0.11696E-06
 0.18800001E+02 -0.16621E-06
 0.18850000E+02 -0.12635E-06
 0.18900000E+02 -0.42884E-07
 0.18950001E+02 -0.47186E-07
 0.19000000E+02 -0.39788E-07
 0.19050001E+02 -0.10361E-07
 0.19100000E+02 -0.50737E-07
 0.19150000E+02 -0.96430E-07
 0.19200001E+02 -0.49949E-07
 0.19250000E+02  0.61560E-08
 0.19300001E+02  0.34881E-07
 0.19350000E+02  0.72385E-07
 0.19400000E+02  0.95797E-07
 0.19450001E+02  0.14251E-06
 0.19500000E+02  0.14112E-06
 0.19550001E+02  0.13208E-06
 0.19600000E+02  0.61955E-07
 0.19650000E+02  0.82033E-07
 0.19700001E+02  0.78372E-07
 0.19750000E+02  0.10872E-06
 0.19800001E+02 -0.66795E-08
 0.19850000E+02 -0.40882E-06
 0.19900000E+02 -0.81811E-06
 0.19950001E+02 -0.82032E-06
 0.20000000E+02  0.31499E-05
 0.20050001E+02  0.83836E-05
 0.20100000E+02  0.10056E-04
 0.20150000E+02  0.49704E-05
 0.20200001E+02 -0.47238E-05
 0.20250000E+02 -0.83320E-05
 0.20300001E+02  0.33157E-05
 0.20350000E+02  0.88891E-05
 0.20400000E+02 -0.15288E-04
 0.20450001E+02 -0.19078E-04
 0.20500000E+02 -0.10789E-04
 0.20550001E+02 -0.32099E-04
 0.20600000E+02 -0.34469E-04
 0.20650000E+02 -0.41665E-05
 0.20700001E+02  0.57496E-04
 0.20750000E+02  0.86944E-04
 0.20800001E+02  0.17635E-04
 0.20850000E+02 -0.46337E-04
 0.20900000E+02 -0.54256E-04
 0.20950001E+02 -0.16078E-04
 0.21000000E+02  0.54102E-04
 0.21050001E+02  0.57942E-04
 0.21100000E+02 -0.21072E-04
 0.21150000E+02 -0.76871E-04
 0.21200001E+02 -0.30476E-04
 0.21250000E+02  0.40484E-04
 0.21300001E+02  0.52636E-04
 0.21350000E+02  0.29125E-04
 0.21400000E+02 -0.23582E-04
 0.21450001E+02 -0.64355E-04
 0.21500000E+02 -0.26869E-04
 0.21550001E+02  0.32921E-04
 0.21600000E+02  0.37720E-04
 0.21650000E+02  0.13011E-04
 0.21700001E+02 -0.16544E-04
 0.21750000E+02 -0.26998E-04
 0.21800001E+02 -0.41893E-06
 0.21850000E+02  0.44135E-04
 0.21900000E+02  0.53015E-04
 0.21950001E+02 -0.19990E-04
 0.22000000E+02 -0.88286E-04
 0.22050001E+02 -0.58023E-04
 0.22100000E+02  0.21844E-04
 0.22150000E+02  0.51256E-04
 0.22200001E+02  0.44085E-04
 0.22250000E+02  0.37418E-04
 0.22300001E+02 -0.32601E-04
 0.22350000E+02 -0.92806E-04
 0.22400000E+02 -0.20600E-04
 0.22450001E+02  0.59448E-04
 0.22500000E+02  0.60005E-04
 0.22550001E+02  0.13550E-04
 0.22600000E+02 -0.73137E-04
 0.22650000E+02 -0.59372E-04
 0.22700001E+02  0.19926E-04
 0.22750000E+02  0.33857E-04
 0.22800001E+02  0.58318E-04
 0.22850000E+02  0.34194E-04
 0.22900000E+02 -0.43692E-04
 0.22950001E+02 -0.50763E-04
 0.23000000E+02 -0.10633E-04
 0.23050001E+02  0.85539E-05
 0.23100000E+02  0.28793E-04
 0.23150000E+02  0.62165E-04
 0.23200001E+02  0.55364E-05
 0.23250000E+02 -0.81996E-04
 0.23300001E+02 -0.46686E-04
 0.23350000E+02  0.44741E-04
 0.23400000E+02  0.61215E-04
 0.23450001E+02 -0.14749E-04
 0.23500000E+02 -0.68283E-04
 0.23550001E+02 -0.30016E-04
 0.23600000E+02  0.36084E-04
 0.23650000E+02  0.42259E-04
 0.23700001E+02  0.12707E-04
 0.23750000E+02  0.21284E-05
 0.23800001E+02 -0.48141E-04
 0.23850000E+02 -0.53246E-04
 0.23900000E+02  0.28945E-04
 0.23950001E+02  0.69695E-04
 0.24000000E+02  0.38146E-04
 0.24050001E+02  0.15281E-05
 0.24100000E+02 -0.73504E-05
 0.24150000E+02 -0.17975E-04
 0.24200001E+02 -0.11215E-04
 0.24250000E+02 -0.39260E-04
 0.24300001E+02 -0.47100E-04
 0.24350000E+02  0.13157E-04
 0.24400000E+02  0.23116E-04
 0.24450001E+02  0.29117E-04
 0.24500000E+02  0.12531E-04
 0.24550001E+02 -0.58922E-04
 0.24600000E+02 -0.38891E-04
 0.24650000E+02  0.43621E-04
 0.24700001E+02  0.44222E-04
 0.24750000E+02  0.30424E-04
 0.24800001E+02  0.27950E-04
 0.24850000E+02 -0.12440E-04
 0.24900000E+02 -0.39450E-04
 0.24950001E+02 -0.44215E-04
 0.25000000E+02  0.96762E-05
 0.25050001E+02  0.55594E-04
 0.25100000E+02  0.13275E-04
 0.25150000E+02 -0.28944E-04
 0.25200001E+02 -0.59101E-04
 0.25250000E+02 -0.44840E-04
 0.25300001E+02  0.12894E-04
 0.25350000E+02  0.31620E-04
 0.25400000E+02  0.29295E-04
 0.25450001E+02 -0.68807E-06
 0.25500000E+02 -0.18511E-04
 0.25550001E+02  0.32230E-04
 0.25600000E+02  0.63087E-04
 0.25650000E+02  0.17482E-04
 0.25700001E+02 -0.40318E-04
 0.25750000E+02 -0.46781E-04
 0.25800001E+02 -0.22462E-04
 0.25850000E+02  0.46926E-05
 0.25900000E+02  0.27909E-04
 0.25950001E+02  0.19870E-04
 0.26000000E+02 -0.24837E-04
 0.26050001E+02 -0.41206E-04
 0.26100000E+02 -0.28514E-05
 0.26150000E+02  0.14724E-04
 0.26200001E+02  0.12018E-04
 0.26250000E+02  0.17486E-04
 0.26300001E+02  0.11563E-04
 0.26350000E+02 -0.20732E-05
 0.26400000E+02 -0.21531E-04
 0.26450001E+02 -0.30573E-04
 0.26500000E+02 -0.38049E-05
 0.26550001E+02  0.18370E-04
 0.26600000E+02  0.22875E-04
 0.26650000E+02  0.27956E-04
 0.26700001E+02  0.11184E-04
 0.26750000E+02  0.68991E-05
 0.26800001E+02 -0.59532E-05
 0.26850000E+02 -0.15278E-04
 0.26900000E+02 -0.61947E-05
 0.26950001E+02 -0.20474E-04
 0.27000000E+02  0.12137E-04
 0.27050001E+02  0.40100E-04
 0.27100000E+02 -0.40009E-05
 0.27150000E+02 -0.37795E-04
 0.27200001E+02 -0.26573E-04
 0.27250000E+02 -0.37989E-05
 0.27300001E+02  0.32239E-05
 0.27350000E+02  0.40236E-05
 0.27400000E+02 -0.11017E-04
 0.27450001E+02 -0.26355E-04
 0.27500000E+02  0.10871E-04
 0.27550001E+02  0.39503E-04
 0.27600000E+02  0.26319E-04
 0.27650000E+02 -0.16429E-06
 0.27700001E+02 -0.25486E-04
 0.27750000E+02 -0.16135E-04
 0.27800001E+02  0.28790E-06
 0.27850000E+02  0.23581E-04
 0.27900000E+02  0.14205E-04
 0.27950001E+02 -0.34112E-04
 0.28000000E+02 -0.24649E-04
 0.28050001E+02  0.11124E-04
 0.28100000E+02  0.15981E-04
 0.28150000E+02  0.94631E-05
 0.28200001E+02 -0.97373E-06
 0.28250000E+02 -0.96085E-05
 0.28300001E+02  0.16648E-04
 0.28350000E+02  0.37524E-04
 0.28400000E+02  0.20277E-04
 0.28450001E+02  0.95842E-06
 0.28500000E+02 -0.39596E-04
 0.28550001E+02 -0.53006E-04
 0.28600000E+02 -0.44142E-05
 0.28650000E+02  0.16403E-04
 0.28700001E+02  0.11097E-04
 0.28750000E+02  0.20511E-04
 0.28800001E+02  0.14810E-04
 0.28850000E+02 -0.46508E-05
 0.28900000E+02 -0.15164E-04
 0.28950001E+02 -0.98350E-05
 0.29000000E+02  0.57531E-05
 0.29050001E+02 -0.11875E-04
 0.29100000E+02 -0.25842E-04
 0.29150000E+02 -0.97067E-05
 0.29200001E+02  0.89709E-05
 0.29250000E+02  0.57278E-04
 0.29300001E+02  0.55746E-04
 0.29350000E+02  0.71940E-06
 0.29400000E+02 -0.30637E-04
 0.29450001E+02 -0.55732E-04
 0.29500000E+02 -0.41424E-04
 0.29550001E+02 -0.20964E-05
 0.29600000E+02  0.15670E-04
 0.29650000E+02  0.12563E-04
 0.29700001E+02  0.54632E-05
 0.29750000E+02  0.10516E-04
 0.29800001E+02 -0.62286E-05
 0.29850000E+02 -0.54500E-05
 0.29900000E+02 -0.28842E-05
 0.29950001E+02 -0.19967E-04
 0.30000000E+02  0.33666E-05
 0.30050001E+02  0.13528E-04
 0.30100000E+02  0.35377E-04
 0.30150000E+02  0.45674E-04
 0.30200001E+02  0.16479E-04
 0.30250000E+02 -0.71471E-06
 0.30300001E+02 -0.28037E-04
 0.30350000E+02 -0.42295E-04
 0.30400000E+02 -0.58784E-04
 0.30450001E+02 -0.30717E-04
 0.30500000E+02  0.40040E-04
 0.30550001E+02  0.48951E-04
 0.30600000E+02  0.31080E-04
 0.30650000E+02  0.31335E-05
 0.30700001E+02 -0.35622E-04
 0.30750000E+02 -0.24482E-04
 0.30800001E+02  0.13757E-04
 0.30850000E+02  0.25192E-04
 0.30900000E+02  0.27565E-05
 0.30950001E+02 -0.17930E-04
 0.31000000E+02 -0.63849E-05
 0.31050001E+02  0.17903E-04
 0.31100000E+02  0.41438E-04
 0.31150000E+02  0.25518E-04
 0.31200001E+02 -0.22550E-04
 0.31250000E+02 -0.47096E-04
 0.31300001E+02 -0.28451E-04
 0.31350000E+02  0.61632E-05
 0.31400000E+02 -0.56965E-05
 0.31450001E+02 -0.20663E-04
 0.31500000E+02  0.96884E-05
 0.31550001E+02  0.23577E-04
 0.31600000E+02  0.16665E-04
 0.31650000E+02  0.88995E-05
 0.31700001E+02 -0.14696E-04
 0.31750000E+02 -0.26388E-04
 0.31800001E+02 -0.19586E-05
 0.31850000E+02  0.22233E-04
 0.31900000E+02 -0.51782E-05
 0.31950001E+02 -0.25761E-04
 0.32000000E+02 -0.50404E-05
 0.32049999E+02 -0.45883E-05
 0.32100002E+02  0.85494E-05
 0.32150002E+02  0.49565E-04
 0.32200001E+02  0.38325E-04
 0.32250000E+02 -0.18332E-04
 0.32299999E+02 -0.24193E-04
 0.32350002E+02 -0.90654E-05
 0.32400002E+02 -0.19289E-04
 0.32450001E+02  0.92902E-05
 0.32500000E+02  0.13128E-04
 0.32549999E+02 -0.46994E-05
 0.32600002E+02  0.23049E-04
 0.32650002E+02  0.77440E-05
 0.32700001E+02 -0.83686E-05
 0.32750000E+02 -0.73725E-05
 0.32799999E+02 -0.32180E-04
 0.32850002E+02 -0.24186E-04
 0.32900002E+02 -0.20856E-05
 0.32950001E+02  0.10254E-04
 0.33000000E+02  0.18494E-04
 0.33049999E+02  0.22495E-04
 0.33100002E+02  0.11062E-04
 0.33150002E+02  0.49144E-05
 0.33200001E+02  0.64618E-05
 0.33250000E+02 -0.26407E-04
 0.33299999E+02 -0.28571E-04
 0.33350002E+02 -0.35687E-06
 0.33400002E+02  0.89167E-05
 0.33450001E+02  0.18099E-04
 0.33500000E+02  0.18035E-04
 0.33549999E+02  0.27841E-04
 0.33600002E+02  0.22465E-04
 0.33650002E+02 -0.23036E-04
 0.33700001E+02 -0.49228E-04
 0.33750000E+02 -0.33615E-04
 0.33799999E+02 -0.59301E-05
 0.33850002E+02  0.59104E-05
 0.33900002E+02  0.92761E-05
 0.33950001E+02  0.80925E-05
 0.34000000E+02 -0.13669E-05
 0.34049999E+02  0.71392E-05
 0.34100002E+02  0.29018E-04
 0.34150002E+02  0.14984E-04
 0.34200001E+02 -0.71285E-05
 0.34250000E+02 -0.12853E-04
 0.34299999E+02 -0.27698E-04
 0.34350002E+02 -0.19556E-04
 0.34400002E+02  0.40939E-05
 0.34450001E+02  0.78641E-05
 0.34500000E+02  0.78682E-05
 0.34549999E+02  0.22918E-04
 0.34600002E+02  0.29440E-04
 0.34650002E+02  0.34032E-04
 0.34700001E+02  0.19784E-04
 0.34750000E+02 -0.44435E-04
 0.34799999E+02 -0.54665E-04
 0.34850002E+02 -0.20820E-04
 0.34900002E+02 -0.18832E-04
 0.34950001E+02 -0.12575E-04
 0.35000000E+02  0.32068E-05
 0.35049999E+02  0.20393E-04
 0.35100002E+02  0.49832E-04
 0.35150002E+02  0.55254E-04
 0.35200001E+02  0.57432E-05
 0.35250000E+02 -0.49436E-04
 0.35299999E+02 -0.10611E-03
 0.35350002E+02 -0.10698E-03
 0.35400002E+02 -0.21686E-04
 0.35450001E+02  0.36795E-04
 0.35500000E+02  0.70838E-04
 0.35549999E+02  0.10095E-03
 0.35600002E+02  0.79966E-04
 0.35650002E+02  0.36211E-04
 0.35700001E+02 -0.50130E-05
 0.35750000E+02 -0.36337E-04
 0.35799999E+02 -0.32402E-04
 0.35850002E+02 -0.29273E-04
 0.35900002E+02  0.10839E-04
 0.35950001E+02  0.50443E-04
 0.36000000E+02  0.11415E-04
 0.36049999E+02 -0.59261E-07
 0.36100002E+02  0.15472E-04
 0.36150002E+02  0.45062E-05
 0.36200001E+02 -0.30011E-04
 0.36250000E+02 -0.70289E-05
 0.36299999E+02  0.36273E-04
 0.36350002E+02 -0.49911E-04
 0.36400002E+02 -0.71172E-04
 0.36450001E+02  0.44538E-04
 0.36500000E+02  0.39931E-04
 0.36549999E+02 -0.68346E-04
 0.36600002E+02 -0.96199E-04
 0.36650002E+02 -0.32905E-04
 0.36700001E+02  0.39626E-04
 0.36750000E+02  0.31612E-04
 0.36799999E+02  0.20715E-05
 0.36850002E+02 -0.16766E-04
 0.36900002E+02 -0.29330E-04
 0.36950001E+02  0.10414E-04
 0.37000000E+02 -0.13131E-04
 0.37049999E+02 -0.32928E-04
 0.37100002E+02  0.29215E-04
 0.37150002E+02  0.31648E-04
 0.37200001E+02 -0.19477E-04
 0.37250000E+02  0.10243E-04
 0.37299999E+02  0.95561E-04
 0.37350002E+02  0.78704E-04
 0.37400002E+02  0.36476E-04
 0.37450001E+02  0.71720E-04
 0.37500000E+02  0.15842E-04
 0.37549999E+02 -0.13173E-03
 0.37600002E+02 -0.12792E-03
 0.37650002E+02 -0.18431E-04
 0.37700001E+02  0.28818E-04
 0.37750000E+02  0.56535E-04
 0.37799999E+02  0.62259E-04
 0.37850002E+02 -0.86820E-07
 0.37900002E+02 -0.70035E-04
 0.37950001E+02 -0.47419E-04
 0.38000000E+02 -0.63971E-05
 0.38049999E+02 -0.24584E-04
 0.38100002E+02 -0.16975E-04
 0.38150002E+02  0.53332E-05
 0.38200001E+02  0.89989E-05
 0.38250000E+02  0.40880E-04
 0.38299999E+02  0.16675E-03
 0.38350002E+02  0.16279E-03
 0.38400002E+02 -0.74641E-04
 0.38450001E+02 -0.17023E-03
 0.38500000E+02 -0.89013E-04
 0.38549999E+02 -0.44417E-04
 0.38600002E+02 -0.16519E-05
 0.38650002E+02  0.70691E-04
 0.38700001E+02  0.51053E-04
 0.38750000E+02 -0.83250E-05
 0.38799999E+02 -0.86181E-05
 0.38850002E+02 -0.42052E-04
 0.38900002E+02 -0.65724E-04
 0.38950001E+02 -0.14039E-04
 0.39000000E+02  0.44259E-04
 0.39049999E+02  0.60018E-04
 0.39100002E+02  0.35895E-04
 0.39150002E+02 -0.32971E-04
 0.39200001E+02 -0.77203E-04
 0.39250000E+02 -0.34564E-04
 0.39299999E+02  0.21019E-04
 0.39350002E+02  0.45024E-04
 0.39400002E+02  0.41658E-04
 0.39450001E+02  0.48646E-04
 0.39500000E+02  0.39921E-04
 0.39549999E+02 -0.38174E-04
 0.39600002E+02 -0.66104E-04
 0.39650002E+02  0.33023E-05
 0.39700001E+02  0.37451E-04
 0.39750000E+02  0.27810E-04
 0.39799999E+02  0.32810E-04
 0.39850002E+02  0.24728E-04
 0.39900002E+02 -0.48489E-04
 0.39950001E+02 -0.11935E-03
 0.40000000E+02 -0.46533E-04
 0.40049999E+02  0.32602E-04
 0.40100002E+02  0.15413E-06
 0.40150002E+02 -0.11768E-04
 0.40200001E+02  0.89019E-05
 0.40250000E+02 -0.10208E-05
 0.40299999E+02  0.29714E-05
 0.40350002E+02  0.25595E-04
 0.40400002E+02  0.16280E-04
 0.40450001E+02  0.34290E-04
 0.40500000E+02  0.56596E-04
 0.40549999E+02  0.38190E-04
 0.40600002E+02  0.37777E-04
 0.40650002E+02  0.17693E-04
 0.40700001E+02 -0.34295E-04
 0.40750000E+02 -0.49721E-04
 0.40799999E+02 -0.39218E-04
 0.40850002E+02 -0.40065E-04
 0.40900002E+02 -0.30552E-04
 0.40950001E+02  0.64957E-05
 0.41000000E+02  0.31091E-04
 0.41049999E+02  0.54332E-05
 0.41100002E+02 -0.13435E-04
 0.41150002E+02 -0.11789E-04
 0.41200001E+02 -0.42331E-04
 0.41250000E+02 -0.49188E-04
 0.41299999E+02 -0.15964E-04
 0.41350002E+02 -0.33627E-05
 0.41400002E+02 -0.42012E-05
 0.41450001E+02  0.13659E-04
 0.41500000E+02  0.46919E-04
 0.41549999E+02  0.50444E-04
 0.41600002E+02  0.26908E-04
 0.41650002E+02  0.19654E-04
 0.41700001E+02  0.62847E-05
 0.41750000E+02 -0.14568E-04
 0.41799999E+02 -0.14494E-04
 0.41850002E+02  0.15906E-04
 0.41900002E+02  0.40948E-04
 0.41950001E+02  0.49797E-05
 0.42000000E+02 -0.26368E-04
 0.42049999E+02 -0.16350E-04
 0.42100002E+02  0.23185E-05
 0.42150002E+02  0.15946E-04
 0.42200001E+02  0.61695E-05
 0.42250000E+02  0.97785E-05
 0.42299999E+02  0.15680E-05
 0.42350002E+02 -0.34733E-04
 0.42400002E+02 -0.19668E-04
 0.42450001E+02 -0.51124E-06
 0.42500000E+02 -0.31110E-04
 0.42549999E+02 -0.41810E-04
 0.42600002E+02 -0.17983E-04
 0.42650002E+02 -0.12845E-04
 0.42700001E+02  0.52834E-05
 0.42750000E+02  0.59688E-04
 0.42799999E+02  0.60588E-04
 0.42850002E+02  0.26371E-04
 0.42900002E+02  0.12257E-04
 0.42950001E+02  0.16761E-05
 0.43000000E+02 -0.12632E-04
 0.43049999E+02 -0.34414E-04
 0.43100002E+02 -0.25377E-04
 0.43150002E+02 -0.10160E-05
 0.43200001E+02  0.12498E-05
 0.43250000E+02  0.15420E-04
 0.43299999E+02  0.31841E-04
 0.43350002E+02  0.13364E-04
 0.43400002E+02 -0.26286E-04
 0.43450001E+02 -0.40113E-04
 0.43500000E+02 -0.33549E-04
 0.43549999E+02 -0.44123E-04
 0.43600002E+02 -0.32972E-04
 0.43650002E+02  0.97254E-05
 0.43700001E+02  0.52148E-04
 0.43750000E+02  0.55156E-04
 0.43799999E+02  0.20461E-04
 0.43850002E+02  0.13845E-04
 0.43900002E+02  0.77217E-06
 0.43950001E+02 -0.18944E-04
 0.44000000E+02 -0.11958E-04
 0.44049999E+02 -0.14248E-04
 0.44100002E+02 -0.18803E-04
 0.44150002E+02 -0.12464E-04
 0.44200001E+02  0.14492E-04
 0.44250000E+02  0.53816E-04
 0.44299999E+02  0.62928E-04
 0.44350002E+02  0.32308E-04
 0.44400002E+02  0.43405E-05
 0.44450001E+02 -0.82157E-05
 0.44500000E+02 -0.20443E-04
 0.44549999E+02 -0.16293E-04
 0.44600002E+02 -0.61150E-05
 0.44650002E+02 -0.10058E-04
 0.44700001E+02 -0.22525E-04
 0.44750000E+02 -0.27201E-04
 0.44799999E+02 -0.14528E-04
 0.44850002E+02 -0.12909E-04
 0.44900002E+02 -0.16780E-04
 0.44950001E+02 -0.17732E-04
 0.45000000E+02 -0.38157E-04
 0.45049999E+02 -0.38733E-04
 0.45100002E+02 -0.86760E-05
 0.45150002E+02  0.31353E-04
 0.45200001E+02  0.54000E-04
 0.45250000E+02  0.30585E-04
 0.45299999E+02  0.99879E-05
 0.45350002E+02  0.79150E-05
 0.45400002E+02  0.49187E-05
 0.45450001E+02 -0.21482E-05
 0.45500000E+02  0.43864E-05
 0.45549999E+02  0.26471E-04
 0.45600002E+02  0.21075E-04
 0.45650002E+02  0.19077E-04
 0.45700001E+02  0.16061E-04
 0.45750000E+02 -0.26770E-04
 0.45799999E+02 -0.55603E-04
 0.45850002E+02 -0.40233E-04
 0.45900002E+02 -0.16649E-04
 0.45950001E+02 -0.55859E-05
 0.46000000E+02  0.12123E-04
 0.46049999E+02  0.28241E-04
 0.46100002E+02  0.21721E-04
 0.46150002E+02  0.11210E-04
 0.46200001E+02  0.10903E-04
 0.46250000E+02 -0.74265E-05
 0.46299999E+02 -0.42722E-04
 0.46350002E+02 -0.40967E-04
 0.46400002E+02 -0.13060E-05
 0.46450001E+02  0.27575E-04
 0.46500000E+02  0.37239E-04
 0.46549999E+02  0.28966E-04
 0.46600002E+02  0.90421E-05
 0.46650002E+02  0.79041E-05
 0.46700001E+02  0.11968E-04
 0.46750000E+02 -0.54904E-05
 0.46799999E+02 -0.11472E-04
 0.46850002E+02 -0.42189E-05
 0.46900002E+02 -0.16375E-04
 0.46950001E+02 -0.11768E-04
 0.47000000E+02  0.16269E-04
 0.47049999E+02  0.31339E-04
 0.47100002E+02  0.14973E-04
 0.47150002E+02 -0.18528E-04
 0.47200001E+02 -0.39338E-04
 0.47250000E+02 -0.47583E-04
 0.47299999E+02 -0.36109E-04
 0.47350002E+02 -0.19058E-04
 0.47400002E+02  0.81257E-05
 0.47450001E+02  0.39424E-04
 0.47500000E+02  0.36492E-04
 0.47549999E+02  0.24583E-04
 0.47600002E+02  0.22154E-05
 0.47650002E+02 -0.31522E-04
 0.47700001E+02 -0.43095E-04
 0.47750000E+02 -0.28772E-04
 0.47799999E+02  0.50513E-05
 0.47850002E+02  0.35975E-04
 0.47900002E+02  0.41182E-04
 0.47950001E+02  0.25356E-04
 0.48000000E+02  0.14285E-04
 0.48049999E+02  0.62401E-05
 0.48100002E+02 -0.95863E-05
 0.48150002E+02 -0.23209E-04
 0.48200001E+02 -0.25427E-04
 0.48250000E+02 -0.58549E-05
 0.48299999E+02  0.22507E-04
 0.48350002E+02  0.23822E-04
 0.48400002E+02  0.85007E-05
 0.48450001E+02  0.27401E-05
 0.48500000E+02 -0.24292E-05
 0.48549999E+02 -0.16767E-05
 0.48600002E+02 -0.18468E-05
 0.48650002E+02 -0.12755E-04
 0.48700001E+02 -0.21622E-04
 0.48750000E+02 -0.19824E-04
 0.48799999E+02 -0.46207E-05
 0.48850002E+02  0.91556E-05
 0.48900002E+02  0.11143E-04
 0.48950001E+02  0.28469E-05
 0.49000000E+02 -0.42624E-05
 0.49049999E+02 -0.51658E-05
 0.49100002E+02 -0.57767E-05
 0.49150002E+02  0.36290E-05
 0.49200001E+02  0.19124E-04
 0.49250000E+02  0.23082E-04
 0.49299999E+02  0.16759E-04
 0.49350002E+02  0.39005E-05
 0.49400002E+02 -0.12508E-04
 0.49450001E+02 -0.22364E-04
 0.49500000E+02 -0.22734E-04
 0.49549999E+02 -0.77721E-05
 0.49600002E+02  0.15266E-04
 0.49650002E+02  0.12790E-04
 0.49700001E+02 -0.11263E-04
 0.49750000E+02 -0.21398E-04
 0.49799999E+02 -0.14244E-04
 0.49850002E+02  0.43203E-05
 0.49900002E+02  0.16689E-04
 0.49950001E+02  0.72429E-05
 0.50000000E+02  0.80201E-06
 0.50049999E+02  0.10435E-04
 0.50100002E+02  0.17636E-04
 0.50150002E+02  0.97496E-05
 0.50200001E+02  0.26187E-06
 0.50250000E+02 -0.38845E-05
 0.50299999E+02 -0.63750E-05
 0.50350002E+02 -0.12301E-04
 0.50400002E+02 -0.14102E-04
 0.50450001E+02 -0.18828E-05
 0.50500000E+02  0.83899E-05
 0.50549999E+02  0.96259E-05
 0.50600002E+02 -0.30646E-05
 0.50650002E+02 -0.21411E-04
 0.50700001E+02 -0.27749E-04
 0.50750000E+02 -0.12956E-04
 0.50799999E+02  0.96552E-05
 0.50850002E+02  0.21588E-04
 0.50900002E+02  0.30712E-04
 0.50950001E+02  0.28074E-04
 0.51000000E+02  0.12333E-04
 0.51049999E+02 -0.12034E-04
 0.51100002E+02 -0.31368E-04
 0.51150002E+02 -0.35466E-04
 0.51200001E+02 -0.36281E-04
 0.51250000E+02 -0.19624E-04
 0.51299999E+02  0.77324E-05
 0.51350002E+02  0.26748E-04
 0.51400002E+02  0.33444E-04
 0.51450001E+02  0.28475E-04
 0.51500000E+02  0.15308E-04
 0.51549999E+02  0.74968E-05
 0.51600002E+02  0.10490E-04
 0.51650002E+02  0.40612E-05
 0.51700001E+02 -0.24967E-05
 0.51750000E+02 -0.10768E-05
 0.51799999E+02 -0.32397E-05
 0.51850002E+02 -0.18313E-05
 0.51900002E+02  0.42167E-05
 0.51950001E+02 -0.16322E-06
 0.52000000E+02 -0.58117E-05
 0.52049999E+02 -0.87753E-05
 0.52100002E+02 -0.14081E-04
 0.52150002E+02 -0.18092E-04
 0.52200001E+02 -0.24452E-04
 0.52250000E+02 -0.17376E-04
 0.52299999E+02 -0.31559E-06
 0.52350002E+02  0.68660E-05
 0.52400002E+02  0.34709E-05
 0.52450001E+02 -0.18076E-05
 0.52500000E+02  0.26101E-05
 0.52549999E+02  0.11444E-04
 0.52600002E+02  0.16968E-04
 0.52650002E+02  0.18610E-04
 0.52700001E+02  0.19976E-04
 0.52750000E+02  0.16412E-04
 0.52799999E+02 -0.41446E-05
 0.52850002E+02 -0.19738E-04
 0.52900002E+02 -0.15992E-04
 0.52950001E+02 -0.34671E-05
 0.53000000E+02  0.10120E-04
 0.53049999E+02  0.12472E-04
 0.53100002E+02  0.37374E-05
 0.53150002E+02 -0.76033E-05
 0.53200001E+02 -0.81953E-05
 0.53250000E+02 -0.39857E-05
 0.53299999E+02 -0.86320E-05
 0.53350002E+02 -0.11051E-04
 0.53400002E+02 -0.47974E-05
 0.53450001E+02  0.49772E-07
 0.53500000E+02 -0.48957E-05
 0.53549999E+02 -0.12352E-04
 0.53600002E+02 -0.17321E-04
 0.53650002E+02 -0.69307E-05
 0.53700001E+02  0.19582E-04
 0.53750000E+02  0.25612E-04
 0.53799999E+02  0.14098E-04
 0.53850002E+02  0.13515E-04
 0.53900002E+02  0.16173E-04
 0.53950001E+02  0.13469E-04
 0.54000000E+02  0.66214E-05
 0.54049999E+02 -0.21978E-05
 0.54100002E+02 -0.97166E-05
 0.54150002E+02 -0.17692E-04
 0.54200001E+02 -0.20554E-04
 0.54250000E+02 -0.20505E-04
 0.54299999E+02 -0.21959E-04
 0.54350002E+02 -0.14124E-04
 0.54400002E+02  0.21169E-05
 0.54450001E+02  0.10463E-04
 0.54500000E+02  0.66588E-05
 0.54549999E+02  0.51558E-05
 0.54600002E+02  0.43999E-05
 0.54650002E+02  0.38283E-05
 0.54700001E+02  0.74454E-05
 0.54750000E+02  0.33674E-05
 0.54799999E+02 -0.14368E-05
 0.54850002E+02  0.13399E-05
 0.54900002E+02  0.68488E-05
 0.54950001E+02  0.10816E-04
 0.55000000E+02  0.73483E-05
 0.55049999E+02  0.88254E-05
 0.55100002E+02  0.15210E-04
 0.55150002E+02  0.49400E-05
 0.55200001E+02 -0.81396E-05
 0.55250000E+02 -0.15042E-04
 0.55299999E+02 -0.16278E-04
 0.55350002E+02 -0.42145E-05
 0.55400002E+02  0.29051E-05
 0.55450001E+02  0.20027E-05
 0.55500000E+02  0.24974E-05
 0.55549999E+02 -0.29135E-05
 0.55600002E+02 -0.10646E-04
 0.55650002E+02 -0.85151E-05
 0.55700001E+02 -0.28964E-05
 0.55750000E+02  0.13417E-05
 0.55799999E+02  0.67883E-05
 0.55850002E+02  0.10570E-04
 0.55900002E+02  0.89762E-05
 0.55950001E+02 -0.20168E-05
 0.56000000E+02 -0.52592E-05
 0.56049999E+02  0.98754E-06
 0.56100002E+02 -0.27319E-06
 0.56150002E+02  0.19252E-05
 0.56200001E+02  0.32545E-05
 0.56250000E+02 -0.91683E-06
 0.56299999E+02  0.57350E-06
 0.56350002E+02 -0.13880E-05
 0.56400002E+02 -0.25798E-05
 0.56450001E+02  0.32978E-05
 0.56500000E+02  0.16000E-05
 0.56549999E+02 -0.10933E-04
 0.56600002E+02 -0.15041E-04
 0.56650002E+02 -0.51014E-05
 0.56700001E+02  0.58761E-06
 0.56750000E+02  0.40906E-06
 0.56799999E+02  0.76741E-06
 0.56850002E+02  0.29302E-05
 0.56900002E+02  0.55470E-05
 0.56950001E+02  0.12322E-04
 0.57000000E+02  0.22787E-04
 0.57049999E+02  0.17499E-04
 0.57100002E+02 -0.29368E-05
 0.57150002E+02 -0.20361E-04
 0.57200001E+02 -0.24656E-04
 0.57250000E+02 -0.14050E-04
 0.57299999E+02  0.38347E-05
 0.57350002E+02  0.11064E-04
 0.57400002E+02  0.54463E-05
 0.57450001E+02  0.22782E-05
 0.57500000E+02 -0.74513E-06
 0.57549999E+02 -0.33483E-06
 0.57600002E+02  0.17676E-05
 0.57650002E+02 -0.27934E-05
 0.57700001E+02 -0.69347E-05
 0.57750000E+02 -0.88052E-05
 0.57799999E+02 -0.26717E-05
 0.57850002E+02  0.66914E-05
 0.57900002E+02  0.79182E-05
 0.57950001E+02  0.37493E-05
 0.58000000E+02  0.35736E-05
 0.58049999E+02  0.10330E-04
 0.58100002E+02  0.11022E-04
 0.58150002E+02  0.43573E-05
 0.58200001E+02 -0.22596E-06
 0.58250000E+02 -0.58856E-05
 0.58299999E+02 -0.12400E-04
 0.58350002E+02 -0.89624E-05
 0.58400002E+02 -0.17461E-05
 0.58450001E+02 -0.12972E-05
 0.58500000E+02  0.73302E-06
 0.58549999E+02  0.27824E-05
 0.58600002E+02 -0.51757E-06
 0.58650002E+02 -0.38051E-06
 0.58700001E+02  0.41208E-05
 0.58750000E+02 -0.91997E-06
 0.58799999E+02 -0.12083E-04
 0.58850002E+02 -0.12157E-04
 0.58900002E+02 -0.74026E-05
 0.58950001E+02 -0.21509E-05
 0.59000000E+02  0.37105E-05
 0.59049999E+02  0.40705E-05
 0.59100002E+02  0.25420E-05
 0.59150002E+02  0.73644E-05
 0.59200001E+02  0.14104E-04
 0.59250000E+02  0.87816E-05
 0.59299999E+02 -0.18325E-05
 0.59350002E+02 -0.92920E-05
 0.59400002E+02 -0.93849E-05
 0.59450001E+02 -0.25241E-05
 0.59500000E+02  0.30574E-05
 0.59549999E+02  0.10207E-04
 0.59600002E+02  0.11901E-04
 0.59650002E+02  0.47998E-05
 0.59700001E+02 -0.17117E-05
 0.59750000E+02 -0.26444E-05
 0.59799999E+02  0.26049E-05
 0.59850002E+02  0.20065E-05
 0.59900002E+02 -0.91209E-05
 0.59950001E+02 -0.17250E-04
 0.60000000E+02 -0.15799E-04
 0.60049999E+02 -0.69632E-05
 0.60100002E+02  0.49069E-05
 0.60150002E+02  0.14761E-04
 0.60200001E+02  0.20566E-04
 0.60250000E+02  0.19998E-04
 0.60299999E+02  0.14086E-04
 0.60350002E+02 -0.16750E-06
 0.60400002E+02 -0.16604E-04
 0.60450001E+02 -0.17357E-04
 0.60500000E+02 -0.98539E-05
 0.60549999E+02 -0.69336E-05
 0.60600002E+02 -0.35830E-05
 0.60650002E+02 -0.18023E-05
 0.60700001E+02 -0.48219E-05
 0.60750000E+02 -0.54286E-05
 0.60799999E+02 -0.47131E-05
 0.60850002E+02  0.11514E-05
 0.60900002E+02  0.12156E-04
 0.60950001E+02  0.12845E-04
 0.61000000E+02  0.65603E-05
 0.61049999E+02 -0.17335E-06
 0.61100002E+02 -0.40157E-05
 0.61150002E+02 -0.16863E-05
 0.61200001E+02  0.51099E-06
 0.61250000E+02  0.31202E-05
 0.61299999E+02  0.70234E-05
 0.61350002E+02  0.94026E-05
 0.61400002E+02  0.94904E-05
 0.61450001E+02  0.75647E-05
 0.61500000E+02  0.16034E-05
 0.61549999E+02 -0.81834E-05
 0.61600002E+02 -0.14967E-04
 0.61650002E+02 -0.19232E-04
 0.61700001E+02 -0.19986E-04
 0.61750000E+02 -0.12795E-04
 0.61799999E+02 -0.11309E-05
 0.61850002E+02  0.40240E-05
 0.61900002E+02  0.65446E-06
 0.61950001E+02  0.12428E-05
 0.62000000E+02  0.40131E-05
 0.62049999E+02  0.69759E-05
 0.62100002E+02  0.12048E-04
 0.62150002E+02  0.13847E-04
 0.62200001E+02  0.88896E-05
 0.62250000E+02 -0.34028E-05
 0.62299999E+02 -0.14531E-04
 0.62350002E+02 -0.19607E-04
 0.62400002E+02 -0.14744E-04
 0.62450001E+02  0.20001E-06
 0.62500000E+02  0.14012E-04
 0.62549999E+02  0.22668E-04
 0.62600002E+02  0.25831E-04
 0.62650002E+02  0.23292E-04
 0.62700001E+02  0.16147E-04
 0.62750000E+02  0.63355E-05
 0.62799999E+02 -0.44357E-05
 0.62850002E+02 -0.13606E-04
 0.62900002E+02 -0.12216E-04
 0.62950001E+02 -0.32787E-05
 0.63000000E+02  0.47721E-06
 0.63049999E+02 -0.29401E-05
 0.63100002E+02 -0.11244E-04
 0.63150002E+02 -0.22717E-04
 0.63200001E+02 -0.29867E-04
 0.63250000E+02 -0.24741E-04
 0.63299999E+02 -0.12019E-04
 0.63350002E+02 -0.30117E-06
 0.63400002E+02  0.66229E-05
 0.63450001E+02  0.84808E-05
 0.63500000E+02  0.97738E-05
 0.63549999E+02  0.88164E-05
 0.63600002E+02  0.86583E-05
 0.63650002E+02  0.14178E-04
 0.63700001E+02  0.17232E-04
 0.63750000E+02  0.15632E-04
 0.63799999E+02  0.10209E-04
 0.63850002E+02  0.37635E-05
 0.63900002E+02  0.22235E-05
 0.63950001E+02  0.12740E-05
 0.64000000E+02 -0.48638E-05
 0.64050003E+02 -0.11268E-04
 0.64099998E+02 -0.12282E-04
 0.64150002E+02 -0.10985E-04
 0.64200005E+02 -0.61769E-05
 0.64250000E+02 -0.59768E-06
 0.64300003E+02  0.17052E-05
 0.64349998E+02  0.47843E-05
 0.64400002E+02  0.57588E-05
 0.64450005E+02  0.53065E-05
 0.64500000E+02 -0.10986E-06
 0.64550003E+02 -0.10572E-04
 0.64599998E+02 -0.11719E-04
 0.64650002E+02 -0.34490E-05
 0.64700005E+02  0.46567E-05
 0.64750000E+02  0.84447E-05
 0.64800003E+02  0.67901E-05
 0.64849998E+02 -0.19077E-05
 0.64900002E+02 -0.10186E-04
 0.64950005E+02 -0.99990E-05
 0.65000000E+02 -0.51456E-05
 0.65050003E+02 -0.10795E-05
 0.65099998E+02  0.14785E-05
 0.65150002E+02  0.49253E-05
 0.65200005E+02  0.58052E-05
 0.65250000E+02  0.56219E-05
 0.65300003E+02  0.79848E-05
 0.65349998E+02  0.63664E-05
 0.65400002E+02  0.27694E-05
 0.65450005E+02  0.24634E-05
 0.65500000E+02  0.31352E-05
 0.65550003E+02  0.16200E-05
 0.65599998E+02 -0.16799E-05
 0.65650002E+02 -0.11120E-05
 0.65700005E+02 -0.69428E-06
 0.65750000E+02 -0.34420E-05
 0.65800003E+02 -0.35561E-05
 0.65849998E+02 -0.13343E-05
 0.65900002E+02  0.91366E-06
 0.65950005E+02  0.20564E-05
 0.66000000E+02  0.23070E-05
 0.66050003E+02  0.15375E-05
 0.66099998E+02 -0.21226E-05
 0.66150002E+02 -0.10914E-04
 0.66200005E+02 -0.18103E-04
 0.66250000E+02 -0.18158E-04
 0.66300003E+02 -0.15070E-04
 0.66349998E+02 -0.76569E-05
 0.66400002E+02  0.28163E-05
 0.66450005E+02  0.11672E-04
 0.66500000E+02  0.17456E-04
 0.66550003E+02  0.23247E-04
 0.66599998E+02  0.25884E-04
 0.66650002E+02  0.16410E-04
 0.66700005E+02  0.43558E-05
 0.66750000E+02 -0.28066E-05
 0.66800003E+02 -0.82073E-05
 0.66849998E+02 -0.99207E-05
 0.66900002E+02 -0.12224E-04
 0.66950005E+02 -0.12728E-04
 0.67000000E+02 -0.68411E-05
 0.67050003E+02 -0.83232E-06
 0.67099998E+02  0.42923E-05
 0.67150002E+02  0.58224E-05
 0.67200005E+02  0.57416E-06
 0.67250000E+02 -0.50865E-05
 0.67300003E+02 -0.42442E-05
 0.67349998E+02  0.43107E-08
 0.67400002E+02  0.30630E-05
 0.67450005E+02  0.61669E-05
 0.67500000E+02  0.67414E-05
 0.67550003E+02  0.45343E-05
 0.67599998E+02  0.14391E-05
 0.67650002E+02 -0.18777E-06
 0.67700005E+02 -0.31921E-06
 0.67750000E+02 -0.37536E-05
 0.67800003E+02 -0.60391E-05
 0.67849998E+02 -0.30929E-05
 0.67900002E+02  0.13887E-05
 0.67950005E+02  0.56725E-05
 0.68000000E+02  0.62721E-05
 0.68050003E+02  0.13800E-05
 0.68099998E+02 -0.45646E-05
 0.68150002E+02 -0.88126E-05
 0.68200005E+02 -0.96704E-05
 0.68250000E+02 -0.56809E-05
 0.68300003E+02  0.17413E-05
 0.68349998E+02  0.85548E-05
 0.68400002E+02  0.89552E-05
 0.68450005E+02  0.45212E-05
 0.68500000E+02  0.21685E-05
 0.68550003E+02 -0.39033E-06
 0.68599998E+02 -0.44376E-05
 0.68650002E+02 -0.65997E-05
 0.68700005E+02 -0.90111E-05
 0.68750000E+02 -0.88689E-05
 0.68800003E+02 -0.33390E-05
 0.68849998E+02  0.31616E-05
 0.68900002E+02  0.62372E-05
 0.68950005E+02  0.48833E-05
 0.69000000E+02  0.44013E-05
 0.69050003E+02  0.22135E-05
 0.69099998E+02 -0.41370E-05
 0.69150002E+02 -0.69808E-05
 0.69200005E+02 -0.56595E-05
 0.69250000E+02 -0.18360E-05
 0.69300003E+02  0.33126E-05
 0.69349998E+02  0.90193E-05
 0.69400002E+02  0.11869E-04
 0.69450005E+02  0.87057E-05
 0.69500000E+02  0.30700E-05
 0.69550003E+02 -0.25964E-05
 0.69599998E+02 -0.48414E-05
 0.69650002E+02 -0.53902E-05
 0.69700005E+02 -0.57599E-05
 0.69750000E+02 -0.31347E-05
 0.69800003E+02 -0.99341E-06
 0.69849998E+02 -0.19249E-05
 0.69900002E+02 -0.40138E-05
 0.69950005E+02 -0.32230E-05
 0.70000000E+02  0.55158E-06
 0.70050003E+02  0.43844E-05
 0.70099998E+02  0.62850E-05
 0.70150002E+02  0.50343E-05
 0.70200005E+02  0.48356E-05
 0.70250000E+02  0.68236E-05
 0.70300003E+02  0.74773E-05
 0.70349998E+02  0.66107E-05
 0.70400002E+02  0.24445E-05
 0.70450005E+02 -0.43372E-05
 0.70500000E+02 -0.89258E-05
 0.70550003E+02 -0.10655E-04
 0.70599998E+02 -0.91817E-05
 0.70650002E+02 -0.61194E-05
 0.70700005E+02 -0.36276E-05
 0.70750000E+02 -0.88971E-06
 0.70800003E+02  0.12015E-05
 0.70849998E+02  0.17725E-05
 0.70900002E+02  0.11115E-05
 0.70950005E+02  0.13106E-06
 0.71000000E+02 -0.52138E-06
 0.71050003E+02 -0.27358E-05
 0.71099998E+02 -0.58199E-05
 0.71150002E+02 -0.53409E-05
 0.71200005E+02 -0.23613E-05
 0.71250000E+02  0.26770E-05
 0.71300003E+02  0.93651E-05
 0.71349998E+02  0.13696E-04
 0.71400002E+02  0.13672E-04
 0.71450005E+02  0.82294E-05
 0.71500000E+02  0.32482E-05
 0.71550003E+02  0.19206E-06
 0.71599998E+02 -0.31196E-05
 0.71650002E+02 -0.23795E-05
 0.71700005E+02 -0.18025E-05
 0.71750000E+02 -0.48264E-05
 0.71800003E+02 -0.68377E-05
 0.71849998E+02 -0.57878E-05
 0.71900002E+02 -0.23342E-05
 0.71950005E+02 -0.55874E-06
 0.72000000E+02 -0.23538E-05
 0.72050003E+02 -0.54049E-05
 0.72099998E+02 -0.80640E-05
 0.72150002E+02 -0.75284E-05
 0.72200005E+02 -0.39898E-05
 0.72250000E+02  0.68835E-06
 0.72300003E+02  0.43739E-05
 0.72349998E+02  0.48265E-05
 0.72400002E+02  0.73368E-05
 0.72450005E+02  0.12683E-04
 0.72500000E+02  0.14611E-04
 0.72550003E+02  0.12516E-04
 0.72599998E+02  0.92241E-05
 0.72650002E+02  0.49547E-05
 0.72700005E+02 -0.11295E-05
 0.72750000E+02 -0.52250E-05
 0.72800003E+02 -0.75373E-05
 0.72849998E+02 -0.10388E-04
 0.72900002E+02 -0.94033E-05
 0.72950005E+02 -0.50096E-05
 0.73000000E+02 -0.12505E-05
 0.73050003E+02  0.14968E-05
 0.73099998E+02  0.34434E-05
 0.73150002E+02  0.44736E-05
 0.73200005E+02  0.34946E-05
 0.73250000E+02 -0.44241E-06
 0.73300003E+02 -0.50865E-05
 0.73349998E+02 -0.66075E-05
 0.73400002E+02 -0.59906E-05
 0.73450005E+02 -0.52872E-05
 0.73500000E+02 -0.34480E-05
 0.73550003E+02 -0.32190E-05
 0.73599998E+02 -0.35508E-05
 0.73650002E+02 -0.59402E-06
 0.73700005E+02  0.15052E-05
 0.73750000E+02  0.13014E-05
 0.73800003E+02  0.10757E-05
 0.73849998E+02  0.20740E-05
 0.73900002E+02  0.32380E-05
 0.73950005E+02  0.25554E-05
 0.74000000E+02  0.54280E-06
 0.74050003E+02 -0.26697E-05
 0.74099998E+02 -0.38451E-05
 0.74150002E+02 -0.33960E-05
 0.74200005E+02 -0.23811E-05
 0.74250000E+02  0.28744E-07
 0.74300003E+02  0.80765E-06
 0.74349998E+02  0.22912E-05
 0.74400002E+02  0.30192E-05
 0.74450005E+02  0.26952E-05
 0.74500000E+02  0.49802E-05
 0.74550003E+02  0.55216E-05
 0.74599998E+02  0.43927E-05
 0.74650002E+02  0.31801E-05
 0.74700005E+02  0.23750E-05
 0.74750000E+02  0.41582E-05
 0.74800003E+02  0.55098E-05
 0.74849998E+02  0.45087E-05
 0.74900002E+02  0.27676E-05
 0.74950005E+02  0.10860E-05
 0.75000000E+02 -0.57829E-06
 0.75050003E+02 -0.11679E-05
 0.75099998E+02 -0.21788E-05
 0.75150002E+02 -0.50844E-05
 0.75200005E+02 -0.68411E-05
 0.75250000E+02 -0.71978E-05
 0.75300003E+02 -0.70552E-05
 0.75349998E+02 -0.47151E-05
 0.75400002E+02 -0.93552E-06
 0.75450005E+02 -0.92774E-07
 0.75500000E+02 -0.11133E-05
 0.75550003E+02 -0.42227E-06
 0.75599998E+02  0.16385E-05
 0.75650002E+02  0.43365E-05
 0.75700005E+02  0.52395E-05
 0.75750000E+02  0.49131E-05
 0.75800003E+02  0.41455E-05
 0.75849998E+02  0.26907E-05
 0.75900002E+02  0.33142E-05
 0.75950005E+02  0.41059E-05
 0.76000000E+02  0.20516E-05
 0.76050003E+02 -0.17309E-05
 0.76099998E+02 -0.51279E-05
 0.76150002E+02 -0.78265E-05
 0.76200005E+02 -0.94454E-05
 0.76250000E+02 -0.72122E-05
 0.76300003E+02 -0.21769E-05
 0.76349998E+02  0.48722E-06
 0.76400002E+02  0.60217E-06
 0.76450005E+02  0.64304E-06
 0.76500000E+02 -0.91390E-06
 0.76550003E+02 -0.27128E-05
 0.76599998E+02 -0.20718E-05
 0.76650002E+02 -0.99961E-07
 0.76700005E+02  0.14568E-05
 0.76750000E+02  0.72152E-06
 0.76800003E+02  0.13349E-07
 0.76849998E+02  0.10888E-05
 0.76900002E+02  0.11364E-05
 0.76950005E+02  0.12376E-05
 0.77000000E+02  0.15337E-05
 0.77050003E+02  0.13716E-05
 0.77099998E+02  0.23372E-05
 0.77150002E+02  0.31738E-05
 0.77200005E+02  0.32195E-05
 0.77250000E+02  0.21581E-05
 0.77300003E+02  0.11230E-05
 0.77349998E+02  0.18328E-05
 0.77400002E+02  0.33348E-05
 0.77450005E+02  0.37295E-05
 0.77500000E+02  0.19497E-05
 0.77550003E+02  0.52453E-07
 0.77599998E+02 -0.17340E-05
 0.77650002E+02 -0.28682E-05
 0.77700005E+02 -0.20561E-05
 0.77750000E+02 -0.20756E-05
 0.77800003E+02 -0.22022E-05
 0.77849998E+02 -0.20588E-05
 0.77900002E+02 -0.36023E-05
 0.77950005E+02 -0.26384E-05
 0.78000000E+02  0.17330E-05
 0.78050003E+02  0.36708E-05
 0.78099998E+02  0.14523E-05
 0.78150002E+02 -0.23039E-05
 0.78200005E+02 -0.44725E-05
 0.78250000E+02 -0.37064E-05
 0.78300003E+02 -0.23595E-05
 0.78349998E+02 -0.27162E-05
 0.78400002E+02 -0.37577E-05
 0.78450005E+02 -0.17540E-05
 0.78500000E+02  0.33124E-05
 0.78550003E+02  0.64058E-05
 0.78599998E+02  0.68745E-05
 0.78650002E+02  0.56770E-05
 0.78700005E+02  0.29330E-05
 0.78750000E+02  0.70076E-06
 0.78800003E+02 -0.17302E-05
 0.78849998E+02 -0.48863E-05
 0.78900002E+02 -0.53625E-05
 0.78950005E+02 -0.20603E-05
 0.79000000E+02  0.25333E-05
 0.79050003E+02  0.55217E-05
 0.79099998E+02  0.59507E-05
 0.79150002E+02  0.46608E-05
 0.79200005E+02  0.10693E-05
 0.79250000E+02 -0.36198E-05
 0.79300003E+02 -0.64578E-05
 0.79349998E+02 -0.59738E-05
 0.79400002E+02 -0.39098E-05
 0.79450005E+02 -0.20527E-05
 0.79500000E+02  0.59078E-06
 0.79550003E+02  0.21850E-05
 0.79599998E+02  0.20691E-05
 0.79650002E+02  0.13108E-05
 0.79700005E+02  0.49361E-06
 0.79750000E+02  0.66514E-06
 0.79800003E+02  0.13922E-05
 0.79849998E+02  0.28261E-05
 0.79900002E+02  0.18404E-05
 0.79950005E+02 -0.15538E-05
 0.80000000E+02 -0.25335E-05
 0.80050003E+02 -0.21769E-05
 0.80099998E+02 -0.23991E-05
 0.80150002E+02 -0.25404E-05
 0.80200005E+02 -0.16708E-05
 0.80250000E+02 -0.23331E-06
 0.80300003E+02  0.78977E-06
 0.80349998E+02  0.31324E-05
 0.80400002E+02  0.63114E-05
 0.80450005E+02  0.68370E-05
 0.80500000E+02  0.58867E-05
 0.80550003E+02  0.48414E-05
 0.80599998E+02  0.18538E-05
 0.80650002E+02 -0.23475E-05
 0.80700005E+02 -0.56528E-05
 0.80750000E+02 -0.67674E-05
 0.80800003E+02 -0.51772E-05
 0.80849998E+02 -0.24423E-05
 0.80900002E+02 -0.71126E-06
 0.80950005E+02  0.27532E-07
 0.81000000E+02 -0.11617E-05
 0.81050003E+02 -0.39749E-05
 0.81099998E+02 -0.52927E-05
 0.81150002E+02 -0.57772E-05
 0.81200005E+02 -0.62704E-05
 0.81250000E+02 -0.50270E-05
 0.81300003E+02 -0.29205E-05
 0.81349998E+02 -0.86929E-06
 0.81400002E+02  0.17082E-05
 0.81450005E+02  0.39935E-05
 0.81500000E+02  0.60042E-05
 0.81550003E+02  0.72786E-05
 0.81599998E+02  0.68933E-05
 0.81650002E+02  0.60701E-05
 0.81700005E+02  0.62490E-05
 0.81750000E+02  0.60961E-05
 0.81800003E+02  0.43652E-05
 0.81849998E+02  0.34944E-05
 0.81900002E+02  0.37686E-05
 0.81950005E+02  0.45126E-05
 0.82000000E+02  0.43504E-05
 0.82050003E+02  0.12640E-05
 0.82099998E+02 -0.40240E-05
 0.82150002E+02 -0.85024E-05
 0.82200005E+02 -0.87503E-05
 0.82250000E+02 -0.73818E-05
 0.82300003E+02 -0.63743E-05
 0.82349998E+02 -0.45087E-05
 0.82400002E+02 -0.22548E-05
 0.82450005E+02 -0.11840E-05
 0.82500000E+02 -0.15437E-05
 0.82550003E+02 -0.17789E-05
 0.82599998E+02 -0.11116E-05
 0.82650002E+02  0.13144E-05
 0.82700005E+02  0.34952E-05
 0.82750000E+02  0.42296E-05
 0.82800003E+02  0.42609E-05
 0.82849998E+02  0.36625E-05
 0.82900002E+02  0.29380E-05
 0.82950005E+02  0.21000E-05
 0.83000000E+02  0.10473E-05
 0.83050003E+02 -0.11086E-05
 0.83099998E+02 -0.24086E-05
 0.83150002E+02 -0.15376E-05
 0.83200005E+02 -0.25909E-06
 0.83250000E+02  0.12522E-05
 0.83300003E+02  0.17894E-05
 0.83349998E+02  0.17487E-05
 0.83400002E+02  0.21467E-05
 0.83450005E+02  0.97413E-06
 0.83500000E+02 -0.20103E-05
 0.83550003E+02 -0.61419E-05
 0.83599998E+02 -0.95831E-05
 0.83650002E+02 -0.94049E-05
 0.83700005E+02 -0.60378E-05
 0.83750000E+02 -0.13263E-05
 0.83800003E+02  0.26989E-05
 0.83849998E+02  0.44218E-05
 0.83900002E+02  0.41076E-05
 0.83950005E+02  0.31234E-05
 0.84000000E+02  0.32196E-05
 0.84050003E+02  0.42311E-05
 0.84099998E+02  0.41086E-05
 0.84150002E+02  0.17061E-05
 0.84200005E+02 -0.66809E-06
 0.84250000E+02 -0.11655E-05
 0.84300003E+02 -0.13001E-05
 0.84349998E+02 -0.10198E-05
 0.84400002E+02 -0.16405E-06
 0.84450005E+02 -0.32461E-06
 0.84500000E+02 -0.23651E-05
 0.84550003E+02 -0.52146E-05
 0.84599998E+02 -0.59194E-05
 0.84650002E+02 -0.29447E-05
 0.84700005E+02  0.63451E-06
 0.84750000E+02  0.27605E-05
 0.84800003E+02  0.54946E-05
 0.84849998E+02  0.74999E-05
 0.84900002E+02  0.63718E-05
 0.84950005E+02  0.44653E-05
 0.85000000E+02  0.40699E-05
 0.85050003E+02  0.36374E-05
 0.85099998E+02  0.23926E-05
 0.85150002E+02  0.14593E-05
 0.85200005E+02  0.15970E-05
 0.85250000E+02  0.17731E-05
 0.85300003E+02 -0.62153E-06
 0.85349998E+02 -0.51302E-05
 0.85400002E+02 -0.92590E-05
 0.85450005E+02 -0.11284E-04
 0.85500000E+02 -0.11179E-04
 0.85550003E+02 -0.78284E-05
 0.85599998E+02 -0.20555E-05
 0.85650002E+02  0.16147E-05
 0.85700005E+02  0.23639E-05
 0.85750000E+02  0.98931E-06
 0.85800003E+02 -0.13115E-05
 0.85849998E+02 -0.27430E-05
 0.85900002E+02 -0.23565E-05
 0.85950005E+02 -0.39020E-06
 0.86000000E+02  0.27688E-05
 0.86050003E+02  0.68284E-05
 0.86099998E+02  0.96590E-05
 0.86150002E+02  0.10291E-04
 0.86200005E+02  0.91047E-05
 0.86250000E+02  0.63613E-05
 0.86300003E+02  0.27522E-05
 0.86349998E+02 -0.49861E-06
 0.86400002E+02 -0.24718E-05
 0.86450005E+02 -0.19890E-05
 0.86500000E+02  0.27536E-06
 0.86550003E+02  0.45848E-06
 0.86599998E+02 -0.18630E-05
 0.86650002E+02 -0.53027E-05
 0.86700005E+02 -0.91590E-05
 0.86750000E+02 -0.10814E-04
 0.86800003E+02 -0.87926E-05
 0.86849998E+02 -0.42237E-05
 0.86900002E+02  0.53915E-06
 0.86950005E+02  0.35533E-05
 0.87000000E+02  0.39579E-05
 0.87050003E+02  0.29708E-05
 0.87099998E+02  0.16057E-05
 0.87150002E+02 -0.20179E-06
 0.87200005E+02 -0.20404E-06
 0.87250000E+02  0.99504E-06
 0.87300003E+02  0.12556E-05
 0.87349998E+02  0.22533E-05
 0.87400002E+02  0.31801E-05
 0.87450005E+02  0.17703E-05
 0.87500000E+02 -0.11943E-05
 0.87550003E+02 -0.39949E-05
 0.87599998E+02 -0.39311E-05
 0.87650002E+02 -0.11747E-05
 0.87700005E+02  0.18629E-05
 0.87750000E+02  0.38839E-05
 0.87800003E+02  0.37149E-05
 0.87849998E+02  0.28270E-05
 0.87900002E+02  0.27654E-05
 0.87950005E+02  0.27532E-05
 0.88000000E+02  0.16962E-05
 0.88050003E+02  0.22071E-06
 0.88099998E+02  0.17502E-06
 0.88150002E+02  0.10989E-05
 0.88200005E+02  0.85915E-06
 0.88250000E+02 -0.46185E-06
 0.88300003E+02 -0.14645E-05
 0.88349998E+02 -0.23338E-05
 0.88400002E+02 -0.32071E-05
 0.88450005E+02 -0.34913E-05
 0.88500000E+02 -0.33385E-05
 0.88550003E+02 -0.34332E-05
 0.88599998E+02 -0.30450E-05
 0.88650002E+02 -0.11026E-05
 0.88700005E+02  0.16490E-05
 0.88750000E+02  0.27079E-05
 0.88800003E+02  0.10292E-05
 0.88849998E+02 -0.54274E-06
 0.88900002E+02 -0.53961E-06
 0.88950005E+02 -0.48590E-06
 0.89000000E+02 -0.92491E-06
 0.89050003E+02 -0.13100E-05
 0.89099998E+02 -0.10543E-05
 0.89150002E+02  0.40005E-06
 0.89200005E+02  0.28266E-05
 0.89250000E+02  0.52098E-05
 0.89300003E+02  0.54877E-05
 0.89349998E+02  0.25549E-05
 0.89400002E+02 -0.12236E-05
 0.89450005E+02 -0.33473E-05
 0.89500000E+02 -0.26407E-05
 0.89550003E+02  0.35778E-06
 0.89599998E+02  0.26910E-05
 0.89650002E+02  0.19333E-05
 0.89700005E+02 -0.13918E-05
 0.89750000E+02 -0.46508E-05
 0.89800003E+02 -0.53026E-05
 0.89849998E+02 -0.33012E-05
 0.89900002E+02 -0.14074E-05
 0.89950005E+02 -0.94002E-06
 0.90000000E+02 -0.15117E-05
 0.90050003E+02 -0.22456E-05
 0.90099998E+02 -0.15284E-05
 0.90150002E+02  0.44624E-06
 0.90200005E+02  0.25796E-05
 0.90250000E+02  0.43140E-05
 0.90300003E+02  0.50277E-05
 0.90349998E+02  0.42873E-05
 0.90400002E+02  0.25923E-05
 0.90450005E+02  0.16793E-05
 0.90500000E+02  0.18191E-05
 0.90550003E+02  0.17018E-05
 0.90599998E+02  0.10780E-05
 0.90650002E+02  0.23121E-06
 0.90700005E+02 -0.32606E-06
 0.90750000E+02 -0.96683E-06
 0.90800003E+02 -0.25046E-05
 0.90849998E+02 -0.35649E-05
 0.90900002E+02 -0.36224E-05
 0.90950005E+02 -0.23711E-05
 0.91000000E+02  0.45299E-06
 0.91050003E+02  0.20106E-05
 0.91099998E+02  0.22568E-05
 0.91150002E+02  0.21697E-05
 0.91200005E+02  0.13594E-05
 0.91250000E+02  0.12180E-05
 0.91300003E+02  0.14508E-05
 0.91349998E+02  0.11330E-05
 0.91400002E+02  0.41202E-06
 0.91450005E+02  0.83240E-07
 0.91500000E+02  0.34038E-06
 0.91550003E+02  0.11985E-06
 0.91599998E+02 -0.61453E-06
 0.91650002E+02 -0.20142E-05
 0.91700005E+02 -0.41952E-05
 0.91750000E+02 -0.53907E-05
 0.91800003E+02 -0.41905E-05
 0.91849998E+02 -0.18395E-05
 0.91900002E+02 -0.42140E-06
 0.91950005E+02 -0.23209E-06
 0.92000000E+02 -0.18832E-06
 0.92050003E+02  0.25397E-06
 0.92099998E+02  0.12875E-05
 0.92150002E+02  0.23213E-05
 0.92200005E+02  0.22523E-05
 0.92250000E+02  0.15970E-05
 0.92300003E+02  0.79098E-06
 0.92349998E+02  0.34459E-06
 0.92400002E+02  0.91911E-06
 0.92450005E+02  0.94358E-06
 0.92500000E+02  0.43703E-06
 0.92550003E+02  0.54736E-06
 0.92599998E+02  0.89803E-06
 0.92650002E+02  0.91671E-06
 0.92700005E+02 -0.41385E-06
 0.92750000E+02 -0.12753E-05
 0.92800003E+02 -0.29934E-06
 0.92849998E+02  0.98729E-06
 0.92900002E+02  0.17328E-05
 0.92950005E+02  0.10682E-05
 0.93000000E+02 -0.35782E-06
 0.93050003E+02 -0.21389E-05
 0.93099998E+02 -0.35459E-05
 0.93150002E+02 -0.36497E-05
 0.93200005E+02 -0.31923E-05
 0.93250000E+02 -0.18535E-05
 0.93300003E+02 -0.28333E-06
 0.93349998E+02  0.16409E-05
 0.93400002E+02  0.35931E-05
 0.93450005E+02  0.40317E-05
 0.93500000E+02  0.35065E-05
 0.93550003E+02  0.19644E-05
 0.93599998E+02 -0.15685E-06
 0.93650002E+02 -0.19615E-05
 0.93700005E+02 -0.27692E-05
 0.93750000E+02 -0.20580E-05
 0.93800003E+02 -0.64679E-06
 0.93849998E+02  0.46903E-06
 0.93900002E+02  0.72999E-06
 0.93950005E+02  0.67876E-06
 0.94000000E+02  0.10077E-06
 0.94050003E+02 -0.13762E-05
 0.94099998E+02 -0.14724E-05
 0.94150002E+02 -0.25998E-06
 0.94200005E+02  0.76015E-06
 0.94250000E+02  0.18603E-05
 0.94300003E+02  0.15498E-05
 0.94349998E+02  0.17051E-06
 0.94400002E+02 -0.70788E-06
 0.94450005E+02 -0.11368E-05
 0.94500000E+02 -0.13082E-05
 0.94550003E+02 -0.12323E-05
 0.94599998E+02 -0.48069E-07
 0.94650002E+02  0.98466E-06
 0.94700005E+02  0.58868E-06
 0.94750000E+02  0.25957E-06
 0.94800003E+02  0.32687E-06
 0.94849998E+02 -0.32112E-06
 0.94900002E+02 -0.55692E-06
 0.94950005E+02  0.46104E-06
 0.95000000E+02  0.13447E-05
 0.95050003E+02  0.17651E-05
 0.95099998E+02  0.14816E-05
 0.95150002E+02  0.10240E-05
 0.95200005E+02  0.83361E-06
 0.95250000E+02  0.30317E-06
 0.95300003E+02  0.26568E-06
 0.95349998E+02  0.90667E-06
 0.95400002E+02  0.18346E-05
 0.95450005E+02  0.23452E-05
 0.95500000E+02  0.99818E-06
 0.95550003E+02 -0.18351E-05
 0.95599998E+02 -0.39784E-05
 0.95650002E+02 -0.42348E-05
 0.95700005E+02 -0.39826E-05
 0.95750000E+02 -0.37051E-05
 0.95800003E+02 -0.27368E-05
 0.95849998E+02 -0.14106E-05
 0.95900002E+02  0.50319E-07
 0.95950005E+02  0.14416E-05
 0.96000000E+02  0.20951E-05
 0.96050003E+02  0.14101E-05
 0.96099998E+02  0.10831E-05
 0.96150002E+02  0.17759E-05
 0.96200005E+02  0.20828E-05
 0.96250000E+02  0.22766E-05
 0.96300003E+02  0.18341E-05
 0.96349998E+02 -0.33273E-06
 0.96400002E+02 -0.26080E-05
 0.96450005E+02 -0.32829E-05
 0.96500000E+02 -0.32168E-05
 0.96550003E+02 -0.27122E-05
 0.96599998E+02 -0.17359E-05
 0.96650002E+02 -0.12539E-05
 0.96700005E+02 -0.31332E-06
 0.96750000E+02  0.20010E-05
 0.96800003E+02  0.41012E-05
 0.96849998E+02  0.52863E-05
 0.96900002E+02  0.57688E-05
 0.96950005E+02  0.54581E-05
 0.97000000E+02  0.43012E-05
 0.97050003E+02  0.16077E-05
 0.97099998E+02 -0.15843E-05
 0.97150002E+02 -0.41213E-05
 0.97200005E+02 -0.62290E-05
 0.97250000E+02 -0.67223E-05
 0.97300003E+02 -0.51566E-05
 0.97349998E+02 -0.27255E-05
 0.97400002E+02 -0.16592E-06
 0.97450005E+02  0.22394E-05
 0.97500000E+02  0.40479E-05
 0.97550003E+02  0.47313E-05
 0.97599998E+02  0.40797E-05
 0.97650002E+02  0.30022E-05
 0.97700005E+02  0.23736E-05
 0.97750000E+02  0.13974E-05
 0.97800003E+02 -0.34121E-07
 0.97849998E+02 -0.96857E-06
 0.97900002E+02 -0.10834E-05
 0.97950005E+02 -0.51220E-06
 0.98000000E+02 -0.16797E-06
 0.98050003E+02 -0.11477E-05
 0.98099998E+02 -0.28512E-05
 0.98150002E+02 -0.37307E-05
 0.98200005E+02 -0.38128E-05
 0.98250000E+02 -0.40096E-05
 0.98300003E+02 -0.41240E-05
 0.98349998E+02 -0.37444E-05
 0.98400002E+02 -0.31810E-05
 0.98450005E+02 -0.16709E-05
 0.98500000E+02  0.12439E-05
 0.98550003E+02  0.33333E-05
 0.98599998E+02  0.34287E-05
 0.98650002E+02  0.25707E-05
 0.98700005E+02  0.17756E-05
 0.98750000E+02  0.18477E-05
 0.98800003E+02  0.25910E-05
 0.98849998E+02  0.27557E-05
 0.98900002E+02  0.16759E-05
 0.98950005E+02  0.44802E-06
 0.99000000E+02 -0.46801E-07
 0.99050003E+02  0.27146E-06
 0.99099998E+02  0.17322E-05
 0.99150002E+02  0.33440E-05
 0.99200005E+02  0.39193E-05
 0.99250000E+02  0.33591E-05
 0.99300003E+02  0.19413E-05
 0.99349998E+02 -0.25160E-06
 0.99400002E+02 -0.26091E-05
 0.99450005E+02 -0.38645E-05
 0.99500000E+02 -0.45128E-05
 0.99550003E+02 -0.44427E-05
 0.99599998E+02 -0.33191E-05
 0.99650002E+02 -0.23887E-05
 0.99700005E+02 -0.11127E-05
 0.99750000E+02  0.74167E-06
 0.99800003E+02  0.18503E-05
 0.99849998E+02  0.23068E-05
 0.99900002E+02  0.24374E-05
 0.99950005E+02  0.17432E-05
 0.10000000E+03  0.14291E-06
