 0.00000000E+00 -0.87504E-06
 0.50000001E-01 -0.75601E-06
 0.10000000E+00 -0.74002E-06
 0.15000001E+00 -0.65126E-06
 0.20000000E+00 -0.65325E-06
 0.25000000E+00  0.25229E-06
 0.30000001E+00  0.65006E-06
 0.34999999E+00  0.10319E-05
 0.40000001E+00  0.15419E-05
 0.45000002E+00  0.16469E-05
 0.50000000E+00  0.16738E-05
 0.55000001E+00  0.12992E-05
 0.60000002E+00  0.13204E-05
 0.65000004E+00 -0.10226E-06
 0.69999999E+00 -0.93049E-06
 0.75000000E+00 -0.50113E-07
 0.80000001E+00 -0.49744E-07
 0.85000002E+00 -0.39513E-06
 0.90000004E+00 -0.11125E-05
 0.94999999E+00 -0.12112E-05
 0.10000000E+01 -0.11323E-05
 0.10500001E+01 -0.86588E-06
 0.11000000E+01  0.49302E-06
 0.11500000E+01  0.50588E-06
 0.12000000E+01 -0.26325E-06
 0.12500000E+01  0.71603E-07
 0.13000001E+01 -0.14027E-07
 0.13500000E+01 -0.12026E-06
 0.14000000E+01  0.54875E-07
 0.14500000E+01 -0.64960E-06
 0.15000000E+01 -0.10486E-05
 0.15500001E+01 -0.10788E-05
 0.16000000E+01 -0.82019E-06
 0.16500000E+01 -0.28999E-06
 0.17000000E+01 -0.15390E-06
 0.17500000E+01  0.12278E-06
 0.18000001E+01  0.56497E-06
 0.18500000E+01  0.90013E-06
 0.19000000E+01  0.10800E-05
 0.19500000E+01  0.12690E-05
 0.20000000E+01  0.15108E-05
 0.20500000E+01  0.16625E-05
 0.21000001E+01  0.14549E-05
 0.21500001E+01  0.85775E-06
 0.22000000E+01  0.45198E-06
 0.22500000E+01 -0.13665E-07
 0.23000000E+01 -0.49809E-06
 0.23500001E+01 -0.53707E-06
 0.24000001E+01 -0.88666E-06
 0.24500000E+01 -0.13657E-05
 0.25000000E+01 -0.12105E-05
 0.25500000E+01 -0.11103E-05
 0.26000001E+01 -0.11965E-05
 0.26500001E+01 -0.11404E-05
 0.27000000E+01 -0.10084E-05
 0.27500000E+01 -0.74668E-06
 0.28000000E+01 -0.12126E-06
 0.28500001E+01  0.71168E-06
 0.29000001E+01  0.12218E-05
 0.29500000E+01  0.13389E-05
 0.30000000E+01  0.91297E-06
 0.30500000E+01  0.38402E-06
 0.31000001E+01  0.28632E-06
 0.31500001E+01  0.18508E-06
 0.32000000E+01  0.93204E-07
 0.32500000E+01  0.64297E-07
 0.33000000E+01 -0.19429E-06
 0.33500001E+01  0.23330E-06
 0.34000001E+01  0.25550E-06
 0.34500000E+01 -0.45606E-06
 0.35000000E+01 -0.20897E-06
 0.35500000E+01 -0.18754E-06
 0.36000001E+01 -0.31034E-06
 0.36500001E+01 -0.31871E-06
 0.37000000E+01 -0.20790E-06
 0.37500000E+01  0.36139E-06
 0.38000000E+01  0.43749E-06
 0.38500001E+01  0.11710E-06
 0.39000001E+01 -0.14705E-06
 0.39500000E+01 -0.36397E-07
 0.40000000E+01  0.63238E-07
 0.40500002E+01 -0.56246E-07
 0.40999999E+01  0.20346E-06
 0.41500001E+01  0.40326E-06
 0.42000003E+01  0.34263E-06
 0.42500000E+01  0.45453E-06
 0.43000002E+01  0.67285E-06
 0.43499999E+01  0.59323E-06
 0.44000001E+01  0.27425E-06
 0.44500003E+01  0.51740E-06
 0.45000000E+01 -0.54805E-08
 0.45500002E+01 -0.51139E-06
 0.45999999E+01  0.55921E-06
 0.46500001E+01  0.39552E-06
 0.47000003E+01 -0.32700E-06
 0.47500000E+01 -0.42182E-06
 0.48000002E+01 -0.10326E-05
 0.48499999E+01 -0.71779E-06
 0.49000001E+01 -0.67212E-06
 0.49500003E+01 -0.18468E-05
 0.50000000E+01 -0.21321E-05
 0.50500002E+01 -0.22662E-05
 0.50999999E+01 -0.20687E-05
 0.51500001E+01 -0.73276E-06
 0.52000003E+01  0.27065E-06
 0.52500000E+01  0.99002E-06
 0.53000002E+01  0.19312E-05
 0.53499999E+01  0.23483E-05
 0.54000001E+01  0.23429E-05
 0.54500003E+01  0.20702E-05
 0.55000000E+01  0.13565E-05
 0.55500002E+01  0.11003E-05
 0.55999999E+01  0.61333E-06
 0.56500001E+01 -0.28888E-06
 0.57000003E+01 -0.90724E-06
 0.57500000E+01 -0.18269E-05
 0.58000002E+01 -0.22960E-05
 0.58499999E+01 -0.22459E-05
 0.59000001E+01 -0.20565E-05
 0.59500003E+01 -0.13284E-05
 0.60000000E+01 -0.72004E-06
 0.60500002E+01 -0.19099E-06
 0.60999999E+01  0.10186E-05
 0.61500001E+01  0.20702E-05
 0.62000003E+01  0.22865E-05
 0.62500000E+01  0.21414E-05
 0.63000002E+01  0.18945E-05
 0.63499999E+01  0.12264E-05
 0.64000001E+01  0.23783E-06
 0.64500003E+01 -0.33231E-06
 0.65000000E+01 -0.20819E-06
 0.65500002E+01 -0.59102E-07
 0.65999999E+01 -0.21491E-06
 0.66500001E+01 -0.64917E-07
 0.67000003E+01  0.63511E-07
 0.67500000E+01 -0.17823E-07
 0.68000002E+01 -0.27578E-06
 0.68499999E+01 -0.54748E-06
 0.69000001E+01 -0.51279E-06
 0.69500003E+01 -0.36163E-06
 0.70000000E+01 -0.47591E-06
 0.70500002E+01 -0.10119E-05
 0.70999999E+01 -0.11447E-05
 0.71500001E+01 -0.10632E-05
 0.72000003E+01 -0.91820E-06
 0.72500000E+01 -0.35670E-06
 0.73000002E+01 -0.23523E-06
 0.73499999E+01 -0.84318E-08
 0.74000001E+01  0.39515E-06
 0.74500003E+01  0.54151E-06
 0.75000000E+01  0.11824E-05
 0.75500002E+01  0.13199E-05
 0.75999999E+01  0.12870E-05
 0.76500001E+01  0.12204E-05
 0.77000003E+01  0.10298E-05
 0.77500000E+01  0.13397E-05
 0.78000002E+01  0.61682E-06
 0.78499999E+01 -0.70182E-07
 0.79000001E+01 -0.25820E-06
 0.79500003E+01 -0.59451E-06
 0.80000000E+01 -0.61942E-06
 0.80500002E+01 -0.98960E-06
 0.81000004E+01 -0.10185E-05
 0.81500006E+01 -0.72348E-06
 0.81999998E+01 -0.64335E-06
 0.82500000E+01 -0.58508E-06
 0.83000002E+01 -0.52106E-06
 0.83500004E+01 -0.19086E-06
 0.84000006E+01  0.31798E-07
 0.84499998E+01  0.27502E-06
 0.85000000E+01  0.63713E-06
 0.85500002E+01  0.27659E-06
 0.86000004E+01 -0.55437E-06
 0.86500006E+01 -0.42331E-06
 0.86999998E+01  0.33996E-06
 0.87500000E+01  0.55712E-06
 0.88000002E+01  0.77401E-06
 0.88500004E+01  0.67803E-06
 0.89000006E+01 -0.12071E-06
 0.89499998E+01 -0.69670E-06
 0.90000000E+01 -0.69612E-06
 0.90500002E+01 -0.83212E-06
 0.91000004E+01 -0.15743E-05
 0.91500006E+01 -0.18218E-05
 0.91999998E+01 -0.10952E-05
 0.92500000E+01 -0.37089E-06
 0.93000002E+01 -0.92347E-07
 0.93500004E+01  0.57269E-06
 0.94000006E+01  0.15501E-05
 0.94499998E+01  0.20696E-05
 0.95000000E+01  0.19918E-05
 0.95500002E+01  0.15432E-05
 0.96000004E+01  0.10927E-05
 0.96500006E+01  0.19956E-06
 0.96999998E+01 -0.26821E-06
 0.97500000E+01  0.27344E-07
 0.98000002E+01  0.36694E-06
 0.98500004E+01  0.48693E-06
 0.99000006E+01 -0.36844E-07
 0.99499998E+01 -0.34375E-06
 0.10000000E+02 -0.88006E-06
 0.10050000E+02 -0.15665E-05
 0.10100000E+02 -0.18714E-05
 0.10150001E+02 -0.21264E-05
 0.10200000E+02 -0.15606E-05
 0.10250000E+02 -0.10028E-05
 0.10300000E+02 -0.56420E-06
 0.10350000E+02 -0.34145E-07
 0.10400001E+02  0.26818E-06
 0.10450000E+02  0.79969E-06
 0.10500000E+02  0.13640E-05
 0.10550000E+02  0.23229E-05
 0.10600000E+02  0.25564E-05
 0.10650001E+02  0.21569E-05
 0.10700000E+02  0.21133E-05
 0.10750000E+02  0.13533E-05
 0.10800000E+02  0.10435E-05
 0.10850000E+02  0.78422E-06
 0.10900001E+02  0.45744E-07
 0.10950000E+02 -0.49798E-06
 0.11000000E+02 -0.11964E-05
 0.11050000E+02 -0.14207E-05
 0.11100000E+02 -0.20741E-05
 0.11150001E+02 -0.24072E-05
 0.11200000E+02 -0.20833E-05
 0.11250000E+02 -0.18553E-05
 0.11300000E+02 -0.94346E-06
 0.11350000E+02 -0.18115E-06
 0.11400001E+02  0.81707E-07
 0.11450000E+02  0.84494E-07
 0.11500000E+02  0.58294E-06
 0.11550000E+02  0.10875E-05
 0.11600000E+02  0.64356E-06
 0.11650001E+02  0.78517E-06
 0.11700000E+02  0.13542E-05
 0.11750000E+02  0.14549E-05
 0.11800000E+02  0.90810E-06
 0.11850000E+02 -0.14615E-06
 0.11900001E+02 -0.37702E-06
 0.11950000E+02 -0.54311E-06
 0.12000000E+02 -0.81832E-06
 0.12050000E+02 -0.57597E-06
 0.12100000E+02 -0.64539E-06
 0.12150001E+02 -0.52332E-06
 0.12200000E+02 -0.52345E-06
 0.12250000E+02 -0.66170E-06
 0.12300000E+02 -0.41846E-06
 0.12350000E+02 -0.33342E-06
 0.12400001E+02 -0.37477E-06
 0.12450000E+02 -0.21799E-06
 0.12500000E+02  0.63757E-07
 0.12550000E+02  0.26444E-06
 0.12600000E+02  0.73520E-06
 0.12650001E+02  0.13045E-05
 0.12700000E+02  0.16484E-05
 0.12750000E+02  0.13799E-05
 0.12800000E+02  0.68972E-06
 0.12850000E+02  0.11094E-06
 0.12900001E+02 -0.49707E-06
 0.12950000E+02 -0.85249E-06
 0.13000000E+02 -0.89880E-06
 0.13050000E+02 -0.82579E-06
 0.13100000E+02 -0.84198E-06
 0.13150001E+02 -0.56574E-06
 0.13200000E+02 -0.10221E-06
 0.13250000E+02  0.12274E-07
 0.13300000E+02  0.40849E-07
 0.13350000E+02  0.17754E-07
 0.13400001E+02  0.19253E-06
 0.13450000E+02  0.11880E-06
 0.13500000E+02 -0.10648E-06
 0.13550000E+02  0.20764E-06
 0.13600000E+02  0.29580E-06
 0.13650001E+02  0.89570E-07
 0.13700000E+02  0.28161E-06
 0.13750000E+02  0.77054E-06
 0.13800000E+02  0.83279E-06
 0.13850000E+02  0.80900E-06
 0.13900001E+02  0.67884E-06
 0.13950000E+02  0.33933E-06
 0.14000000E+02  0.81994E-06
 0.14050000E+02  0.99683E-06
 0.14100000E+02  0.49402E-06
 0.14150001E+02 -0.16723E-06
 0.14200000E+02 -0.97677E-06
 0.14250000E+02 -0.13044E-05
 0.14300000E+02 -0.15142E-05
 0.14350000E+02 -0.12637E-05
 0.14400001E+02 -0.12450E-05
 0.14450000E+02 -0.14057E-05
 0.14500000E+02 -0.99850E-06
 0.14550000E+02 -0.12645E-05
 0.14600000E+02 -0.12760E-05
 0.14650001E+02 -0.74802E-06
 0.14700000E+02  0.13955E-06
 0.14750000E+02  0.12646E-05
 0.14800000E+02  0.15925E-05
 0.14850000E+02  0.21872E-05
 0.14900001E+02  0.29688E-05
 0.14950000E+02  0.27294E-05
 0.15000000E+02  0.18548E-05
 0.15050000E+02  0.11528E-05
 0.15100000E+02  0.40078E-06
 0.15150001E+02 -0.43916E-06
 0.15200000E+02 -0.79510E-06
 0.15250000E+02 -0.14620E-05
 0.15300000E+02 -0.21356E-05
 0.15350000E+02 -0.23544E-05
 0.15400001E+02 -0.24298E-05
 0.15450000E+02 -0.19948E-05
 0.15500000E+02 -0.14442E-05
 0.15550000E+02 -0.69226E-06
 0.15600000E+02  0.13264E-06
 0.15650001E+02  0.78897E-06
 0.15700000E+02  0.14043E-05
 0.15750000E+02  0.18139E-05
 0.15800000E+02  0.20326E-05
 0.15850000E+02  0.18687E-05
 0.15900001E+02  0.14642E-05
 0.15950000E+02  0.99458E-06
 0.16000000E+02  0.12818E-06
 0.16050001E+02 -0.44828E-06
 0.16100000E+02 -0.67360E-06
 0.16150000E+02 -0.10291E-05
 0.16200001E+02 -0.51837E-06
 0.16250000E+02 -0.54788E-07
 0.16300001E+02 -0.31977E-06
 0.16350000E+02 -0.37726E-06
 0.16400000E+02 -0.24938E-06
 0.16450001E+02 -0.24078E-06
 0.16500000E+02 -0.30713E-06
 0.16550001E+02 -0.42291E-06
 0.16600000E+02 -0.79279E-06
 0.16650000E+02 -0.72794E-06
 0.16700001E+02 -0.51600E-06
 0.16750000E+02 -0.41490E-06
 0.16800001E+02  0.70398E-07
 0.16850000E+02  0.45513E-06
 0.16900000E+02  0.84648E-06
 0.16950001E+02  0.97449E-06
 0.17000000E+02  0.33151E-06
 0.17050001E+02 -0.90656E-07
 0.17100000E+02  0.67958E-07
 0.17150000E+02  0.12736E-06
 0.17200001E+02  0.51437E-06
 0.17250000E+02  0.66469E-06
 0.17300001E+02  0.19821E-06
 0.17350000E+02  0.30906E-07
 0.17400000E+02 -0.51228E-07
 0.17450001E+02 -0.21802E-06
 0.17500000E+02 -0.51249E-06
 0.17550001E+02 -0.54226E-06
 0.17600000E+02 -0.46693E-06
 0.17650000E+02 -0.11540E-06
 0.17700001E+02  0.41395E-06
 0.17750000E+02  0.35310E-06
 0.17800001E+02  0.42842E-06
 0.17850000E+02  0.23985E-06
 0.17900000E+02  0.19435E-06
 0.17950001E+02  0.73311E-06
 0.18000000E+02  0.79186E-06
 0.18050001E+02  0.36037E-06
 0.18100000E+02  0.15289E-06
 0.18150000E+02 -0.12690E-06
 0.18200001E+02 -0.11003E-05
 0.18250000E+02 -0.14664E-05
 0.18300001E+02 -0.10876E-05
 0.18350000E+02 -0.71824E-06
 0.18400000E+02 -0.35656E-06
 0.18450001E+02 -0.25201E-06
 0.18500000E+02  0.47920E-07
 0.18550001E+02  0.45606E-06
 0.18600000E+02  0.48698E-06
 0.18650000E+02  0.16797E-06
 0.18700001E+02 -0.24113E-06
 0.18750000E+02 -0.45904E-06
 0.18800001E+02 -0.46497E-06
 0.18850000E+02  0.11620E-06
 0.18900000E+02  0.42939E-06
 0.18950001E+02  0.47689E-06
 0.19000000E+02  0.89367E-06
 0.19050001E+02  0.94901E-06
 0.19100000E+02  0.83390E-06
 0.19150000E+02  0.50174E-06
 0.19200001E+02  0.23569E-06
 0.19250000E+02 -0.94672E-07
 0.19300001E+02 -0.70832E-06
 0.19350000E+02 -0.99222E-06
 0.19400000E+02 -0.66647E-06
 0.19450001E+02 -0.15991E-06
 0.19500000E+02  0.10154E-06
 0.19550001E+02  0.33448E-06
 0.19600000E+02  0.55586E-06
 0.19650000E+02  0.98786E-06
 0.19700001E+02  0.77779E-06
 0.19750000E+02  0.12922E-07
 0.19800001E+02 -0.71164E-06
 0.19850000E+02 -0.11201E-05
 0.19900000E+02 -0.13125E-05
 0.19950001E+02 -0.14982E-05
 0.20000000E+02 -0.14099E-05
 0.20050001E+02 -0.12250E-05
 0.20100000E+02 -0.32124E-06
 0.20150000E+02 -0.39308E-06
 0.20200001E+02 -0.43396E-06
 0.20250000E+02  0.10049E-05
 0.20300001E+02  0.17733E-05
 0.20350000E+02  0.19514E-05
 0.20400000E+02  0.16260E-05
 0.20450001E+02  0.13127E-05
 0.20500000E+02  0.11827E-05
 0.20550001E+02  0.10419E-05
 0.20600000E+02  0.11456E-05
 0.20650000E+02  0.99616E-06
 0.20700001E+02  0.26344E-06
 0.20750000E+02 -0.31157E-06
 0.20800001E+02 -0.32763E-06
 0.20850000E+02 -0.64534E-06
 0.20900000E+02 -0.94759E-06
 0.20950001E+02 -0.13647E-05
 0.21000000E+02 -0.16615E-05
 0.21050001E+02 -0.15808E-05
 0.21100000E+02 -0.17319E-05
 0.21150000E+02 -0.17221E-05
 0.21200001E+02 -0.12686E-05
 0.21250000E+02 -0.62086E-06
 0.21300001E+02 -0.47204E-07
 0.21350000E+02  0.61660E-06
 0.21400000E+02  0.11276E-05
 0.21450001E+02  0.14546E-05
 0.21500000E+02  0.13333E-05
 0.21550001E+02  0.10378E-05
 0.21600000E+02  0.96958E-06
 0.21650000E+02  0.62864E-06
 0.21700001E+02  0.42526E-06
 0.21750000E+02  0.65831E-07
 0.21800001E+02 -0.31936E-06
 0.21850000E+02 -0.14727E-06
 0.21900000E+02 -0.16169E-07
 0.21950001E+02 -0.28708E-06
 0.22000000E+02 -0.55282E-06
 0.22050001E+02 -0.44429E-06
 0.22100000E+02 -0.24713E-06
 0.22150000E+02 -0.73180E-07
 0.22200001E+02  0.15709E-06
 0.22250000E+02  0.27087E-06
 0.22300001E+02  0.33129E-06
 0.22350000E+02  0.91236E-06
 0.22400000E+02  0.13096E-05
 0.22450001E+02  0.10336E-05
 0.22500000E+02  0.58287E-06
 0.22550001E+02 -0.19737E-06
 0.22600000E+02 -0.55225E-06
 0.22650000E+02 -0.72723E-06
 0.22700001E+02 -0.11256E-05
 0.22750000E+02 -0.15048E-05
 0.22800001E+02 -0.18055E-05
 0.22850000E+02 -0.13552E-05
 0.22900000E+02 -0.97221E-06
 0.22950001E+02 -0.81882E-06
 0.23000000E+02 -0.11307E-06
 0.23050001E+02  0.21834E-06
 0.23100000E+02  0.90408E-06
 0.23150000E+02  0.13822E-05
 0.23200001E+02  0.14920E-05
 0.23250000E+02  0.14705E-05
 0.23300001E+02  0.92031E-06
 0.23350000E+02  0.93722E-06
 0.23400000E+02 -0.30703E-06
 0.23450001E+02  0.13535E-06
 0.23500000E+02 -0.14724E-05
 0.23550001E+02 -0.91849E-06
 0.23600000E+02 -0.33693E-05
 0.23650000E+02 -0.95324E-05
 0.23700001E+02 -0.16386E-04
 0.23750000E+02 -0.30248E-04
 0.23800001E+02 -0.22276E-04
 0.23850000E+02 -0.20342E-04
 0.23900000E+02  0.94928E-05
 0.23950001E+02  0.72379E-04
 0.24000000E+02  0.67736E-04
 0.24050001E+02  0.50059E-04
 0.24100000E+02  0.30838E-04
 0.24150000E+02 -0.13703E-04
 0.24200001E+02 -0.45805E-04
 0.24250000E+02 -0.43471E-04
 0.24300001E+02 -0.53086E-05
 0.24350000E+02  0.70062E-05
 0.24400000E+02  0.13231E-04
 0.24450001E+02  0.13486E-04
 0.24500000E+02 -0.18653E-04
 0.24550001E+02 -0.25843E-04
 0.24600000E+02 -0.69783E-05
 0.24650000E+02  0.12966E-04
 0.24700001E+02 -0.20855E-05
 0.24750000E+02 -0.32115E-04
 0.24800001E+02 -0.21753E-04
 0.24850000E+02 -0.25146E-04
 0.24900000E+02 -0.22400E-04
 0.24950001E+02  0.14210E-04
 0.25000000E+02  0.36624E-04
 0.25050001E+02  0.24569E-04
 0.25100000E+02  0.15878E-04
 0.25150000E+02  0.19945E-04
 0.25200001E+02 -0.26648E-04
 0.25250000E+02 -0.35197E-04
 0.25300001E+02  0.16960E-05
 0.25350000E+02  0.23974E-04
 0.25400000E+02  0.20143E-04
 0.25450001E+02 -0.11030E-05
 0.25500000E+02  0.80266E-06
 0.25550001E+02  0.76156E-05
 0.25600000E+02  0.66754E-05
 0.25650000E+02 -0.18472E-05
 0.25700001E+02  0.11492E-06
 0.25750000E+02 -0.15013E-04
 0.25800001E+02 -0.66575E-05
 0.25850000E+02 -0.86771E-05
 0.25900000E+02 -0.10776E-04
 0.25950001E+02  0.11878E-04
 0.26000000E+02  0.13476E-04
 0.26050001E+02  0.16627E-04
 0.26100000E+02 -0.68257E-05
 0.26150000E+02  0.39405E-05
 0.26200001E+02  0.55910E-05
 0.26250000E+02 -0.39726E-05
 0.26300001E+02 -0.28184E-06
 0.26350000E+02 -0.20921E-04
 0.26400000E+02 -0.92356E-05
 0.26450001E+02  0.13379E-05
 0.26500000E+02  0.24080E-05
 0.26550001E+02  0.20914E-05
 0.26600000E+02  0.17572E-05
 0.26650000E+02 -0.31682E-05
 0.26700001E+02 -0.24305E-05
 0.26750000E+02  0.14947E-04
 0.26800001E+02  0.21744E-05
 0.26850000E+02 -0.40357E-05
 0.26900000E+02 -0.45157E-06
 0.26950001E+02  0.14674E-04
 0.27000000E+02  0.92709E-05
 0.27050001E+02 -0.27494E-04
 0.27100000E+02 -0.15954E-04
 0.27150000E+02  0.89827E-05
 0.27200001E+02  0.17296E-05
 0.27250000E+02 -0.34325E-04
 0.27300001E+02 -0.15211E-04
 0.27350000E+02  0.31880E-04
 0.27400000E+02  0.22752E-04
 0.27450001E+02  0.43158E-05
 0.27500000E+02  0.58690E-05
 0.27550001E+02  0.17051E-04
 0.27600000E+02 -0.63436E-05
 0.27650000E+02 -0.14659E-04
 0.27700001E+02  0.13747E-04
 0.27750000E+02  0.49808E-05
 0.27800001E+02 -0.14628E-04
 0.27850000E+02 -0.70110E-05
 0.27900000E+02  0.93232E-05
 0.27950001E+02  0.17414E-04
 0.28000000E+02  0.14683E-04
 0.28050001E+02 -0.19914E-04
 0.28100000E+02 -0.42842E-04
 0.28150000E+02 -0.23458E-04
 0.28200001E+02 -0.20978E-04
 0.28250000E+02 -0.31590E-05
 0.28300001E+02  0.91879E-05
 0.28350000E+02  0.13180E-04
 0.28400000E+02  0.42499E-04
 0.28450001E+02  0.28987E-04
 0.28500000E+02  0.22635E-04
 0.28550001E+02  0.17716E-04
 0.28600000E+02 -0.67209E-05
 0.28650000E+02 -0.23907E-04
 0.28700001E+02 -0.46358E-04
 0.28750000E+02 -0.16251E-04
 0.28800001E+02 -0.13079E-04
 0.28850000E+02 -0.34583E-04
 0.28900000E+02 -0.10173E-05
 0.28950001E+02  0.29604E-04
 0.29000000E+02  0.45070E-04
 0.29050001E+02  0.16760E-04
 0.29100000E+02  0.55373E-05
 0.29150000E+02  0.19862E-05
 0.29200001E+02 -0.25767E-04
 0.29250000E+02  0.49524E-05
 0.29300001E+02  0.19117E-04
 0.29350000E+02  0.12413E-04
 0.29400000E+02  0.11173E-05
 0.29450001E+02  0.56877E-06
 0.29500000E+02  0.18726E-04
 0.29550001E+02  0.42032E-05
 0.29600000E+02  0.12657E-05
 0.29650000E+02 -0.17018E-04
 0.29700001E+02 -0.29972E-04
 0.29750000E+02 -0.27144E-04
 0.29800001E+02 -0.19665E-04
 0.29850000E+02  0.57041E-05
 0.29900000E+02  0.12532E-05
 0.29950001E+02  0.86086E-05
 0.30000000E+02 -0.34014E-05
 0.30050001E+02 -0.15548E-04
 0.30100000E+02  0.12025E-05
 0.30150000E+02 -0.12137E-04
 0.30200001E+02  0.60840E-05
 0.30250000E+02  0.61122E-05
 0.30300001E+02 -0.39014E-06
 0.30350000E+02  0.25526E-04
 0.30400000E+02  0.14470E-04
 0.30450001E+02  0.94853E-05
 0.30500000E+02  0.21588E-05
 0.30550001E+02 -0.29144E-05
 0.30600000E+02 -0.44058E-05
 0.30650000E+02 -0.17978E-04
 0.30700001E+02 -0.12446E-04
 0.30750000E+02  0.23040E-05
 0.30800001E+02  0.25818E-04
 0.30850000E+02  0.18691E-04
 0.30900000E+02 -0.50839E-05
 0.30950001E+02 -0.31057E-05
 0.31000000E+02 -0.73438E-05
 0.31050001E+02 -0.44801E-05
 0.31100000E+02 -0.14410E-04
 0.31150000E+02 -0.16595E-04
 0.31200001E+02  0.21300E-04
 0.31250000E+02  0.11313E-04
 0.31300001E+02 -0.73191E-05
 0.31350000E+02  0.48321E-05
 0.31400000E+02 -0.72951E-05
 0.31450001E+02 -0.60747E-05
 0.31500000E+02  0.10977E-04
 0.31550001E+02  0.10799E-04
 0.31600000E+02  0.59307E-05
 0.31650000E+02 -0.11678E-05
 0.31700001E+02  0.10855E-04
 0.31750000E+02  0.85760E-05
 0.31800001E+02 -0.32345E-04
 0.31850000E+02 -0.32724E-04
 0.31900000E+02 -0.20110E-05
 0.31950001E+02  0.24525E-04
 0.32000000E+02  0.25183E-04
 0.32049999E+02  0.37722E-05
 0.32100002E+02 -0.13861E-04
 0.32150002E+02 -0.41632E-04
 0.32200001E+02 -0.23527E-04
 0.32250000E+02  0.68990E-05
 0.32299999E+02  0.24443E-04
 0.32350002E+02  0.31103E-04
 0.32400002E+02  0.62153E-05
 0.32450001E+02  0.10825E-04
 0.32500000E+02  0.20840E-04
 0.32549999E+02  0.11432E-04
 0.32600002E+02 -0.11037E-04
 0.32650002E+02 -0.27521E-04
 0.32700001E+02 -0.20509E-04
 0.32750000E+02 -0.81011E-05
 0.32799999E+02  0.80970E-05
 0.32850002E+02  0.28336E-05
 0.32900002E+02 -0.25967E-04
 0.32950001E+02 -0.20191E-04
 0.33000000E+02  0.59799E-05
 0.33049999E+02  0.67309E-05
 0.33100002E+02 -0.73749E-05
 0.33150002E+02  0.12805E-06
 0.33200001E+02  0.33160E-04
 0.33250000E+02  0.22027E-04
 0.33299999E+02  0.11167E-04
 0.33350002E+02  0.11635E-04
 0.33400002E+02 -0.16757E-04
 0.33450001E+02 -0.17140E-04
 0.33500000E+02 -0.17053E-04
 0.33549999E+02 -0.86630E-05
 0.33600002E+02  0.95365E-05
 0.33650002E+02  0.68807E-05
 0.33700001E+02  0.13696E-04
 0.33750000E+02  0.47934E-05
 0.33799999E+02  0.70875E-05
 0.33850002E+02  0.10239E-04
 0.33900002E+02 -0.84964E-05
 0.33950001E+02  0.59633E-06
 0.34000000E+02 -0.10055E-04
 0.34049999E+02 -0.20524E-04
 0.34100002E+02  0.20005E-05
 0.34150002E+02  0.62345E-05
 0.34200001E+02  0.12415E-05
 0.34250000E+02 -0.45339E-05
 0.34299999E+02 -0.14044E-04
 0.34350002E+02 -0.60677E-05
 0.34400002E+02  0.68301E-05
 0.34450001E+02  0.31034E-05
 0.34500000E+02  0.15199E-04
 0.34549999E+02  0.25304E-04
 0.34600002E+02  0.12953E-05
 0.34650002E+02 -0.39197E-05
 0.34700001E+02  0.11906E-05
 0.34750000E+02 -0.10020E-04
 0.34799999E+02 -0.17085E-04
 0.34850002E+02 -0.14903E-04
 0.34900002E+02  0.41266E-05
 0.34950001E+02  0.46635E-06
 0.35000000E+02 -0.16438E-04
 0.35049999E+02 -0.73800E-05
 0.35100002E+02  0.20438E-05
 0.35150002E+02  0.22512E-05
 0.35200001E+02  0.52171E-05
 0.35250000E+02  0.15168E-04
 0.35299999E+02  0.23153E-04
 0.35350002E+02  0.27010E-04
 0.35400002E+02  0.43020E-05
 0.35450001E+02 -0.10916E-04
 0.35500000E+02 -0.11871E-04
 0.35549999E+02 -0.29431E-04
 0.35600002E+02 -0.26106E-04
 0.35650002E+02 -0.11092E-04
 0.35700001E+02  0.67831E-06
 0.35750000E+02  0.12017E-04
 0.35799999E+02  0.29657E-04
 0.35850002E+02  0.22537E-04
 0.35900002E+02 -0.35089E-05
 0.35950001E+02  0.10291E-04
 0.36000000E+02  0.99019E-05
 0.36049999E+02 -0.15771E-04
 0.36100002E+02 -0.12089E-04
 0.36150002E+02  0.63355E-05
 0.36200001E+02  0.94106E-05
 0.36250000E+02 -0.26993E-05
 0.36299999E+02 -0.61513E-05
 0.36350002E+02 -0.69062E-06
 0.36400002E+02 -0.67175E-05
 0.36450001E+02 -0.14919E-04
 0.36500000E+02 -0.30005E-05
 0.36549999E+02 -0.62255E-05
 0.36600002E+02 -0.11350E-04
 0.36650002E+02  0.15180E-04
 0.36700001E+02  0.14204E-04
 0.36750000E+02 -0.67444E-06
 0.36799999E+02 -0.47375E-05
 0.36850002E+02 -0.95074E-05
 0.36900002E+02 -0.10644E-04
 0.36950001E+02 -0.11267E-04
 0.37000000E+02  0.80049E-05
 0.37049999E+02  0.18582E-04
 0.37100002E+02  0.14468E-04
 0.37150002E+02  0.25260E-04
 0.37200001E+02  0.24202E-04
 0.37250000E+02  0.52181E-05
 0.37299999E+02 -0.16383E-04
 0.37350002E+02 -0.23852E-04
 0.37400002E+02 -0.20262E-04
 0.37450001E+02 -0.23057E-04
 0.37500000E+02 -0.15843E-04
 0.37549999E+02 -0.30727E-05
 0.37600002E+02  0.95305E-05
 0.37650002E+02  0.13619E-04
 0.37700001E+02  0.62680E-05
 0.37750000E+02  0.16087E-04
 0.37799999E+02  0.27317E-04
 0.37850002E+02  0.13490E-04
 0.37900002E+02 -0.12202E-04
 0.37950001E+02 -0.22056E-04
 0.38000000E+02 -0.20917E-04
 0.38049999E+02 -0.30726E-04
 0.38100002E+02 -0.85022E-05
 0.38150002E+02  0.29617E-04
 0.38200001E+02  0.22714E-04
 0.38250000E+02  0.69670E-05
 0.38299999E+02  0.46171E-05
 0.38350002E+02 -0.13406E-05
 0.38400002E+02 -0.14406E-04
 0.38450001E+02 -0.18703E-04
 0.38500000E+02 -0.69730E-05
 0.38549999E+02  0.11426E-06
 0.38600002E+02  0.94787E-05
 0.38650002E+02  0.26409E-04
 0.38700001E+02  0.21885E-04
 0.38750000E+02  0.49997E-05
 0.38799999E+02  0.32175E-05
 0.38850002E+02  0.98668E-05
 0.38900002E+02 -0.47576E-05
 0.38950001E+02 -0.20579E-04
 0.39000000E+02 -0.19570E-04
 0.39049999E+02 -0.16285E-04
 0.39100002E+02  0.27425E-05
 0.39150002E+02 -0.29722E-05
 0.39200001E+02 -0.53609E-05
 0.39250000E+02  0.76405E-05
 0.39299999E+02 -0.51527E-05
 0.39350002E+02 -0.17607E-05
 0.39400002E+02 -0.33887E-05
 0.39450001E+02 -0.40507E-05
 0.39500000E+02  0.13583E-04
 0.39549999E+02  0.12701E-04
 0.39600002E+02  0.12144E-04
 0.39650002E+02  0.16547E-04
 0.39700001E+02  0.42457E-05
 0.39750000E+02 -0.13428E-04
 0.39799999E+02 -0.24111E-04
 0.39850002E+02 -0.11456E-04
 0.39900002E+02 -0.46124E-05
 0.39950001E+02 -0.12060E-04
 0.40000000E+02  0.13319E-05
 0.40049999E+02 -0.14967E-05
 0.40100002E+02  0.11206E-05
 0.40150002E+02  0.21631E-04
 0.40200001E+02  0.24909E-04
 0.40250000E+02  0.21406E-04
 0.40299999E+02 -0.22491E-06
 0.40350002E+02 -0.78591E-05
 0.40400002E+02  0.11825E-05
 0.40450001E+02 -0.15080E-04
 0.40500000E+02 -0.12724E-04
 0.40549999E+02  0.28669E-05
 0.40600002E+02 -0.10114E-04
 0.40650002E+02 -0.95524E-05
 0.40700001E+02  0.81743E-05
 0.40750000E+02  0.28814E-05
 0.40799999E+02 -0.45256E-05
 0.40850002E+02 -0.27713E-05
 0.40900002E+02 -0.10720E-04
 0.40950001E+02 -0.15398E-04
 0.41000000E+02  0.35831E-07
 0.41049999E+02  0.13689E-04
 0.41100002E+02  0.69806E-05
 0.41150002E+02  0.21992E-04
 0.41200001E+02  0.44067E-04
 0.41250000E+02  0.26355E-04
 0.41299999E+02 -0.15100E-04
 0.41350002E+02 -0.34489E-04
 0.41400002E+02 -0.16126E-04
 0.41450001E+02 -0.11952E-04
 0.41500000E+02 -0.21201E-06
 0.41549999E+02  0.12201E-05
 0.41600002E+02 -0.14974E-04
 0.41650002E+02  0.59807E-05
 0.41700001E+02 -0.90677E-05
 0.41750000E+02 -0.46132E-05
 0.41799999E+02  0.52535E-05
 0.41850002E+02 -0.22481E-04
 0.41900002E+02  0.91180E-06
 0.41950001E+02  0.13895E-04
 0.42000000E+02  0.28804E-04
 0.42049999E+02  0.29096E-04
 0.42100002E+02  0.13415E-04
 0.42150002E+02  0.75112E-05
 0.42200001E+02 -0.29922E-04
 0.42250000E+02 -0.34880E-04
 0.42299999E+02 -0.65750E-05
 0.42350002E+02 -0.33572E-05
 0.42400002E+02 -0.19950E-04
 0.42450001E+02  0.27339E-04
 0.42500000E+02  0.45026E-04
 0.42549999E+02 -0.32072E-04
 0.42600002E+02 -0.23088E-04
 0.42650002E+02  0.39638E-04
 0.42700001E+02  0.28288E-04
 0.42750000E+02 -0.51296E-04
 0.42799999E+02 -0.44875E-04
 0.42850002E+02  0.37147E-04
 0.42900002E+02 -0.24234E-04
 0.42950001E+02 -0.27412E-04
 0.43000000E+02  0.45474E-04
 0.43049999E+02  0.24372E-04
 0.43100002E+02  0.12920E-04
 0.43150002E+02  0.11500E-04
 0.43200001E+02  0.97306E-04
 0.43250000E+02  0.80049E-04
 0.43299999E+02 -0.89570E-04
 0.43350002E+02 -0.79264E-04
 0.43400002E+02 -0.89747E-04
 0.43450001E+02 -0.13730E-03
 0.43500000E+02  0.69272E-05
 0.43549999E+02  0.97600E-04
 0.43600002E+02  0.64674E-04
 0.43650002E+02  0.61388E-04
 0.43700001E+02  0.58334E-04
 0.43750000E+02  0.27983E-04
 0.43799999E+02  0.13727E-04
 0.43850002E+02 -0.79181E-04
 0.43900002E+02 -0.14595E-03
 0.43950001E+02 -0.66333E-04
 0.44000000E+02 -0.16039E-04
 0.44049999E+02  0.71649E-04
 0.44100002E+02  0.11376E-03
 0.44150002E+02  0.45010E-04
 0.44200001E+02  0.25365E-04
 0.44250000E+02  0.24326E-05
 0.44299999E+02 -0.20538E-04
 0.44350002E+02 -0.38412E-04
 0.44400002E+02 -0.30462E-04
 0.44450001E+02 -0.18008E-04
 0.44500000E+02 -0.30611E-04
 0.44549999E+02  0.16083E-05
 0.44600002E+02  0.43569E-04
 0.44650002E+02  0.54799E-04
 0.44700001E+02 -0.12702E-05
 0.44750000E+02 -0.52885E-04
 0.44799999E+02 -0.21581E-04
 0.44850002E+02  0.27134E-04
 0.44900002E+02  0.33075E-04
 0.44950001E+02 -0.24367E-04
 0.45000000E+02 -0.56473E-04
 0.45049999E+02 -0.92673E-05
 0.45100002E+02  0.55275E-05
 0.45150002E+02 -0.11042E-04
 0.45200001E+02  0.44576E-04
 0.45250000E+02  0.35633E-04
 0.45299999E+02 -0.24805E-04
 0.45350002E+02 -0.69850E-06
 0.45400002E+02  0.99382E-05
 0.45450001E+02  0.10167E-04
 0.45500000E+02  0.41060E-05
 0.45549999E+02 -0.40412E-04
 0.45600002E+02 -0.25050E-04
 0.45650002E+02  0.21416E-04
 0.45700001E+02  0.18975E-04
 0.45750000E+02  0.32733E-04
 0.45799999E+02  0.50256E-05
 0.45850002E+02 -0.35837E-04
 0.45900002E+02  0.33899E-04
 0.45950001E+02  0.36709E-04
 0.46000000E+02 -0.55421E-04
 0.46049999E+02 -0.38542E-04
 0.46100002E+02 -0.19680E-05
 0.46150002E+02  0.12940E-04
 0.46200001E+02  0.29878E-04
 0.46250000E+02 -0.86498E-05
 0.46299999E+02  0.11005E-04
 0.46350002E+02 -0.61044E-05
 0.46400002E+02 -0.33646E-04
 0.46450001E+02 -0.10618E-04
 0.46500000E+02 -0.24929E-04
 0.46549999E+02  0.21733E-04
 0.46600002E+02  0.39267E-04
 0.46650002E+02  0.32452E-04
 0.46700001E+02  0.40081E-04
 0.46750000E+02  0.17699E-04
 0.46799999E+02 -0.44000E-05
 0.46850002E+02 -0.41853E-04
 0.46900002E+02 -0.13384E-04
 0.46950001E+02 -0.64778E-05
 0.47000000E+02 -0.66126E-04
 0.47049999E+02 -0.27388E-04
 0.47100002E+02  0.51267E-04
 0.47150002E+02  0.41212E-04
 0.47200001E+02 -0.24823E-04
 0.47250000E+02 -0.56888E-04
 0.47299999E+02 -0.34938E-04
 0.47350002E+02  0.24442E-04
 0.47400002E+02  0.23237E-04
 0.47450001E+02 -0.28451E-04
 0.47500000E+02  0.12366E-04
 0.47549999E+02  0.61455E-04
 0.47600002E+02  0.45533E-04
 0.47650002E+02  0.20265E-04
 0.47700001E+02  0.11700E-04
 0.47750000E+02  0.12555E-05
 0.47799999E+02 -0.94659E-05
 0.47850002E+02 -0.41791E-04
 0.47900002E+02 -0.82913E-04
 0.47950001E+02 -0.32074E-04
 0.48000000E+02  0.15905E-04
 0.48049999E+02  0.22007E-04
 0.48100002E+02  0.35019E-04
 0.48150002E+02  0.26084E-04
 0.48200001E+02  0.29263E-04
 0.48250000E+02  0.63193E-05
 0.48299999E+02 -0.34011E-04
 0.48350002E+02 -0.32732E-04
 0.48400002E+02 -0.21108E-04
 0.48450001E+02 -0.17784E-04
 0.48500000E+02  0.44070E-05
 0.48549999E+02  0.32266E-04
 0.48600002E+02  0.34147E-04
 0.48650002E+02  0.23603E-04
 0.48700001E+02  0.10879E-04
 0.48750000E+02  0.62702E-05
 0.48799999E+02 -0.18321E-04
 0.48850002E+02 -0.26093E-04
 0.48900002E+02 -0.13281E-04
 0.48950001E+02 -0.28738E-04
 0.49000000E+02 -0.42289E-05
 0.49049999E+02  0.10540E-04
 0.49100002E+02 -0.67875E-05
 0.49150002E+02  0.15770E-04
 0.49200001E+02  0.34938E-04
 0.49250000E+02  0.34956E-04
 0.49299999E+02  0.16791E-04
 0.49350002E+02 -0.11244E-04
 0.49400002E+02 -0.18192E-04
 0.49450001E+02 -0.83699E-05
 0.49500000E+02 -0.19460E-04
 0.49549999E+02 -0.51615E-04
 0.49600002E+02 -0.44734E-04
 0.49650002E+02 -0.37328E-05
 0.49700001E+02  0.46299E-04
 0.49750000E+02  0.67951E-04
 0.49799999E+02  0.44506E-04
 0.49850002E+02  0.21561E-04
 0.49900002E+02 -0.11614E-04
 0.49950001E+02 -0.67549E-04
 0.50000000E+02 -0.78836E-04
 0.50049999E+02 -0.16595E-04
 0.50100002E+02  0.58047E-05
 0.50150002E+02 -0.16985E-04
 0.50200001E+02 -0.30523E-05
 0.50250000E+02  0.50810E-04
 0.50299999E+02  0.10419E-03
 0.50350002E+02  0.54467E-04
 0.50400002E+02 -0.23057E-04
 0.50450001E+02 -0.50520E-04
 0.50500000E+02 -0.79870E-04
 0.50549999E+02 -0.54947E-04
 0.50600002E+02  0.55105E-05
 0.50650002E+02  0.20603E-04
 0.50700001E+02  0.31488E-04
 0.50750000E+02  0.57773E-04
 0.50799999E+02  0.69813E-04
 0.50850002E+02  0.53311E-04
 0.50900002E+02 -0.40496E-06
 0.50950001E+02 -0.57810E-04
 0.51000000E+02 -0.74675E-04
 0.51049999E+02 -0.54604E-04
 0.51100002E+02 -0.41316E-04
 0.51150002E+02 -0.20212E-04
 0.51200001E+02  0.13023E-04
 0.51250000E+02  0.44325E-04
 0.51299999E+02  0.60276E-04
 0.51350002E+02  0.47138E-04
 0.51400002E+02  0.29523E-04
 0.51450001E+02 -0.29386E-05
 0.51500000E+02 -0.35509E-04
 0.51549999E+02 -0.69772E-04
 0.51600002E+02 -0.67826E-04
 0.51650002E+02 -0.24802E-04
 0.51700001E+02  0.54505E-05
 0.51750000E+02  0.36766E-04
 0.51799999E+02  0.50606E-04
 0.51850002E+02  0.57540E-04
 0.51900002E+02  0.52795E-04
 0.51950001E+02  0.21102E-04
 0.52000000E+02 -0.28543E-04
 0.52049999E+02 -0.54762E-04
 0.52100002E+02 -0.17193E-04
 0.52150002E+02  0.16888E-05
 0.52200001E+02 -0.26911E-04
 0.52250000E+02 -0.34072E-04
 0.52299999E+02  0.78352E-05
 0.52350002E+02  0.23216E-04
 0.52400002E+02 -0.10764E-04
 0.52450001E+02 -0.12146E-04
 0.52500000E+02 -0.97098E-06
 0.52549999E+02 -0.33242E-05
 0.52600002E+02  0.73642E-05
 0.52650002E+02  0.13960E-04
 0.52700001E+02  0.16843E-04
 0.52750000E+02  0.18107E-04
 0.52799999E+02  0.58043E-06
 0.52850002E+02 -0.67118E-05
 0.52900002E+02  0.90698E-05
 0.52950001E+02  0.18757E-04
 0.53000000E+02  0.30463E-05
 0.53049999E+02 -0.12155E-05
 0.53100002E+02  0.23104E-04
 0.53150002E+02  0.17203E-04
 0.53200001E+02 -0.14938E-04
 0.53250000E+02 -0.30783E-04
 0.53299999E+02 -0.21616E-04
 0.53350002E+02 -0.12039E-04
 0.53400002E+02 -0.22930E-04
 0.53450001E+02 -0.23850E-04
 0.53500000E+02 -0.14227E-04
 0.53549999E+02  0.51105E-05
 0.53600002E+02  0.35858E-04
 0.53650002E+02  0.27210E-04
 0.53700001E+02  0.14282E-05
 0.53750000E+02 -0.92484E-05
 0.53799999E+02 -0.80713E-05
 0.53850002E+02  0.57222E-05
 0.53900002E+02 -0.83913E-07
 0.53950001E+02 -0.99027E-05
 0.54000000E+02 -0.49214E-05
 0.54049999E+02 -0.72391E-05
 0.54100002E+02 -0.68566E-05
 0.54150002E+02 -0.70761E-07
 0.54200001E+02  0.10269E-04
 0.54250000E+02  0.28005E-04
 0.54299999E+02  0.11526E-04
 0.54350002E+02 -0.20273E-04
 0.54400002E+02 -0.23480E-04
 0.54450001E+02 -0.28750E-05
 0.54500000E+02  0.67886E-05
 0.54549999E+02  0.55160E-05
 0.54600002E+02  0.28846E-04
 0.54650002E+02  0.40828E-04
 0.54700001E+02  0.39283E-04
 0.54750000E+02  0.26161E-04
 0.54799999E+02  0.21190E-05
 0.54850002E+02 -0.28940E-04
 0.54900002E+02 -0.54746E-04
 0.54950001E+02 -0.44242E-04
 0.55000000E+02 -0.36715E-04
 0.55049999E+02 -0.25773E-04
 0.55100002E+02  0.34415E-05
 0.55150002E+02  0.23912E-04
 0.55200001E+02  0.43640E-04
 0.55250000E+02  0.45061E-04
 0.55299999E+02  0.84487E-05
 0.55350002E+02 -0.79120E-05
 0.55400002E+02  0.84915E-05
 0.55450001E+02 -0.36041E-05
 0.55500000E+02 -0.34572E-04
 0.55549999E+02 -0.47256E-04
 0.55600002E+02 -0.33723E-04
 0.55650002E+02 -0.71810E-05
 0.55700001E+02 -0.17449E-05
 0.55750000E+02  0.37328E-05
 0.55799999E+02  0.22568E-04
 0.55850002E+02  0.22144E-04
 0.55900002E+02  0.19324E-04
 0.55950001E+02  0.64383E-05
 0.56000000E+02 -0.16669E-04
 0.56049999E+02 -0.11942E-04
 0.56100002E+02  0.64525E-05
 0.56150002E+02  0.22108E-04
 0.56200001E+02  0.21906E-04
 0.56250000E+02  0.11960E-04
 0.56299999E+02  0.55455E-05
 0.56350002E+02 -0.50514E-05
 0.56400002E+02 -0.89766E-05
 0.56450001E+02 -0.79171E-05
 0.56500000E+02 -0.20893E-04
 0.56549999E+02 -0.40412E-04
 0.56600002E+02 -0.29478E-04
 0.56650002E+02  0.79670E-05
 0.56700001E+02  0.33034E-04
 0.56750000E+02  0.34623E-04
 0.56799999E+02  0.35999E-04
 0.56850002E+02  0.41011E-04
 0.56900002E+02  0.15595E-04
 0.56950001E+02 -0.19562E-04
 0.57000000E+02 -0.31311E-04
 0.57049999E+02 -0.29070E-04
 0.57100002E+02 -0.15709E-04
 0.57150002E+02  0.10538E-04
 0.57200001E+02  0.27348E-04
 0.57250000E+02  0.22786E-04
 0.57299999E+02  0.15863E-04
 0.57350002E+02 -0.13301E-04
 0.57400002E+02 -0.62032E-04
 0.57450001E+02 -0.71339E-04
 0.57500000E+02 -0.46316E-04
 0.57549999E+02 -0.16180E-04
 0.57600002E+02  0.22066E-04
 0.57650002E+02  0.51202E-04
 0.57700001E+02  0.60645E-04
 0.57750000E+02  0.44188E-04
 0.57799999E+02  0.99567E-05
 0.57850002E+02 -0.64539E-05
 0.57900002E+02 -0.10311E-04
 0.57950001E+02 -0.18537E-04
 0.58000000E+02 -0.10136E-04
 0.58049999E+02  0.12856E-04
 0.58100002E+02  0.12099E-04
 0.58150002E+02 -0.27446E-06
 0.58200001E+02  0.20543E-05
 0.58250000E+02  0.52734E-06
 0.58299999E+02 -0.20373E-04
 0.58350002E+02 -0.33048E-04
 0.58400002E+02 -0.23625E-04
 0.58450001E+02 -0.10590E-04
 0.58500000E+02  0.13746E-04
 0.58549999E+02  0.23901E-04
 0.58600002E+02  0.13233E-04
 0.58650002E+02 -0.17262E-05
 0.58700001E+02 -0.18719E-04
 0.58750000E+02 -0.21418E-04
 0.58799999E+02 -0.27233E-04
 0.58850002E+02 -0.17106E-04
 0.58900002E+02  0.21008E-04
 0.58950001E+02  0.50054E-04
 0.59000000E+02  0.44782E-04
 0.59049999E+02  0.24917E-04
 0.59100002E+02  0.13465E-04
 0.59150002E+02 -0.89134E-05
 0.59200001E+02 -0.14971E-04
 0.59250000E+02 -0.13154E-04
 0.59299999E+02 -0.22060E-04
 0.59350002E+02  0.18318E-05
 0.59400002E+02  0.32049E-04
 0.59450001E+02  0.23698E-04
 0.59500000E+02 -0.66847E-05
 0.59549999E+02 -0.20905E-04
 0.59600002E+02 -0.20077E-04
 0.59650002E+02 -0.27530E-04
 0.59700001E+02 -0.27681E-04
 0.59750000E+02 -0.11386E-04
 0.59799999E+02 -0.13695E-05
 0.59850002E+02 -0.68804E-05
 0.59900002E+02 -0.61562E-05
 0.59950001E+02  0.16274E-04
 0.60000000E+02  0.35885E-04
 0.60049999E+02  0.30976E-04
 0.60100002E+02  0.10546E-04
 0.60150002E+02 -0.10976E-04
 0.60200001E+02 -0.11971E-04
 0.60250000E+02 -0.88230E-05
 0.60299999E+02 -0.18059E-04
 0.60350002E+02 -0.10357E-04
 0.60400002E+02  0.65203E-05
 0.60450001E+02  0.17326E-04
 0.60500000E+02  0.17502E-04
 0.60549999E+02  0.14254E-04
 0.60600002E+02  0.21134E-04
 0.60650002E+02  0.13330E-04
 0.60700001E+02 -0.14434E-05
 0.60750000E+02 -0.67280E-05
 0.60799999E+02 -0.12050E-04
 0.60850002E+02 -0.12274E-04
 0.60900002E+02 -0.14380E-04
 0.60950001E+02 -0.18402E-04
 0.61000000E+02 -0.20225E-04
 0.61049999E+02 -0.20897E-04
 0.61100002E+02 -0.15298E-04
 0.61150002E+02 -0.12621E-04
 0.61200001E+02 -0.60185E-05
 0.61250000E+02  0.77990E-05
 0.61299999E+02  0.17058E-04
 0.61350002E+02  0.24596E-04
 0.61400002E+02  0.32955E-04
 0.61450001E+02  0.49591E-04
 0.61500000E+02  0.45769E-04
 0.61549999E+02  0.13904E-04
 0.61600002E+02 -0.44263E-05
 0.61650002E+02 -0.19352E-04
 0.61700001E+02 -0.33869E-04
 0.61750000E+02 -0.32441E-04
 0.61799999E+02 -0.32935E-04
 0.61850002E+02 -0.41051E-04
 0.61900002E+02 -0.36051E-04
 0.61950001E+02 -0.99919E-05
 0.62000000E+02  0.13037E-04
 0.62049999E+02  0.13807E-04
 0.62100002E+02  0.16424E-04
 0.62150002E+02  0.18877E-04
 0.62200001E+02  0.84671E-05
 0.62250000E+02  0.16687E-04
 0.62299999E+02  0.25228E-04
 0.62350002E+02  0.16105E-04
 0.62400002E+02  0.71498E-05
 0.62450001E+02 -0.64982E-06
 0.62500000E+02 -0.29470E-05
 0.62549999E+02 -0.52085E-05
 0.62600002E+02 -0.81883E-07
 0.62650002E+02  0.56390E-05
 0.62700001E+02 -0.51534E-05
 0.62750000E+02 -0.71683E-05
 0.62799999E+02 -0.65486E-06
 0.62850002E+02  0.39928E-05
 0.62900002E+02  0.43313E-05
 0.62950001E+02  0.13384E-05
 0.63000000E+02  0.92253E-05
 0.63049999E+02  0.52066E-05
 0.63100002E+02 -0.78063E-05
 0.63150002E+02 -0.25944E-04
 0.63200001E+02 -0.51384E-04
 0.63250000E+02 -0.42478E-04
 0.63299999E+02 -0.16068E-04
 0.63350002E+02  0.66871E-05
 0.63400002E+02  0.28079E-04
 0.63450001E+02  0.31876E-04
 0.63500000E+02  0.26283E-04
 0.63549999E+02  0.18411E-04
 0.63600002E+02  0.12705E-04
 0.63650002E+02  0.36501E-05
 0.63700001E+02 -0.14446E-04
 0.63750000E+02 -0.23401E-04
 0.63799999E+02 -0.11827E-04
 0.63850002E+02  0.57602E-05
 0.63900002E+02  0.80861E-05
 0.63950001E+02  0.10169E-05
 0.64000000E+02 -0.32973E-05
 0.64050003E+02  0.31462E-05
 0.64099998E+02  0.10295E-04
 0.64150002E+02  0.66958E-05
 0.64200005E+02 -0.97455E-06
 0.64250000E+02 -0.18568E-04
 0.64300003E+02 -0.22854E-04
 0.64349998E+02  0.26968E-05
 0.64400002E+02  0.21194E-04
 0.64450005E+02  0.19765E-04
 0.64500000E+02  0.16153E-04
 0.64550003E+02  0.12163E-04
 0.64599998E+02  0.85552E-05
 0.64650002E+02  0.45897E-05
 0.64700005E+02 -0.63124E-05
 0.64750000E+02 -0.16834E-04
 0.64800003E+02 -0.20916E-04
 0.64849998E+02 -0.20075E-04
 0.64900002E+02 -0.17091E-04
 0.64950005E+02 -0.12533E-04
 0.65000000E+02  0.60030E-06
 0.65050003E+02  0.92593E-05
 0.65099998E+02  0.94848E-05
 0.65150002E+02  0.15285E-04
 0.65200005E+02  0.66272E-05
 0.65250000E+02 -0.79993E-05
 0.65300003E+02 -0.70663E-05
 0.65349998E+02 -0.88743E-05
 0.65400002E+02 -0.10635E-04
 0.65450005E+02 -0.95999E-06
 0.65500000E+02  0.11657E-04
 0.65550003E+02  0.22476E-04
 0.65599998E+02  0.23977E-04
 0.65650002E+02  0.14368E-04
 0.65700005E+02  0.62143E-05
 0.65750000E+02  0.12824E-05
 0.65800003E+02  0.54381E-05
 0.65849998E+02  0.11863E-04
 0.65900002E+02 -0.22049E-05
 0.65950005E+02 -0.27066E-04
 0.66000000E+02 -0.47448E-04
 0.66050003E+02 -0.52172E-04
 0.66099998E+02 -0.32545E-04
 0.66150002E+02 -0.28608E-05
 0.66200005E+02  0.25852E-04
 0.66250000E+02  0.49651E-04
 0.66300003E+02  0.53490E-04
 0.66349998E+02  0.27310E-04
 0.66400002E+02 -0.55763E-05
 0.66450005E+02 -0.33823E-04
 0.66500000E+02 -0.52243E-04
 0.66550003E+02 -0.36296E-04
 0.66599998E+02 -0.42768E-05
 0.66650002E+02  0.19758E-04
 0.66700005E+02  0.37996E-04
 0.66750000E+02  0.50877E-04
 0.66800003E+02  0.55647E-04
 0.66849998E+02  0.42649E-04
 0.66900002E+02  0.99532E-05
 0.66950005E+02 -0.18497E-04
 0.67000000E+02 -0.26696E-04
 0.67050003E+02 -0.34429E-04
 0.67099998E+02 -0.46703E-04
 0.67150002E+02 -0.47551E-04
 0.67200005E+02 -0.35025E-04
 0.67250000E+02 -0.16332E-04
 0.67300003E+02 -0.28181E-05
 0.67349998E+02  0.23486E-05
 0.67400002E+02  0.69381E-05
 0.67450005E+02  0.15716E-04
 0.67500000E+02  0.20999E-04
 0.67550003E+02  0.18034E-04
 0.67599998E+02  0.17240E-04
 0.67650002E+02  0.16328E-04
 0.67700005E+02  0.98937E-05
 0.67750000E+02  0.35019E-05
 0.67800003E+02  0.10543E-04
 0.67849998E+02  0.27549E-04
 0.67900002E+02  0.19534E-04
 0.67950005E+02 -0.70931E-05
 0.68000000E+02 -0.20176E-04
 0.68050003E+02 -0.23380E-04
 0.68099998E+02 -0.24180E-04
 0.68150002E+02 -0.20506E-04
 0.68200005E+02 -0.10112E-04
 0.68250000E+02 -0.26061E-05
 0.68300003E+02 -0.75628E-05
 0.68349998E+02 -0.15259E-04
 0.68400002E+02 -0.15526E-04
 0.68450005E+02 -0.87010E-05
 0.68500000E+02  0.27252E-05
 0.68550003E+02  0.17274E-04
 0.68599998E+02  0.24084E-04
 0.68650002E+02  0.31298E-04
 0.68700005E+02  0.39896E-04
 0.68750000E+02  0.32908E-04
 0.68800003E+02  0.18679E-04
 0.68849998E+02  0.95837E-06
 0.68900002E+02 -0.15324E-04
 0.68950005E+02 -0.24944E-04
 0.69000000E+02 -0.24042E-04
 0.69050003E+02 -0.15967E-04
 0.69099998E+02 -0.13607E-04
 0.69150002E+02 -0.10797E-04
 0.69200005E+02 -0.10844E-04
 0.69250000E+02 -0.89629E-05
 0.69300003E+02  0.10462E-05
 0.69349998E+02  0.16507E-05
 0.69400002E+02 -0.25351E-05
 0.69450005E+02 -0.46301E-05
 0.69500000E+02 -0.44070E-05
 0.69550003E+02  0.94719E-05
 0.69599998E+02  0.23644E-04
 0.69650002E+02  0.20840E-04
 0.69700005E+02  0.99924E-05
 0.69750000E+02  0.11605E-05
 0.69800003E+02 -0.13100E-05
 0.69849998E+02 -0.94962E-06
 0.69900002E+02 -0.56138E-05
 0.69950005E+02 -0.92440E-05
 0.70000000E+02 -0.56896E-05
 0.70050003E+02 -0.31446E-05
 0.70099998E+02 -0.57034E-05
 0.70150002E+02 -0.24322E-05
 0.70200005E+02  0.38383E-05
 0.70250000E+02 -0.11282E-05
 0.70300003E+02 -0.95514E-05
 0.70349998E+02 -0.10527E-04
 0.70400002E+02 -0.35835E-05
 0.70450005E+02  0.82949E-06
 0.70500000E+02  0.53508E-05
 0.70550003E+02  0.16882E-04
 0.70599998E+02  0.23239E-04
 0.70650002E+02  0.28146E-04
 0.70700005E+02  0.21356E-04
 0.70750000E+02 -0.79947E-06
 0.70800003E+02 -0.24146E-04
 0.70849998E+02 -0.39285E-04
 0.70900002E+02 -0.30361E-04
 0.70950005E+02 -0.11240E-04
 0.71000000E+02  0.79708E-05
 0.71050003E+02  0.20883E-04
 0.71099998E+02  0.14393E-04
 0.71150002E+02  0.79496E-06
 0.71200005E+02 -0.19311E-05
 0.71250000E+02  0.64509E-05
 0.71300003E+02  0.59119E-05
 0.71349998E+02 -0.31069E-05
 0.71400002E+02 -0.27314E-05
 0.71450005E+02  0.56719E-05
 0.71500000E+02  0.10330E-04
 0.71550003E+02  0.40283E-05
 0.71599998E+02 -0.75912E-05
 0.71650002E+02 -0.18117E-04
 0.71700005E+02 -0.20595E-04
 0.71750000E+02 -0.13901E-04
 0.71800003E+02 -0.95441E-05
 0.71849998E+02 -0.64834E-05
 0.71900002E+02 -0.19776E-05
 0.71950005E+02  0.59810E-05
 0.72000000E+02  0.15929E-04
 0.72050003E+02  0.19841E-04
 0.72099998E+02  0.20247E-04
 0.72150002E+02  0.13284E-04
 0.72200005E+02 -0.22002E-05
 0.72250000E+02 -0.11780E-04
 0.72300003E+02 -0.13582E-04
 0.72349998E+02 -0.15128E-04
 0.72400002E+02 -0.11798E-04
 0.72450005E+02  0.12829E-05
 0.72500000E+02  0.19279E-04
 0.72550003E+02  0.30712E-04
 0.72599998E+02  0.28120E-04
 0.72650002E+02  0.12607E-04
 0.72700005E+02 -0.88835E-05
 0.72750000E+02 -0.25993E-04
 0.72800003E+02 -0.34563E-04
 0.72849998E+02 -0.30551E-04
 0.72900002E+02 -0.17616E-04
 0.72950005E+02 -0.21064E-05
 0.73000000E+02  0.12658E-04
 0.73050003E+02  0.15079E-04
 0.73099998E+02  0.15798E-04
 0.73150002E+02  0.26343E-04
 0.73200005E+02  0.30872E-04
 0.73250000E+02  0.23701E-04
 0.73300003E+02  0.81010E-05
 0.73349998E+02 -0.58631E-05
 0.73400002E+02 -0.17164E-04
 0.73450005E+02 -0.30920E-04
 0.73500000E+02 -0.36546E-04
 0.73550003E+02 -0.39766E-04
 0.73599998E+02 -0.33465E-04
 0.73650002E+02 -0.95693E-05
 0.73700005E+02  0.15367E-04
 0.73750000E+02  0.30549E-04
 0.73800003E+02  0.28333E-04
 0.73849998E+02  0.19813E-04
 0.73900002E+02  0.14230E-04
 0.73950005E+02  0.13065E-04
 0.74000000E+02  0.14819E-04
 0.74050003E+02  0.10236E-04
 0.74099998E+02  0.11408E-05
 0.74150002E+02 -0.91747E-05
 0.74200005E+02 -0.12122E-04
 0.74250000E+02 -0.86530E-05
 0.74300003E+02 -0.58393E-05
 0.74349998E+02 -0.21634E-05
 0.74400002E+02  0.27781E-05
 0.74450005E+02  0.65817E-05
 0.74500000E+02  0.99500E-06
 0.74550003E+02 -0.82415E-05
 0.74599998E+02 -0.10166E-04
 0.74650002E+02 -0.95236E-05
 0.74700005E+02 -0.15363E-04
 0.74750000E+02 -0.22399E-04
 0.74800003E+02 -0.19095E-04
 0.74849998E+02 -0.60444E-05
 0.74900002E+02  0.82289E-05
 0.74950005E+02  0.16137E-04
 0.75000000E+02  0.18136E-04
 0.75050003E+02  0.19376E-04
 0.75099998E+02  0.21034E-04
 0.75150002E+02  0.15783E-04
 0.75200005E+02  0.53460E-05
 0.75250000E+02 -0.55673E-06
 0.75300003E+02  0.42117E-06
 0.75349998E+02  0.37841E-05
 0.75400002E+02 -0.10792E-05
 0.75450005E+02 -0.78932E-05
 0.75500000E+02 -0.12298E-04
 0.75550003E+02 -0.17229E-04
 0.75599998E+02 -0.14490E-04
 0.75650002E+02 -0.66688E-05
 0.75700005E+02  0.20156E-05
 0.75750000E+02  0.81688E-05
 0.75800003E+02  0.10487E-04
 0.75849998E+02  0.92732E-05
 0.75900002E+02  0.30563E-05
 0.75950005E+02 -0.58260E-05
 0.76000000E+02 -0.12086E-04
 0.76050003E+02 -0.90505E-05
 0.76099998E+02 -0.66270E-05
 0.76150002E+02 -0.42400E-05
 0.76200005E+02  0.52625E-05
 0.76250000E+02  0.10198E-04
 0.76300003E+02  0.12322E-04
 0.76349998E+02  0.16010E-04
 0.76400002E+02  0.16609E-04
 0.76450005E+02  0.13003E-04
 0.76500000E+02  0.18082E-05
 0.76550003E+02 -0.12813E-04
 0.76599998E+02 -0.21719E-04
 0.76650002E+02 -0.24059E-04
 0.76700005E+02 -0.21487E-04
 0.76750000E+02 -0.14947E-04
 0.76800003E+02 -0.47168E-05
 0.76849998E+02  0.44991E-05
 0.76900002E+02  0.92989E-05
 0.76950005E+02  0.11994E-04
 0.77000000E+02  0.13310E-04
 0.77050003E+02  0.14479E-04
 0.77099998E+02  0.15340E-04
 0.77150002E+02  0.14687E-04
 0.77200005E+02  0.98213E-05
 0.77250000E+02  0.34923E-05
 0.77300003E+02 -0.43581E-05
 0.77349998E+02 -0.13486E-04
 0.77400002E+02 -0.16288E-04
 0.77450005E+02 -0.16753E-04
 0.77500000E+02 -0.15134E-04
 0.77550003E+02 -0.93636E-05
 0.77599998E+02 -0.12508E-05
 0.77650002E+02  0.48999E-05
 0.77700005E+02  0.20441E-05
 0.77750000E+02 -0.24362E-05
 0.77800003E+02  0.30354E-06
 0.77849998E+02  0.72488E-05
 0.77900002E+02  0.99792E-05
 0.77950005E+02  0.58099E-05
 0.78000000E+02  0.41265E-05
 0.78050003E+02  0.56013E-05
 0.78099998E+02  0.18464E-05
 0.78150002E+02 -0.34712E-06
 0.78200005E+02  0.55536E-06
 0.78250000E+02 -0.66077E-06
 0.78300003E+02  0.24235E-05
 0.78349998E+02  0.72693E-05
 0.78400002E+02  0.86883E-05
 0.78450005E+02  0.54002E-05
 0.78500000E+02 -0.13538E-05
 0.78550003E+02 -0.65973E-05
 0.78599998E+02 -0.12446E-04
 0.78650002E+02 -0.16747E-04
 0.78700005E+02 -0.19391E-04
 0.78750000E+02 -0.19343E-04
 0.78800003E+02 -0.11493E-04
 0.78849998E+02 -0.13724E-05
 0.78900002E+02  0.84232E-05
 0.78950005E+02  0.19663E-04
 0.79000000E+02  0.27345E-04
 0.79050003E+02  0.23961E-04
 0.79099998E+02  0.13766E-04
 0.79150002E+02  0.35882E-06
 0.79200005E+02 -0.15248E-04
 0.79250000E+02 -0.21255E-04
 0.79300003E+02 -0.16483E-04
 0.79349998E+02 -0.12417E-04
 0.79400002E+02 -0.75818E-05
 0.79450005E+02  0.21820E-05
 0.79500000E+02  0.78944E-05
 0.79550003E+02  0.92599E-05
 0.79599998E+02  0.10287E-04
 0.79650002E+02  0.10426E-04
 0.79700005E+02  0.93927E-05
 0.79750000E+02  0.47278E-05
 0.79800003E+02  0.31167E-05
 0.79849998E+02  0.62121E-05
 0.79900002E+02  0.60599E-05
 0.79950005E+02 -0.68228E-06
 0.80000000E+02 -0.10457E-04
 0.80050003E+02 -0.13919E-04
 0.80099998E+02 -0.16240E-04
 0.80150002E+02 -0.16193E-04
 0.80200005E+02 -0.89013E-05
 0.80250000E+02 -0.62842E-05
 0.80300003E+02 -0.24757E-05
 0.80349998E+02  0.43525E-05
 0.80400002E+02  0.83450E-05
 0.80450005E+02  0.18159E-04
 0.80500000E+02  0.28432E-04
 0.80550003E+02  0.25727E-04
 0.80599998E+02  0.11777E-04
 0.80650002E+02 -0.38103E-05
 0.80700005E+02 -0.16103E-04
 0.80750000E+02 -0.21109E-04
 0.80800003E+02 -0.19059E-04
 0.80849998E+02 -0.13503E-04
 0.80900002E+02 -0.51903E-05
 0.80950005E+02  0.31833E-05
 0.81000000E+02  0.12677E-04
 0.81050003E+02  0.19868E-04
 0.81099998E+02  0.18982E-04
 0.81150002E+02  0.99482E-05
 0.81200005E+02 -0.72359E-05
 0.81250000E+02 -0.24236E-04
 0.81300003E+02 -0.28827E-04
 0.81349998E+02 -0.21913E-04
 0.81400002E+02 -0.11082E-04
 0.81450005E+02  0.99506E-06
 0.81500000E+02  0.95021E-05
 0.81550003E+02  0.12930E-04
 0.81599998E+02  0.13807E-04
 0.81650002E+02  0.12192E-04
 0.81700005E+02  0.11032E-04
 0.81750000E+02  0.96897E-05
 0.81800003E+02  0.81068E-05
 0.81849998E+02  0.90520E-05
 0.81900002E+02  0.62648E-05
 0.81950005E+02  0.30128E-06
 0.82000000E+02 -0.10396E-05
 0.82050003E+02 -0.23869E-05
 0.82099998E+02 -0.10254E-04
 0.82150002E+02 -0.17251E-04
 0.82200005E+02 -0.15971E-04
 0.82250000E+02 -0.12179E-04
 0.82300003E+02 -0.95611E-05
 0.82349998E+02 -0.69335E-05
 0.82400002E+02 -0.40350E-05
 0.82450005E+02 -0.12995E-05
 0.82500000E+02  0.31888E-05
 0.82550003E+02  0.89660E-05
 0.82599998E+02  0.11420E-04
 0.82650002E+02  0.95134E-05
 0.82700005E+02  0.36350E-05
 0.82750000E+02 -0.43190E-05
 0.82800003E+02 -0.85194E-05
 0.82849998E+02 -0.73303E-05
 0.82900002E+02 -0.89017E-06
 0.82950005E+02  0.10704E-04
 0.83000000E+02  0.14583E-04
 0.83050003E+02  0.11358E-04
 0.83099998E+02  0.81292E-05
 0.83150002E+02 -0.43866E-06
 0.83200005E+02 -0.75528E-05
 0.83250000E+02 -0.95356E-05
 0.83300003E+02 -0.69992E-05
 0.83349998E+02  0.11949E-05
 0.83400002E+02  0.75932E-05
 0.83450005E+02  0.11456E-04
 0.83500000E+02  0.10237E-04
 0.83550003E+02  0.40684E-05
 0.83599998E+02  0.10931E-05
 0.83650002E+02 -0.42484E-05
 0.83700005E+02 -0.12139E-04
 0.83750000E+02 -0.14508E-04
 0.83800003E+02 -0.92471E-05
 0.83849998E+02 -0.33198E-05
 0.83900002E+02 -0.34448E-05
 0.83950005E+02 -0.34472E-05
 0.84000000E+02 -0.58748E-06
 0.84050003E+02  0.38930E-05
 0.84099998E+02  0.44375E-05
 0.84150002E+02 -0.28289E-06
 0.84200005E+02 -0.58158E-06
 0.84250000E+02  0.23388E-05
 0.84300003E+02  0.76987E-06
 0.84349998E+02 -0.36666E-05
 0.84400002E+02 -0.31299E-05
 0.84450005E+02  0.15066E-05
 0.84500000E+02  0.40087E-05
 0.84550003E+02  0.61041E-05
 0.84599998E+02  0.57215E-05
 0.84650002E+02  0.22628E-05
 0.84700005E+02 -0.16135E-06
 0.84750000E+02 -0.48392E-05
 0.84800003E+02 -0.69682E-05
 0.84849998E+02 -0.30294E-05
 0.84900002E+02  0.12094E-05
 0.84950005E+02  0.72723E-05
 0.85000000E+02  0.13408E-04
 0.85050003E+02  0.11311E-04
 0.85099998E+02  0.21041E-05
 0.85150002E+02 -0.67833E-05
 0.85200005E+02 -0.12200E-04
 0.85250000E+02 -0.12960E-04
 0.85300003E+02 -0.11293E-04
 0.85349998E+02 -0.86104E-05
 0.85400002E+02 -0.31514E-05
 0.85450005E+02  0.53526E-05
 0.85500000E+02  0.12964E-04
 0.85550003E+02  0.14424E-04
 0.85599998E+02  0.14414E-04
 0.85650002E+02  0.10433E-04
 0.85700005E+02  0.16870E-06
 0.85750000E+02 -0.51510E-05
 0.85800003E+02 -0.61187E-05
 0.85849998E+02 -0.67389E-05
 0.85900002E+02 -0.75595E-05
 0.85950005E+02 -0.79919E-05
 0.86000000E+02 -0.40433E-05
 0.86050003E+02  0.34560E-05
 0.86099998E+02  0.94917E-05
 0.86150002E+02  0.77186E-05
 0.86200005E+02  0.91154E-06
 0.86250000E+02 -0.32308E-05
 0.86300003E+02 -0.74006E-05
 0.86349998E+02 -0.12339E-04
 0.86400002E+02 -0.10726E-04
 0.86450005E+02 -0.23524E-05
 0.86500000E+02  0.57109E-05
 0.86550003E+02  0.10083E-04
 0.86599998E+02  0.70490E-05
 0.86650002E+02 -0.36705E-06
 0.86700005E+02 -0.33251E-05
 0.86750000E+02 -0.51808E-05
 0.86800003E+02 -0.38590E-05
 0.86849998E+02  0.30580E-05
 0.86900002E+02  0.96053E-05
 0.86950005E+02  0.12361E-04
 0.87000000E+02  0.83382E-05
 0.87050003E+02  0.13963E-05
 0.87099998E+02 -0.35847E-05
 0.87150002E+02 -0.57047E-05
 0.87200005E+02 -0.88732E-05
 0.87250000E+02 -0.11975E-04
 0.87300003E+02 -0.84453E-05
 0.87349998E+02 -0.30566E-05
 0.87400002E+02  0.46205E-07
 0.87450005E+02  0.33861E-05
 0.87500000E+02  0.52428E-05
 0.87550003E+02  0.42558E-05
 0.87599998E+02  0.26423E-05
 0.87650002E+02  0.75736E-06
 0.87700005E+02 -0.11719E-05
 0.87750000E+02 -0.51965E-06
 0.87800003E+02  0.36505E-05
 0.87849998E+02  0.62041E-05
 0.87900002E+02  0.54361E-05
 0.87950005E+02  0.55283E-05
 0.88000000E+02  0.43618E-05
 0.88050003E+02  0.82836E-06
 0.88099998E+02 -0.20854E-05
 0.88150002E+02 -0.33219E-05
 0.88200005E+02 -0.31702E-05
 0.88250000E+02 -0.58891E-05
 0.88300003E+02 -0.95725E-05
 0.88349998E+02 -0.85087E-05
 0.88400002E+02 -0.32806E-05
 0.88450005E+02  0.32241E-05
 0.88500000E+02  0.82910E-05
 0.88550003E+02  0.93700E-05
 0.88599998E+02  0.39970E-05
 0.88650002E+02 -0.17972E-05
 0.88700005E+02 -0.47816E-05
 0.88750000E+02 -0.99292E-05
 0.88800003E+02 -0.11500E-04
 0.88849998E+02 -0.58739E-05
 0.88900002E+02  0.48017E-06
 0.88950005E+02  0.55946E-05
 0.89000000E+02  0.85473E-05
 0.89050003E+02  0.74562E-05
 0.89099998E+02  0.38947E-05
 0.89150002E+02  0.85115E-06
 0.89200005E+02  0.35796E-06
 0.89250000E+02  0.16068E-05
 0.89300003E+02 -0.49088E-06
 0.89349998E+02 -0.32207E-05
 0.89400002E+02 -0.28090E-06
 0.89450005E+02  0.28648E-05
 0.89500000E+02  0.60579E-05
 0.89550003E+02  0.10348E-04
 0.89599998E+02  0.81862E-05
 0.89650002E+02  0.11196E-06
 0.89700005E+02 -0.68830E-05
 0.89750000E+02 -0.10890E-04
 0.89800003E+02 -0.13216E-04
 0.89849998E+02 -0.11847E-04
 0.89900002E+02 -0.56595E-05
 0.89950005E+02  0.27967E-05
 0.90000000E+02  0.10553E-04
 0.90050003E+02  0.12604E-04
 0.90099998E+02  0.67965E-05
 0.90150002E+02 -0.20954E-05
 0.90200005E+02 -0.88021E-05
 0.90250000E+02 -0.12536E-04
 0.90300003E+02 -0.12408E-04
 0.90349998E+02 -0.56201E-05
 0.90400002E+02  0.34078E-05
 0.90450005E+02  0.95753E-05
 0.90500000E+02  0.12602E-04
 0.90550003E+02  0.12340E-04
 0.90599998E+02  0.11068E-04
 0.90650002E+02  0.87898E-05
 0.90700005E+02  0.38625E-05
 0.90750000E+02 -0.23845E-05
 0.90800003E+02 -0.10506E-04
 0.90849998E+02 -0.15105E-04
 0.90900002E+02 -0.11423E-04
 0.90950005E+02 -0.61266E-05
 0.91000000E+02 -0.29182E-05
 0.91050003E+02 -0.16281E-05
 0.91099998E+02 -0.37916E-06
 0.91150002E+02  0.10718E-05
 0.91200005E+02  0.20469E-05
 0.91250000E+02  0.35103E-05
 0.91300003E+02  0.63726E-05
 0.91349998E+02  0.89484E-05
 0.91400002E+02  0.75343E-05
 0.91450005E+02  0.42102E-05
 0.91500000E+02 -0.13341E-05
 0.91550003E+02 -0.48444E-05
 0.91599998E+02 -0.32769E-05
 0.91650002E+02 -0.31496E-05
 0.91700005E+02 -0.28502E-05
 0.91750000E+02  0.17603E-06
 0.91800003E+02  0.43356E-05
 0.91849998E+02  0.67412E-05
 0.91900002E+02  0.79102E-05
 0.91950005E+02  0.72990E-05
 0.92000000E+02  0.35703E-06
 0.92050003E+02 -0.73315E-05
 0.92099998E+02 -0.11241E-04
 0.92150002E+02 -0.12656E-04
 0.92200005E+02 -0.12463E-04
 0.92250000E+02 -0.10240E-04
 0.92300003E+02 -0.58605E-05
 0.92349998E+02 -0.30794E-05
 0.92400002E+02 -0.25816E-06
 0.92450005E+02  0.26853E-05
 0.92500000E+02  0.37501E-05
 0.92550003E+02  0.37909E-05
 0.92599998E+02  0.13513E-05
 0.92650002E+02  0.73400E-06
 0.92700005E+02  0.38729E-05
 0.92750000E+02  0.78594E-05
 0.92800003E+02  0.11536E-04
 0.92849998E+02  0.13738E-04
 0.92900002E+02  0.14891E-04
 0.92950005E+02  0.13083E-04
 0.93000000E+02  0.88858E-05
 0.93050003E+02  0.33670E-05
 0.93099998E+02 -0.30740E-05
 0.93150002E+02 -0.85459E-05
 0.93200005E+02 -0.13341E-04
 0.93250000E+02 -0.16591E-04
 0.93300003E+02 -0.18651E-04
 0.93349998E+02 -0.17236E-04
 0.93400002E+02 -0.12375E-04
 0.93450005E+02 -0.78668E-05
 0.93500000E+02 -0.18397E-05
 0.93550003E+02  0.42089E-05
 0.93599998E+02  0.84929E-05
 0.93650002E+02  0.12249E-04
 0.93700005E+02  0.13993E-04
 0.93750000E+02  0.13275E-04
 0.93800003E+02  0.10579E-04
 0.93849998E+02  0.71803E-05
 0.93900002E+02  0.36467E-05
 0.93950005E+02  0.82153E-06
 0.94000000E+02 -0.15014E-05
 0.94050003E+02 -0.48516E-05
 0.94099998E+02 -0.75562E-05
 0.94150002E+02 -0.85448E-05
 0.94200005E+02 -0.74185E-05
 0.94250000E+02 -0.42173E-05
 0.94300003E+02  0.57998E-06
 0.94349998E+02  0.43666E-05
 0.94400002E+02  0.51558E-05
 0.94450005E+02  0.35051E-05
 0.94500000E+02 -0.24274E-06
 0.94550003E+02 -0.29492E-05
 0.94599998E+02 -0.53098E-05
 0.94650002E+02 -0.84523E-05
 0.94700005E+02 -0.91384E-05
 0.94750000E+02 -0.84350E-05
 0.94800003E+02 -0.72633E-05
 0.94849998E+02 -0.47365E-05
 0.94900002E+02 -0.19103E-05
 0.94950005E+02  0.28142E-05
 0.95000000E+02  0.98804E-05
 0.95050003E+02  0.14989E-04
 0.95099998E+02  0.15602E-04
 0.95150002E+02  0.14784E-04
 0.95200005E+02  0.13608E-04
 0.95250000E+02  0.94231E-05
 0.95300003E+02  0.49113E-05
 0.95349998E+02  0.12540E-05
 0.95400002E+02 -0.39123E-05
 0.95450005E+02 -0.10364E-04
 0.95500000E+02 -0.14892E-04
 0.95550003E+02 -0.13769E-04
 0.95599998E+02 -0.97759E-05
 0.95650002E+02 -0.65216E-05
 0.95700005E+02 -0.43625E-05
 0.95750000E+02 -0.28984E-05
 0.95800003E+02 -0.20314E-05
 0.95849998E+02 -0.10480E-05
 0.95900002E+02  0.25267E-05
 0.95950005E+02  0.62225E-05
 0.96000000E+02  0.68444E-05
 0.96050003E+02  0.52959E-05
 0.96099998E+02  0.19907E-05
 0.96150002E+02 -0.25145E-05
 0.96200005E+02 -0.41750E-05
 0.96250000E+02 -0.23572E-05
 0.96300003E+02  0.39817E-06
 0.96349998E+02  0.39234E-05
 0.96400002E+02  0.40959E-05
 0.96450005E+02  0.25667E-05
 0.96500000E+02  0.31686E-05
 0.96550003E+02  0.35305E-05
 0.96599998E+02  0.21707E-05
 0.96650002E+02 -0.20584E-06
 0.96700005E+02 -0.70536E-06
 0.96750000E+02 -0.14452E-05
 0.96800003E+02 -0.23146E-05
 0.96849998E+02 -0.24966E-05
 0.96900002E+02 -0.40855E-05
 0.96950005E+02 -0.37990E-05
 0.97000000E+02 -0.15931E-05
 0.97050003E+02  0.58148E-06
 0.97099998E+02  0.20299E-05
 0.97150002E+02  0.13404E-05
 0.97200005E+02 -0.35977E-06
 0.97250000E+02  0.64310E-07
 0.97300003E+02  0.37272E-05
 0.97349998E+02  0.65662E-05
 0.97400002E+02  0.61145E-05
 0.97450005E+02  0.42066E-05
 0.97500000E+02  0.13645E-05
 0.97550003E+02 -0.18357E-05
 0.97599998E+02 -0.44130E-05
 0.97650002E+02 -0.68944E-05
 0.97700005E+02 -0.90129E-05
 0.97750000E+02 -0.75849E-05
 0.97800003E+02 -0.25082E-05
 0.97849998E+02  0.19895E-05
 0.97900002E+02  0.51984E-05
 0.97950005E+02  0.61573E-05
 0.98000000E+02  0.49333E-05
 0.98050003E+02  0.29682E-05
 0.98099998E+02 -0.18654E-05
 0.98150002E+02 -0.45870E-05
 0.98200005E+02 -0.24843E-05
 0.98250000E+02 -0.65939E-06
 0.98300003E+02  0.24008E-07
 0.98349998E+02 -0.92443E-06
 0.98400002E+02 -0.10786E-05
 0.98450005E+02  0.96773E-06
 0.98500000E+02  0.26579E-05
 0.98550003E+02  0.21321E-05
 0.98599998E+02  0.41751E-07
 0.98650002E+02 -0.73397E-06
 0.98700005E+02 -0.19884E-05
 0.98750000E+02 -0.51975E-05
 0.98800003E+02 -0.79569E-05
 0.98849998E+02 -0.86326E-05
 0.98900002E+02 -0.85654E-05
 0.98950005E+02 -0.72860E-05
 0.99000000E+02 -0.28982E-05
 0.99050003E+02  0.16808E-05
 0.99099998E+02  0.37622E-05
 0.99150002E+02  0.53219E-05
 0.99200005E+02  0.81256E-05
 0.99250000E+02  0.10391E-04
 0.99300003E+02  0.10052E-04
 0.99349998E+02  0.83651E-05
 0.99400002E+02  0.87919E-05
 0.99450005E+02  0.93618E-05
 0.99500000E+02  0.63891E-05
 0.99550003E+02  0.38491E-05
 0.99599998E+02  0.32238E-05
 0.99650002E+02  0.61327E-06
 0.99700005E+02 -0.33777E-05
 0.99750000E+02 -0.73829E-05
 0.99800003E+02 -0.10384E-04
 0.99849998E+02 -0.10233E-04
 0.99900002E+02 -0.76005E-05
 0.99950005E+02 -0.62244E-05
 0.10000000E+03 -0.63916E-05
