-0.19989014E-01  0.64343E-06
 0.30010987E-01  0.32740E-06
 0.80010988E-01  0.18741E-06
 0.13001099E+00  0.37442E-07
 0.18001099E+00 -0.76688E-07
 0.23001099E+00 -0.13165E-06
 0.28001100E+00 -0.12676E-06
 0.33001098E+00 -0.12171E-06
 0.38001099E+00 -0.14747E-06
 0.43001100E+00 -0.13784E-06
 0.48001099E+00 -0.13012E-06
 0.53001100E+00 -0.11536E-06
 0.58001101E+00 -0.39729E-07
 0.63001102E+00  0.46569E-08
 0.68001097E+00 -0.33042E-07
 0.73001099E+00  0.39159E-08
 0.78001100E+00  0.40018E-07
 0.83001101E+00  0.52647E-07
 0.88001102E+00  0.76223E-07
 0.93001097E+00  0.60111E-07
 0.98001099E+00  0.44949E-07
 0.10300111E+01  0.10637E-07
 0.10800110E+01 -0.48457E-07
 0.11300110E+01 -0.78333E-07
 0.11800110E+01 -0.52107E-07
 0.12300110E+01 -0.49853E-07
 0.12800111E+01 -0.45992E-07
 0.13300110E+01 -0.49038E-07
 0.13800110E+01 -0.50549E-07
 0.14300110E+01  0.53638E-09
 0.14800110E+01 -0.28085E-07
 0.15300111E+01 -0.47682E-07
 0.15800110E+01 -0.59916E-07
 0.16300110E+01 -0.88376E-07
 0.16800110E+01 -0.28016E-07
 0.17300110E+01 -0.33458E-07
 0.17800111E+01 -0.42206E-07
 0.18300110E+01 -0.62860E-07
 0.18800110E+01 -0.54212E-07
 0.19300110E+01 -0.64878E-08
 0.19800110E+01  0.30284E-08
 0.20300109E+01  0.65781E-07
 0.20800111E+01  0.19377E-07
 0.21300111E+01 -0.24057E-08
 0.21800110E+01  0.20686E-07
 0.22300110E+01  0.19849E-07
 0.22800109E+01  0.16129E-07
 0.23300111E+01 -0.22832E-07
 0.23800111E+01  0.29605E-08
 0.24300110E+01  0.62338E-08
 0.24800110E+01  0.14825E-07
 0.25300109E+01  0.53470E-07
 0.25800111E+01  0.14842E-07
 0.26300111E+01  0.17799E-07
 0.26800110E+01  0.71979E-07
 0.27300110E+01  0.53906E-07
 0.27800109E+01  0.71993E-07
 0.28300111E+01  0.73042E-07
 0.28800111E+01  0.48459E-07
 0.29300110E+01  0.69483E-07
 0.29800110E+01  0.45283E-07
 0.30300109E+01 -0.94726E-08
 0.30800111E+01  0.10838E-07
 0.31300111E+01 -0.11612E-08
 0.31800110E+01 -0.31966E-07
 0.32300110E+01  0.83735E-08
 0.32800109E+01 -0.31266E-07
 0.33300111E+01 -0.26525E-07
 0.33800111E+01 -0.55045E-07
 0.34300110E+01 -0.24099E-07
 0.34800110E+01  0.27243E-07
 0.35300109E+01 -0.31329E-07
 0.35800111E+01  0.16577E-07
 0.36300111E+01 -0.36117E-08
 0.36800110E+01 -0.11820E-07
 0.37300110E+01  0.13457E-08
 0.37800109E+01 -0.19877E-07
 0.38300111E+01 -0.29985E-07
 0.38800111E+01 -0.36919E-07
 0.39300110E+01 -0.53452E-08
 0.39800110E+01  0.99306E-08
 0.40300112E+01  0.38636E-07
 0.40800109E+01 -0.48573E-08
 0.41300111E+01 -0.20284E-07
 0.41800113E+01  0.20081E-07
 0.42300110E+01  0.27189E-08
 0.42800112E+01  0.14885E-07
 0.43300109E+01 -0.16648E-07
 0.43800111E+01 -0.46976E-07
 0.44300113E+01 -0.70324E-08
 0.44800110E+01  0.11840E-07
 0.45300112E+01 -0.97439E-08
 0.45800109E+01 -0.37425E-07
 0.46300111E+01 -0.79922E-08
 0.46800113E+01  0.58054E-08
 0.47300110E+01  0.33818E-08
 0.47800112E+01 -0.54367E-08
 0.48300109E+01 -0.31951E-07
 0.48800111E+01 -0.35900E-07
 0.49300113E+01 -0.16479E-07
 0.49800110E+01  0.10967E-07
 0.50300112E+01  0.11480E-07
 0.50800109E+01  0.15018E-07
 0.51300111E+01 -0.18881E-07
 0.51800113E+01 -0.39741E-07
 0.52300110E+01 -0.24818E-07
 0.52800112E+01 -0.94398E-08
 0.53300109E+01  0.34064E-08
 0.53800111E+01 -0.89697E-08
 0.54300113E+01 -0.12483E-08
 0.54800110E+01  0.20649E-07
 0.55300112E+01  0.24771E-07
 0.55800109E+01 -0.10809E-07
 0.56300111E+01  0.17458E-07
 0.56800113E+01  0.15115E-07
 0.57300110E+01  0.10491E-07
 0.57800112E+01  0.68024E-07
 0.58300109E+01  0.45109E-07
 0.58800111E+01  0.78278E-07
 0.59300113E+01  0.40502E-07
 0.59800110E+01  0.53925E-08
 0.60300112E+01  0.33931E-07
 0.60800109E+01  0.12958E-07
 0.61300111E+01  0.21349E-07
 0.61800113E+01 -0.48086E-07
 0.62300110E+01 -0.62057E-07
 0.62800112E+01 -0.31070E-07
 0.63300109E+01 -0.28725E-07
 0.63800111E+01 -0.13929E-08
 0.64300113E+01 -0.19349E-07
 0.64800110E+01 -0.83341E-08
 0.65300112E+01  0.37222E-07
 0.65800109E+01  0.39930E-07
 0.66300111E+01  0.41637E-07
 0.66800113E+01  0.35256E-07
 0.67300110E+01  0.15299E-07
 0.67800112E+01 -0.73105E-08
 0.68300109E+01 -0.38387E-07
 0.68800111E+01 -0.13916E-07
 0.69300113E+01 -0.59081E-07
 0.69800110E+01 -0.99193E-07
 0.70300112E+01 -0.11430E-07
 0.70800109E+01 -0.38133E-07
 0.71300111E+01 -0.68723E-07
 0.71800113E+01  0.25561E-07
 0.72300110E+01  0.62364E-07
 0.72800112E+01  0.51716E-07
 0.73300109E+01 -0.40816E-08
 0.73800111E+01 -0.10935E-07
 0.74300113E+01  0.19557E-07
 0.74800110E+01 -0.27615E-07
 0.75300112E+01  0.13320E-07
 0.75800109E+01  0.10535E-07
 0.76300111E+01 -0.37867E-07
 0.76800113E+01  0.16135E-07
 0.77300110E+01  0.56782E-07
 0.77800112E+01  0.99560E-08
 0.78300109E+01 -0.51070E-07
 0.78800111E+01 -0.15548E-07
 0.79300113E+01  0.31686E-07
 0.79800110E+01  0.31464E-07
 0.80300112E+01  0.55923E-08
 0.80800114E+01 -0.28931E-07
 0.81300116E+01 -0.27771E-07
 0.81800108E+01 -0.11447E-07
 0.82300110E+01  0.89536E-09
 0.82800112E+01 -0.42920E-08
 0.83300114E+01 -0.62577E-07
 0.83800116E+01 -0.17062E-07
 0.84300108E+01  0.43694E-07
 0.84800110E+01  0.41010E-07
 0.85300112E+01  0.44258E-07
 0.85800114E+01  0.36914E-08
 0.86300116E+01 -0.48235E-08
 0.86800108E+01  0.88552E-08
 0.87300110E+01  0.11831E-07
 0.87800112E+01  0.23011E-08
 0.88300114E+01  0.23656E-07
 0.88800116E+01  0.65281E-08
 0.89300108E+01  0.12182E-07
 0.89800110E+01  0.14194E-07
 0.90300112E+01 -0.50442E-08
 0.90800114E+01  0.38008E-07
 0.91300116E+01  0.28876E-07
 0.91800108E+01 -0.11720E-07
 0.92300110E+01 -0.48892E-07
 0.92800112E+01 -0.22401E-07
 0.93300114E+01 -0.48744E-07
 0.93800116E+01 -0.30893E-07
 0.94300108E+01 -0.12831E-07
 0.94800110E+01 -0.54248E-07
 0.95300112E+01 -0.87542E-08
 0.95800114E+01 -0.49358E-08
 0.96300116E+01  0.43042E-07
 0.96800108E+01  0.35076E-07
 0.97300110E+01 -0.11310E-07
 0.97800112E+01 -0.61419E-08
 0.98300114E+01 -0.27443E-07
 0.98800116E+01 -0.61632E-08
 0.99300108E+01  0.22918E-07
 0.99800110E+01  0.17162E-07
 0.10030011E+02  0.20991E-07
 0.10080011E+02  0.49412E-07
 0.10130012E+02 -0.12610E-07
 0.10180011E+02  0.13146E-07
 0.10230011E+02  0.27973E-07
 0.10280011E+02 -0.39774E-07
 0.10330011E+02  0.11508E-07
 0.10380012E+02 -0.99234E-08
 0.10430011E+02  0.70055E-08
 0.10480011E+02 -0.97158E-08
 0.10530011E+02 -0.52714E-07
 0.10580011E+02 -0.96295E-08
 0.10630012E+02 -0.41294E-07
 0.10680011E+02 -0.12834E-07
 0.10730011E+02  0.32829E-07
 0.10780011E+02  0.36144E-09
 0.10830011E+02 -0.26922E-08
 0.10880012E+02  0.28938E-07
 0.10930011E+02  0.41179E-07
 0.10980011E+02  0.21248E-07
 0.11030011E+02  0.10254E-07
 0.11080011E+02  0.21450E-07
 0.11130012E+02 -0.28396E-07
 0.11180011E+02  0.29406E-08
 0.11230011E+02  0.42508E-07
 0.11280011E+02 -0.92681E-08
 0.11330011E+02 -0.99467E-08
 0.11380012E+02 -0.32149E-07
 0.11430011E+02  0.28025E-07
 0.11480011E+02  0.22730E-07
 0.11530011E+02 -0.18408E-07
 0.11580011E+02  0.20890E-07
 0.11630012E+02 -0.83450E-08
 0.11680011E+02  0.52081E-07
 0.11730011E+02  0.17891E-08
 0.11780011E+02 -0.53493E-07
 0.11830011E+02 -0.13456E-07
 0.11880012E+02 -0.63614E-07
 0.11930011E+02 -0.58101E-08
 0.11980011E+02 -0.26435E-07
 0.12030011E+02 -0.42624E-07
 0.12080011E+02  0.44179E-07
 0.12130012E+02  0.21609E-07
 0.12180011E+02  0.19383E-07
 0.12230011E+02  0.59096E-08
 0.12280011E+02 -0.16873E-07
 0.12330011E+02  0.48323E-08
 0.12380012E+02 -0.99224E-08
 0.12430011E+02 -0.13821E-07
 0.12480011E+02 -0.33963E-07
 0.12530011E+02 -0.64494E-07
 0.12580011E+02 -0.25498E-07
 0.12630012E+02 -0.30541E-07
 0.12680011E+02 -0.46578E-07
 0.12730011E+02 -0.30873E-07
 0.12780011E+02  0.61531E-08
 0.12830011E+02  0.43072E-07
 0.12880012E+02 -0.11083E-07
 0.12930011E+02 -0.24902E-07
 0.12980011E+02  0.23221E-07
 0.13030011E+02  0.49677E-07
 0.13080011E+02  0.50894E-07
 0.13130012E+02  0.13578E-07
 0.13180011E+02  0.13981E-07
 0.13230011E+02  0.32822E-07
 0.13280011E+02  0.32734E-07
 0.13330011E+02  0.47211E-07
 0.13380012E+02  0.23145E-07
 0.13430011E+02  0.43037E-07
 0.13480011E+02  0.70454E-07
 0.13530011E+02  0.57905E-07
 0.13580011E+02  0.34081E-07
 0.13630012E+02  0.49392E-08
 0.13680011E+02  0.23992E-07
 0.13730011E+02  0.47263E-08
 0.13780011E+02 -0.36297E-07
 0.13830011E+02 -0.71770E-07
 0.13880012E+02 -0.40125E-07
 0.13930011E+02  0.11998E-07
 0.13980011E+02  0.37789E-07
 0.14030011E+02  0.46845E-07
 0.14080011E+02  0.28036E-08
 0.14130012E+02  0.22961E-07
 0.14180011E+02  0.24827E-07
 0.14230011E+02 -0.29861E-08
 0.14280011E+02 -0.39655E-07
 0.14330011E+02 -0.83188E-07
 0.14380012E+02 -0.33549E-07
 0.14430011E+02 -0.56917E-08
 0.14480011E+02 -0.11206E-07
 0.14530011E+02 -0.52618E-07
 0.14580011E+02 -0.11246E-06
 0.14630012E+02 -0.34370E-07
 0.14680011E+02 -0.28238E-08
 0.14730011E+02 -0.16373E-07
 0.14780011E+02  0.17253E-07
 0.14830011E+02 -0.10242E-07
 0.14880012E+02 -0.99058E-09
 0.14930011E+02  0.69293E-08
 0.14980011E+02 -0.73002E-08
 0.15030011E+02 -0.56691E-08
 0.15080011E+02 -0.22602E-07
 0.15130012E+02  0.17264E-08
 0.15180011E+02 -0.60796E-09
 0.15230011E+02 -0.53546E-07
 0.15280011E+02 -0.31389E-07
 0.15330011E+02 -0.31184E-07
 0.15380012E+02 -0.49207E-07
 0.15430011E+02  0.16685E-08
 0.15480011E+02 -0.13512E-07
 0.15530011E+02  0.83501E-08
 0.15580011E+02  0.82407E-07
 0.15630012E+02  0.56856E-07
 0.15680011E+02  0.19374E-07
 0.15730011E+02  0.77628E-08
 0.15780011E+02 -0.11432E-07
 0.15830011E+02  0.10140E-08
 0.15880012E+02  0.34977E-07
 0.15930011E+02  0.19623E-07
 0.15980011E+02  0.17735E-07
 0.16030012E+02  0.38301E-07
 0.16080011E+02  0.40150E-07
 0.16130011E+02  0.58770E-07
 0.16180012E+02  0.80612E-07
 0.16230011E+02  0.71934E-07
 0.16280012E+02  0.11008E-07
 0.16330011E+02 -0.34355E-07
 0.16380011E+02 -0.16510E-07
 0.16430012E+02  0.35038E-07
 0.16480011E+02  0.16654E-07
 0.16530012E+02 -0.33660E-07
 0.16580011E+02 -0.16504E-07
 0.16630011E+02 -0.89425E-08
 0.16680012E+02  0.80675E-08
 0.16730011E+02  0.29135E-07
 0.16780012E+02 -0.30571E-07
 0.16830011E+02 -0.54648E-07
 0.16880011E+02 -0.30856E-08
 0.16930012E+02 -0.27297E-07
 0.16980011E+02 -0.33639E-07
 0.17030012E+02 -0.67172E-08
 0.17080011E+02 -0.30865E-07
 0.17130011E+02 -0.26710E-07
 0.17180012E+02 -0.23807E-07
 0.17230011E+02  0.60305E-08
 0.17280012E+02  0.21822E-07
 0.17330011E+02  0.79479E-08
 0.17380011E+02  0.11125E-07
 0.17430012E+02 -0.21740E-07
 0.17480011E+02 -0.29947E-07
 0.17530012E+02 -0.22634E-07
 0.17580011E+02  0.67586E-08
 0.17630011E+02  0.21570E-07
 0.17680012E+02 -0.75317E-08
 0.17730011E+02 -0.43072E-07
 0.17780012E+02 -0.52871E-07
 0.17830011E+02  0.73874E-08
 0.17880011E+02  0.16518E-07
 0.17930012E+02  0.14690E-07
 0.17980011E+02  0.25687E-07
 0.18030012E+02  0.10017E-07
 0.18080011E+02  0.51287E-07
 0.18130011E+02  0.46620E-07
 0.18180012E+02 -0.11608E-07
 0.18230011E+02 -0.15283E-07
 0.18280012E+02 -0.19591E-07
 0.18330011E+02 -0.16966E-07
 0.18380011E+02  0.10554E-07
 0.18430012E+02 -0.10784E-07
 0.18480011E+02 -0.24239E-07
 0.18530012E+02 -0.54937E-08
 0.18580011E+02  0.17776E-07
 0.18630011E+02  0.16334E-07
 0.18680012E+02 -0.17051E-07
 0.18730011E+02  0.54971E-08
 0.18780012E+02  0.35726E-07
 0.18830011E+02  0.15057E-07
 0.18880011E+02  0.47234E-08
 0.18930012E+02 -0.22837E-08
 0.18980011E+02 -0.94548E-08
 0.19030012E+02  0.28978E-07
 0.19080011E+02  0.83907E-08
 0.19130011E+02 -0.14704E-07
 0.19180012E+02  0.56737E-08
 0.19230011E+02 -0.45969E-08
 0.19280012E+02  0.17155E-07
 0.19330011E+02 -0.35429E-07
 0.19380011E+02 -0.51051E-07
 0.19430012E+02  0.62794E-08
 0.19480011E+02 -0.13171E-08
 0.19530012E+02 -0.19515E-08
 0.19580011E+02  0.15279E-07
 0.19630011E+02  0.92112E-08
 0.19680012E+02  0.71222E-08
 0.19730011E+02  0.29366E-07
 0.19780012E+02 -0.68175E-09
 0.19830011E+02  0.16971E-07
 0.19880011E+02  0.14216E-07
 0.19930012E+02 -0.39494E-08
 0.19980011E+02  0.12687E-07
 0.20030012E+02 -0.22159E-07
 0.20080011E+02 -0.66247E-07
 0.20130011E+02 -0.83799E-07
 0.20180012E+02 -0.31433E-08
 0.20230011E+02 -0.16982E-08
 0.20280012E+02 -0.34955E-08
 0.20330011E+02 -0.50031E-08
 0.20380011E+02 -0.10018E-07
 0.20430012E+02  0.40967E-07
 0.20480011E+02  0.16979E-07
 0.20530012E+02  0.12308E-07
 0.20580011E+02 -0.13607E-07
 0.20630011E+02 -0.72041E-08
 0.20680012E+02 -0.43202E-07
 0.20730011E+02 -0.15779E-07
 0.20780012E+02  0.28503E-07
 0.20830011E+02 -0.83172E-08
 0.20880011E+02  0.78707E-07
 0.20930012E+02  0.36978E-07
 0.20980011E+02 -0.15321E-07
 0.21030012E+02  0.27059E-07
 0.21080011E+02  0.24096E-07
 0.21130011E+02  0.20260E-07
 0.21180012E+02  0.14583E-07
 0.21230011E+02  0.16763E-07
 0.21280012E+02  0.13318E-07
 0.21330011E+02  0.14171E-07
 0.21380011E+02  0.31696E-07
 0.21430012E+02  0.37211E-07
 0.21480011E+02  0.28542E-07
 0.21530012E+02  0.34038E-07
 0.21580011E+02  0.18301E-07
 0.21630011E+02 -0.12079E-08
 0.21680012E+02 -0.30150E-07
 0.21730011E+02 -0.31988E-07
 0.21780012E+02 -0.44264E-07
 0.21830011E+02 -0.41906E-07
 0.21880011E+02 -0.11601E-07
 0.21930012E+02 -0.32552E-07
 0.21980011E+02 -0.55133E-07
 0.22030012E+02 -0.47388E-07
 0.22080011E+02 -0.18908E-07
 0.22130011E+02  0.43728E-08
 0.22180012E+02  0.30077E-07
 0.22230011E+02 -0.32984E-10
 0.22280012E+02 -0.27120E-09
 0.22330011E+02  0.24583E-08
 0.22380011E+02  0.59184E-08
 0.22430012E+02 -0.21909E-08
 0.22480011E+02 -0.63472E-07
 0.22530012E+02 -0.28389E-07
 0.22580011E+02 -0.42425E-08
 0.22630011E+02  0.71347E-08
 0.22680012E+02 -0.26691E-08
 0.22730011E+02 -0.35758E-07
 0.22780012E+02  0.10413E-07
 0.22830011E+02  0.77228E-08
 0.22880011E+02 -0.41579E-08
 0.22930012E+02 -0.18754E-07
 0.22980011E+02 -0.54896E-07
 0.23030012E+02 -0.25990E-07
 0.23080011E+02 -0.32698E-07
 0.23130011E+02 -0.70387E-08
 0.23180012E+02  0.25557E-07
 0.23230011E+02  0.14215E-07
 0.23280012E+02  0.41078E-07
 0.23330011E+02  0.50558E-07
 0.23380011E+02  0.49397E-07
 0.23430012E+02  0.38646E-07
 0.23480011E+02 -0.12990E-07
 0.23530012E+02 -0.85127E-08
 0.23580011E+02  0.23330E-07
 0.23630011E+02 -0.17239E-07
 0.23680012E+02 -0.69112E-08
 0.23730011E+02  0.21747E-08
 0.23780012E+02  0.56024E-08
 0.23830011E+02  0.40088E-07
 0.23880011E+02  0.29108E-07
 0.23930012E+02  0.66966E-08
 0.23980011E+02  0.11173E-07
 0.24030012E+02  0.36031E-07
 0.24080011E+02  0.23334E-07
 0.24130011E+02  0.40990E-08
 0.24180012E+02  0.15041E-10
 0.24230011E+02  0.77807E-07
 0.24280012E+02  0.65509E-07
 0.24330011E+02 -0.48507E-08
 0.24380011E+02  0.38454E-07
 0.24430012E+02  0.45657E-07
 0.24480011E+02  0.47881E-07
 0.24530012E+02  0.25437E-07
 0.24580011E+02 -0.24435E-08
 0.24630011E+02  0.15469E-07
 0.24680012E+02  0.21266E-07
 0.24730011E+02 -0.37414E-08
 0.24780012E+02 -0.21068E-07
 0.24830011E+02 -0.56869E-07
 0.24880011E+02 -0.38392E-07
 0.24930012E+02 -0.27986E-08
 0.24980011E+02 -0.39499E-07
 0.25030012E+02 -0.34119E-07
 0.25080011E+02 -0.72425E-07
 0.25130011E+02 -0.68289E-07
 0.25180012E+02 -0.13748E-07
 0.25230011E+02 -0.50447E-07
 0.25280012E+02 -0.48319E-07
 0.25330011E+02 -0.20717E-08
 0.25380011E+02 -0.84960E-09
 0.25430012E+02 -0.13982E-07
 0.25480011E+02 -0.92477E-07
 0.25530012E+02 -0.23011E-06
 0.25580011E+02 -0.33739E-06
 0.25630011E+02 -0.60889E-06
 0.25680012E+02 -0.90828E-06
 0.25730011E+02 -0.13572E-05
 0.25780012E+02 -0.21833E-05
 0.25830011E+02 -0.28914E-05
 0.25880011E+02 -0.37706E-05
 0.25930012E+02 -0.44431E-05
 0.25980011E+02 -0.44644E-05
 0.26030012E+02 -0.42755E-05
 0.26080011E+02 -0.43477E-05
 0.26130011E+02 -0.53104E-05
 0.26180012E+02 -0.66619E-05
 0.26230011E+02 -0.78848E-05
 0.26280012E+02 -0.80897E-05
 0.26330011E+02 -0.70213E-05
 0.26380011E+02 -0.58141E-05
 0.26430012E+02 -0.59858E-05
 0.26480011E+02 -0.62400E-05
 0.26530012E+02 -0.20600E-05
 0.26580011E+02  0.64107E-05
 0.26630011E+02  0.13690E-04
 0.26680012E+02  0.18015E-04
 0.26730011E+02  0.20011E-04
 0.26780012E+02  0.13424E-04
 0.26830011E+02 -0.10476E-05
 0.26880011E+02 -0.15518E-04
 0.26930012E+02 -0.28869E-04
 0.26980011E+02 -0.38409E-04
 0.27030012E+02 -0.37899E-04
 0.27080011E+02 -0.29737E-04
 0.27130011E+02 -0.18030E-04
 0.27180012E+02  0.70314E-06
 0.27230011E+02  0.20753E-04
 0.27280012E+02  0.34744E-04
 0.27330011E+02  0.43397E-04
 0.27380011E+02  0.48298E-04
 0.27430012E+02  0.51252E-04
 0.27480011E+02  0.57266E-04
 0.27530012E+02  0.60540E-04
 0.27580011E+02  0.49972E-04
 0.27630011E+02  0.34049E-04
 0.27680012E+02  0.20641E-04
 0.27730011E+02  0.66682E-05
 0.27780012E+02 -0.74899E-05
 0.27830011E+02 -0.13745E-04
 0.27880011E+02 -0.15171E-04
 0.27930012E+02 -0.17278E-04
 0.27980011E+02 -0.21315E-04
 0.28030012E+02 -0.19905E-04
 0.28080011E+02 -0.56726E-05
 0.28130011E+02 -0.35252E-05
 0.28180012E+02 -0.22256E-04
 0.28230011E+02 -0.53946E-04
 0.28280012E+02 -0.83058E-04
 0.28330011E+02 -0.91815E-04
 0.28380011E+02 -0.87670E-04
 0.28430012E+02 -0.67451E-04
 0.28480011E+02 -0.35584E-04
 0.28530012E+02 -0.69021E-05
 0.28580011E+02  0.23049E-04
 0.28630011E+02  0.53230E-04
 0.28680012E+02  0.58825E-04
 0.28730011E+02  0.66334E-04
 0.28780012E+02  0.98991E-04
 0.28830011E+02  0.11072E-03
 0.28880011E+02  0.11445E-03
 0.28930012E+02  0.11171E-03
 0.28980011E+02  0.65609E-04
 0.29030012E+02 -0.31544E-04
 0.29080011E+02 -0.13336E-03
 0.29130011E+02 -0.16050E-03
 0.29180012E+02 -0.13926E-03
 0.29230011E+02 -0.10708E-03
 0.29280012E+02 -0.53532E-04
 0.29330011E+02 -0.70083E-05
 0.29380011E+02 -0.97756E-05
 0.29430012E+02 -0.35629E-04
 0.29480011E+02 -0.28384E-04
 0.29530012E+02 -0.18780E-04
 0.29580011E+02 -0.72838E-05
 0.29630011E+02  0.59145E-04
 0.29680012E+02  0.14566E-03
 0.29730011E+02  0.16110E-03
 0.29780012E+02  0.92194E-04
 0.29830011E+02  0.20302E-04
 0.29880011E+02 -0.30509E-04
 0.29930012E+02 -0.47479E-04
 0.29980011E+02 -0.18471E-04
 0.30030012E+02 -0.11616E-04
 0.30080011E+02 -0.23942E-04
 0.30130011E+02  0.57008E-05
 0.30180012E+02  0.66976E-04
 0.30230011E+02  0.73131E-04
 0.30280012E+02  0.11002E-04
 0.30330011E+02 -0.21697E-04
 0.30380011E+02 -0.14772E-04
 0.30430012E+02 -0.57385E-05
 0.30480011E+02 -0.10495E-05
 0.30530012E+02 -0.60345E-05
 0.30580011E+02 -0.12421E-04
 0.30630011E+02 -0.54234E-05
 0.30680012E+02  0.31999E-04
 0.30730011E+02  0.50036E-04
 0.30780012E+02  0.37426E-04
 0.30830011E+02  0.30095E-04
 0.30880011E+02 -0.64395E-05
 0.30930012E+02 -0.90578E-04
 0.30980011E+02 -0.17748E-03
 0.31030012E+02 -0.17578E-03
 0.31080011E+02 -0.89326E-04
 0.31130011E+02 -0.23367E-05
 0.31180012E+02  0.17530E-04
 0.31230011E+02 -0.53670E-05
 0.31280012E+02  0.19459E-04
 0.31330011E+02  0.70509E-04
 0.31380011E+02  0.10385E-03
 0.31430012E+02  0.12501E-03
 0.31480011E+02  0.13191E-03
 0.31530012E+02  0.11108E-03
 0.31580011E+02  0.11577E-03
 0.31630011E+02  0.10668E-03
 0.31680012E+02  0.13136E-04
 0.31730011E+02 -0.82619E-04
 0.31780012E+02 -0.14572E-03
 0.31830011E+02 -0.11853E-03
 0.31880011E+02 -0.53807E-04
 0.31930012E+02 -0.35515E-04
 0.31980011E+02 -0.61190E-05
 0.32030010E+02 -0.34308E-04
 0.32080013E+02 -0.98708E-04
 0.32130013E+02 -0.12693E-03
 0.32180012E+02 -0.11117E-03
 0.32230011E+02 -0.52118E-04
 0.32280010E+02 -0.16012E-04
 0.32330013E+02  0.41441E-04
 0.32380013E+02  0.91318E-04
 0.32430012E+02  0.10057E-03
 0.32480011E+02  0.11037E-03
 0.32530010E+02  0.73613E-04
 0.32580013E+02 -0.24973E-04
 0.32630013E+02 -0.11891E-03
 0.32680012E+02 -0.80956E-04
 0.32730011E+02  0.13475E-04
 0.32780010E+02  0.32844E-04
 0.32830013E+02  0.34055E-04
 0.32880013E+02  0.21084E-04
 0.32930012E+02 -0.25026E-04
 0.32980011E+02 -0.39427E-04
 0.33030010E+02 -0.12036E-04
 0.33080013E+02  0.37438E-04
 0.33130013E+02  0.10318E-03
 0.33180012E+02  0.10631E-03
 0.33230011E+02  0.35284E-04
 0.33280010E+02  0.37416E-05
 0.33330013E+02  0.46633E-04
 0.33380013E+02  0.64583E-04
 0.33430012E+02  0.32943E-04
 0.33480011E+02  0.11911E-04
 0.33530010E+02 -0.30359E-04
 0.33580013E+02 -0.60970E-04
 0.33630013E+02 -0.13270E-04
 0.33680012E+02  0.16822E-04
 0.33730011E+02  0.59616E-05
 0.33780010E+02 -0.13399E-04
 0.33830013E+02 -0.45340E-04
 0.33880013E+02 -0.42065E-04
 0.33930012E+02 -0.71475E-04
 0.33980011E+02 -0.16876E-03
 0.34030010E+02 -0.23982E-03
 0.34080013E+02 -0.21602E-03
 0.34130013E+02 -0.85684E-04
 0.34180012E+02  0.51673E-04
 0.34230011E+02  0.12681E-03
 0.34280010E+02  0.11803E-03
 0.34330013E+02  0.70417E-04
 0.34380013E+02  0.72068E-04
 0.34430012E+02  0.10939E-03
 0.34480011E+02  0.15034E-03
 0.34530010E+02  0.16009E-03
 0.34580013E+02  0.12706E-03
 0.34630013E+02  0.38310E-04
 0.34680012E+02 -0.36018E-04
 0.34730011E+02 -0.43762E-04
 0.34780010E+02 -0.62840E-04
 0.34830013E+02 -0.78733E-04
 0.34880013E+02 -0.10389E-03
 0.34930012E+02 -0.13383E-03
 0.34980011E+02 -0.13311E-03
 0.35030010E+02 -0.10447E-03
 0.35080013E+02 -0.25124E-04
 0.35130013E+02  0.71319E-04
 0.35180012E+02  0.16584E-03
 0.35230011E+02  0.16262E-03
 0.35280010E+02  0.73905E-04
 0.35330013E+02  0.78035E-04
 0.35380013E+02  0.11670E-03
 0.35430012E+02  0.11082E-03
 0.35480011E+02  0.46335E-04
 0.35530010E+02 -0.74707E-04
 0.35580013E+02 -0.17364E-03
 0.35630013E+02 -0.20280E-03
 0.35680012E+02 -0.12561E-03
 0.35730011E+02 -0.30776E-04
 0.35780010E+02  0.38817E-04
 0.35830013E+02  0.92381E-04
 0.35880013E+02  0.59760E-04
 0.35930012E+02  0.52282E-05
 0.35980011E+02 -0.95001E-08
 0.36030010E+02  0.12738E-04
 0.36080013E+02 -0.90288E-05
 0.36130013E+02 -0.69129E-04
 0.36180012E+02 -0.11600E-03
 0.36230011E+02 -0.12639E-03
 0.36280010E+02 -0.27609E-04
 0.36330013E+02  0.13872E-03
 0.36380013E+02  0.25489E-03
 0.36430012E+02  0.30364E-03
 0.36480011E+02  0.21934E-03
 0.36530010E+02  0.83637E-04
 0.36580013E+02 -0.25428E-04
 0.36630013E+02 -0.10293E-03
 0.36680012E+02 -0.13728E-03
 0.36730011E+02 -0.17116E-03
 0.36780010E+02 -0.19694E-03
 0.36830013E+02 -0.23395E-03
 0.36880013E+02 -0.21523E-03
 0.36930012E+02 -0.14056E-03
 0.36980011E+02 -0.84384E-04
 0.37030010E+02 -0.52520E-04
 0.37080013E+02 -0.23220E-04
 0.37130013E+02  0.66614E-04
 0.37180012E+02  0.17255E-03
 0.37230011E+02  0.22372E-03
 0.37280010E+02  0.21702E-03
 0.37330013E+02  0.17525E-03
 0.37380013E+02  0.12609E-03
 0.37430012E+02  0.65884E-04
 0.37480011E+02  0.18490E-04
 0.37530010E+02  0.26433E-04
 0.37580013E+02  0.69841E-04
 0.37630013E+02  0.93180E-04
 0.37680012E+02  0.73007E-04
 0.37730011E+02 -0.13472E-04
 0.37780010E+02 -0.19898E-03
 0.37830013E+02 -0.35320E-03
 0.37880013E+02 -0.32652E-03
 0.37930012E+02 -0.18719E-03
 0.37980011E+02 -0.37553E-04
 0.38030010E+02  0.66724E-04
 0.38080013E+02  0.14039E-03
 0.38130013E+02  0.21171E-03
 0.38180012E+02  0.24379E-03
 0.38230011E+02  0.26554E-03
 0.38280010E+02  0.24126E-03
 0.38330013E+02  0.13506E-03
 0.38380013E+02  0.19901E-05
 0.38430012E+02 -0.13700E-03
 0.38480011E+02 -0.24073E-03
 0.38530010E+02 -0.30373E-03
 0.38580013E+02 -0.28359E-03
 0.38630013E+02 -0.18663E-03
 0.38680012E+02 -0.89867E-04
 0.38730011E+02 -0.16990E-04
 0.38780010E+02 -0.84425E-05
 0.38830013E+02 -0.20981E-04
 0.38880013E+02  0.17680E-05
 0.38930012E+02  0.89216E-04
 0.38980011E+02  0.21908E-03
 0.39030010E+02  0.30345E-03
 0.39080013E+02  0.30363E-03
 0.39130013E+02  0.23262E-03
 0.39180012E+02  0.11033E-03
 0.39230011E+02 -0.69480E-04
 0.39280010E+02 -0.17832E-03
 0.39330013E+02 -0.17260E-03
 0.39380013E+02 -0.17749E-03
 0.39430012E+02 -0.15694E-03
 0.39480011E+02 -0.10856E-03
 0.39530010E+02 -0.85373E-04
 0.39580013E+02 -0.42627E-04
 0.39630013E+02 -0.34415E-04
 0.39680012E+02 -0.96040E-04
 0.39730011E+02 -0.14974E-03
 0.39780010E+02 -0.13082E-03
 0.39830013E+02 -0.35737E-04
 0.39880013E+02 -0.24495E-05
 0.39930012E+02 -0.46548E-04
 0.39980011E+02 -0.83879E-04
 0.40030010E+02 -0.11014E-03
 0.40080013E+02 -0.78399E-04
 0.40130013E+02  0.62774E-05
 0.40180012E+02  0.10654E-03
 0.40230011E+02  0.16767E-03
 0.40280010E+02  0.14797E-03
 0.40330013E+02  0.92685E-04
 0.40380013E+02  0.30986E-04
 0.40430012E+02 -0.47941E-04
 0.40480011E+02 -0.96091E-04
 0.40530010E+02 -0.75902E-05
 0.40580013E+02  0.16176E-03
 0.40630013E+02  0.26440E-03
 0.40680012E+02  0.27324E-03
 0.40730011E+02  0.21864E-03
 0.40780010E+02  0.13120E-03
 0.40830013E+02  0.68404E-04
 0.40880013E+02  0.83033E-04
 0.40930012E+02  0.11237E-03
 0.40980011E+02  0.68469E-04
 0.41030010E+02 -0.46428E-04
 0.41080013E+02 -0.17167E-03
 0.41130013E+02 -0.22880E-03
 0.41180012E+02 -0.17835E-03
 0.41230011E+02 -0.90293E-04
 0.41280010E+02 -0.76265E-04
 0.41330013E+02 -0.10378E-03
 0.41380013E+02 -0.12464E-03
 0.41430012E+02 -0.14949E-03
 0.41480011E+02 -0.14969E-03
 0.41530010E+02 -0.14510E-03
 0.41580013E+02 -0.17764E-03
 0.41630013E+02 -0.17982E-03
 0.41680012E+02 -0.50398E-04
 0.41730011E+02  0.14781E-03
 0.41780010E+02  0.26232E-03
 0.41830013E+02  0.26276E-03
 0.41880013E+02  0.19668E-03
 0.41930012E+02  0.13539E-03
 0.41980011E+02  0.13884E-03
 0.42030010E+02  0.15934E-03
 0.42080013E+02  0.16502E-03
 0.42130013E+02  0.16730E-03
 0.42180012E+02  0.15170E-03
 0.42230011E+02  0.97854E-04
 0.42280010E+02 -0.22547E-04
 0.42330013E+02 -0.14048E-03
 0.42380013E+02 -0.17643E-03
 0.42430012E+02 -0.15384E-03
 0.42480011E+02 -0.10277E-03
 0.42530010E+02 -0.88303E-04
 0.42580013E+02 -0.17398E-03
 0.42630013E+02 -0.25423E-03
 0.42680012E+02 -0.21478E-03
 0.42730011E+02 -0.15358E-03
 0.42780010E+02 -0.16138E-03
 0.42830013E+02 -0.13760E-03
 0.42880013E+02 -0.17030E-04
 0.42930012E+02  0.11432E-03
 0.42980011E+02  0.18926E-03
 0.43030010E+02  0.21191E-03
 0.43080013E+02  0.22556E-03
 0.43130013E+02  0.23469E-03
 0.43180012E+02  0.21515E-03
 0.43230011E+02  0.17069E-03
 0.43280010E+02  0.12390E-03
 0.43330013E+02  0.12233E-03
 0.43380013E+02  0.11475E-03
 0.43430012E+02  0.52143E-04
 0.43480011E+02 -0.35371E-04
 0.43530010E+02 -0.13817E-03
 0.43580013E+02 -0.19059E-03
 0.43630013E+02 -0.16650E-03
 0.43680012E+02 -0.12536E-03
 0.43730011E+02 -0.78856E-04
 0.43780010E+02 -0.41851E-04
 0.43830013E+02 -0.61030E-05
 0.43880013E+02  0.85689E-04
 0.43930012E+02  0.14443E-03
 0.43980011E+02  0.93964E-04
 0.44030010E+02  0.18995E-04
 0.44080013E+02 -0.24617E-04
 0.44130013E+02 -0.21096E-04
 0.44180012E+02 -0.19384E-04
 0.44230011E+02 -0.56460E-04
 0.44280010E+02 -0.94314E-04
 0.44330013E+02 -0.12923E-03
 0.44380013E+02 -0.13982E-03
 0.44430012E+02 -0.12394E-03
 0.44480011E+02 -0.10416E-03
 0.44530010E+02 -0.59730E-04
 0.44580013E+02 -0.80858E-05
 0.44630013E+02  0.50293E-04
 0.44680012E+02  0.98843E-04
 0.44730011E+02  0.81969E-04
 0.44780010E+02 -0.29833E-04
 0.44830013E+02 -0.21345E-03
 0.44880013E+02 -0.28411E-03
 0.44930012E+02 -0.16522E-03
 0.44980011E+02  0.32693E-04
 0.45030010E+02  0.21895E-03
 0.45080013E+02  0.31265E-03
 0.45130013E+02  0.28003E-03
 0.45180012E+02  0.14290E-03
 0.45230011E+02  0.15619E-04
 0.45280010E+02 -0.31391E-04
 0.45330013E+02 -0.53314E-04
 0.45380013E+02 -0.57391E-04
 0.45430012E+02 -0.15664E-04
 0.45480011E+02  0.72867E-04
 0.45530010E+02  0.13500E-03
 0.45580013E+02  0.10942E-03
 0.45630013E+02  0.41124E-04
 0.45680012E+02 -0.72663E-04
 0.45730011E+02 -0.18422E-03
 0.45780010E+02 -0.17135E-03
 0.45830013E+02 -0.72954E-04
 0.45880013E+02 -0.47139E-06
 0.45930012E+02 -0.73036E-05
 0.45980011E+02 -0.35796E-04
 0.46030010E+02 -0.13356E-06
 0.46080013E+02  0.52072E-04
 0.46130013E+02  0.77892E-04
 0.46180012E+02  0.98537E-04
 0.46230011E+02  0.81583E-04
 0.46280010E+02  0.21369E-04
 0.46330013E+02 -0.39809E-04
 0.46380013E+02 -0.80939E-04
 0.46430012E+02 -0.32294E-04
 0.46480011E+02  0.75748E-04
 0.46530010E+02  0.11965E-03
 0.46580013E+02  0.12219E-03
 0.46630013E+02  0.12599E-03
 0.46680012E+02  0.12290E-03
 0.46730011E+02  0.11741E-03
 0.46780010E+02  0.99016E-04
 0.46830013E+02  0.29680E-04
 0.46880013E+02 -0.82049E-04
 0.46930012E+02 -0.16444E-03
 0.46980011E+02 -0.18664E-03
 0.47030010E+02 -0.15237E-03
 0.47080013E+02 -0.88046E-04
 0.47130013E+02 -0.38532E-04
 0.47180012E+02 -0.28565E-07
 0.47230011E+02  0.89792E-04
 0.47280010E+02  0.16682E-03
 0.47330013E+02  0.93373E-04
 0.47380013E+02 -0.89096E-04
 0.47430012E+02 -0.24613E-03
 0.47480011E+02 -0.28866E-03
 0.47530010E+02 -0.28042E-03
 0.47580013E+02 -0.28052E-03
 0.47630013E+02 -0.23875E-03
 0.47680012E+02 -0.17370E-03
 0.47730011E+02 -0.55073E-04
 0.47780010E+02  0.10478E-03
 0.47830013E+02  0.16306E-03
 0.47880013E+02  0.96552E-04
 0.47930012E+02  0.21375E-06
 0.47980011E+02  0.96279E-05
 0.48030010E+02  0.12829E-03
 0.48080013E+02  0.21411E-03
 0.48130013E+02  0.24806E-03
 0.48180012E+02  0.21983E-03
 0.48230011E+02  0.12474E-03
 0.48280010E+02  0.95426E-04
 0.48330013E+02  0.16534E-03
 0.48380013E+02  0.20622E-03
 0.48430012E+02  0.95230E-04
 0.48480011E+02 -0.63844E-04
 0.48530010E+02 -0.79258E-04
 0.48580013E+02 -0.17329E-04
 0.48630013E+02  0.10016E-03
 0.48680012E+02  0.24254E-03
 0.48730011E+02  0.23319E-03
 0.48780010E+02  0.11096E-03
 0.48830013E+02 -0.65340E-04
 0.48880013E+02 -0.22320E-03
 0.48930012E+02 -0.25321E-03
 0.48980011E+02 -0.18888E-03
 0.49030010E+02 -0.86644E-04
 0.49080013E+02 -0.87772E-05
 0.49130013E+02 -0.12997E-05
 0.49180012E+02 -0.50634E-04
 0.49230011E+02 -0.10034E-03
 0.49280010E+02 -0.19835E-03
 0.49330013E+02 -0.34720E-03
 0.49380013E+02 -0.39690E-03
 0.49430012E+02 -0.35746E-03
 0.49480011E+02 -0.33131E-03
 0.49530010E+02 -0.27062E-03
 0.49580013E+02 -0.83703E-04
 0.49630013E+02  0.19924E-03
 0.49680012E+02  0.47163E-03
 0.49730011E+02  0.59558E-03
 0.49780010E+02  0.54662E-03
 0.49830013E+02  0.34333E-03
 0.49880013E+02  0.39204E-04
 0.49930012E+02 -0.15829E-03
 0.49980011E+02 -0.21538E-03
 0.50030010E+02 -0.17259E-03
 0.50080013E+02 -0.66929E-04
 0.50130013E+02  0.67341E-05
 0.50180012E+02  0.20973E-05
 0.50230011E+02 -0.48507E-04
 0.50280010E+02 -0.19482E-04
 0.50330013E+02  0.16982E-03
 0.50380013E+02  0.45568E-03
 0.50430012E+02  0.57560E-03
 0.50480011E+02  0.49216E-03
 0.50530010E+02  0.39188E-03
 0.50580013E+02  0.37464E-03
 0.50630013E+02  0.35268E-03
 0.50680012E+02  0.16021E-03
 0.50730011E+02 -0.39318E-04
 0.50780010E+02 -0.15669E-03
 0.50830013E+02 -0.26617E-03
 0.50880013E+02 -0.49076E-03
 0.50930012E+02 -0.87198E-03
 0.50980011E+02 -0.10936E-02
 0.51030010E+02 -0.10693E-02
 0.51080013E+02 -0.96304E-03
 0.51130013E+02 -0.83470E-03
 0.51180012E+02 -0.71324E-03
 0.51230011E+02 -0.52963E-03
 0.51280010E+02 -0.19874E-03
 0.51330013E+02  0.26352E-03
 0.51380013E+02  0.61679E-03
 0.51430012E+02  0.73586E-03
 0.51480011E+02  0.76841E-03
 0.51530010E+02  0.77261E-03
 0.51580013E+02  0.86088E-03
 0.51630013E+02  0.91354E-03
 0.51680012E+02  0.80015E-03
 0.51730011E+02  0.53279E-03
 0.51780010E+02  0.16097E-03
 0.51830013E+02  0.20807E-04
 0.51880013E+02  0.63756E-04
 0.51930012E+02  0.63600E-04
 0.51980011E+02 -0.48919E-04
 0.52030010E+02 -0.19780E-03
 0.52080013E+02 -0.22305E-03
 0.52130013E+02 -0.25313E-03
 0.52180012E+02 -0.36914E-03
 0.52230011E+02 -0.55492E-03
 0.52280010E+02 -0.70622E-03
 0.52330013E+02 -0.61467E-03
 0.52380013E+02 -0.32654E-03
 0.52430012E+02 -0.84634E-05
 0.52480011E+02  0.28018E-03
 0.52530010E+02  0.51716E-03
 0.52580013E+02  0.74261E-03
 0.52630013E+02  0.89414E-03
 0.52680012E+02  0.79936E-03
 0.52730011E+02  0.46229E-03
 0.52780010E+02  0.10308E-03
 0.52830013E+02 -0.16100E-03
 0.52880013E+02 -0.45004E-03
 0.52930012E+02 -0.79202E-03
 0.52980011E+02 -0.99029E-03
 0.53030010E+02 -0.85462E-03
 0.53080013E+02 -0.62506E-03
 0.53130013E+02 -0.47497E-03
 0.53180012E+02 -0.19877E-03
 0.53230011E+02  0.89989E-04
 0.53280010E+02  0.28167E-03
 0.53330013E+02  0.46190E-03
 0.53380013E+02  0.55970E-03
 0.53430012E+02  0.49180E-03
 0.53480011E+02  0.25954E-03
 0.53530010E+02  0.85670E-04
 0.53580013E+02  0.18285E-03
 0.53630013E+02  0.41522E-03
 0.53680012E+02  0.57279E-03
 0.53730011E+02  0.57709E-03
 0.53780010E+02  0.40140E-03
 0.53830013E+02  0.40097E-04
 0.53880013E+02 -0.37417E-03
 0.53930012E+02 -0.71158E-03
 0.53980011E+02 -0.88614E-03
 0.54030010E+02 -0.77248E-03
 0.54080013E+02 -0.50474E-03
 0.54130013E+02 -0.22116E-03
 0.54180012E+02  0.58000E-05
 0.54230011E+02  0.38919E-04
 0.54280010E+02  0.21296E-05
 0.54330013E+02  0.13315E-03
 0.54380013E+02  0.35316E-03
 0.54430012E+02  0.37911E-03
 0.54480011E+02  0.23889E-03
 0.54530010E+02  0.71958E-04
 0.54580013E+02 -0.10076E-03
 0.54630013E+02 -0.26345E-03
 0.54680012E+02 -0.43153E-03
 0.54730011E+02 -0.66126E-03
 0.54780010E+02 -0.81475E-03
 0.54830013E+02 -0.61804E-03
 0.54880013E+02 -0.18673E-03
 0.54930012E+02  0.20376E-03
 0.54980011E+02  0.38472E-03
 0.55030010E+02  0.39239E-03
 0.55080013E+02  0.41011E-03
 0.55130013E+02  0.56106E-03
 0.55180012E+02  0.78042E-03
 0.55230011E+02  0.76510E-03
 0.55280010E+02  0.53134E-03
 0.55330013E+02  0.31727E-03
 0.55380013E+02  0.16862E-03
 0.55430012E+02  0.28464E-04
 0.55480011E+02 -0.11084E-03
 0.55530010E+02 -0.16817E-03
 0.55580013E+02 -0.16197E-03
 0.55630013E+02 -0.11896E-03
 0.55680012E+02  0.13300E-04
 0.55730011E+02  0.14740E-03
 0.55780010E+02  0.83685E-04
 0.55830013E+02 -0.18747E-03
 0.55880013E+02 -0.57959E-03
 0.55930012E+02 -0.94690E-03
 0.55980011E+02 -0.10159E-02
 0.56030010E+02 -0.69311E-03
 0.56080013E+02 -0.10823E-03
 0.56130013E+02  0.48135E-03
 0.56180012E+02  0.77824E-03
 0.56230011E+02  0.64186E-03
 0.56280010E+02  0.25576E-03
 0.56330013E+02 -0.12713E-03
 0.56380013E+02 -0.47662E-03
 0.56430012E+02 -0.72744E-03
 0.56480011E+02 -0.67878E-03
 0.56530010E+02 -0.32683E-03
 0.56580013E+02  0.15157E-03
 0.56630013E+02  0.68526E-03
 0.56680012E+02  0.11023E-02
 0.56730011E+02  0.12278E-02
 0.56780010E+02  0.10315E-02
 0.56830013E+02  0.67804E-03
 0.56880013E+02  0.41987E-03
 0.56930012E+02  0.15888E-03
 0.56980011E+02 -0.14832E-03
 0.57030010E+02 -0.35394E-03
 0.57080013E+02 -0.42153E-03
 0.57130013E+02 -0.50432E-03
 0.57180012E+02 -0.60359E-03
 0.57230011E+02 -0.53113E-03
 0.57280010E+02 -0.36918E-03
 0.57330013E+02 -0.19182E-03
 0.57380013E+02 -0.10844E-03
 0.57430012E+02 -0.17325E-03
 0.57480011E+02 -0.32411E-03
 0.57530010E+02 -0.51830E-03
 0.57580013E+02 -0.54502E-03
 0.57630013E+02 -0.30337E-03
 0.57680012E+02  0.10188E-03
 0.57730011E+02  0.42885E-03
 0.57780010E+02  0.56208E-03
 0.57830013E+02  0.50494E-03
 0.57880013E+02  0.27687E-03
 0.57930012E+02  0.22149E-04
 0.57980011E+02 -0.17359E-03
 0.58030010E+02 -0.21246E-03
 0.58080013E+02 -0.91618E-04
 0.58130013E+02  0.53407E-04
 0.58180012E+02  0.13890E-03
 0.58230011E+02  0.17239E-03
 0.58280010E+02  0.17070E-03
 0.58330013E+02  0.42567E-04
 0.58380013E+02 -0.18125E-03
 0.58430012E+02 -0.33643E-03
 0.58480011E+02 -0.25530E-03
 0.58530010E+02  0.98132E-04
 0.58580013E+02  0.49387E-03
 0.58630013E+02  0.72532E-03
 0.58680012E+02  0.61886E-03
 0.58730011E+02  0.17802E-03
 0.58780010E+02 -0.27241E-03
 0.58830013E+02 -0.58409E-03
 0.58880013E+02 -0.73037E-03
 0.58930012E+02 -0.72386E-03
 0.58980011E+02 -0.62311E-03
 0.59030010E+02 -0.30925E-03
 0.59080013E+02  0.12574E-03
 0.59130013E+02  0.39002E-03
 0.59180012E+02  0.41317E-03
 0.59230011E+02  0.30843E-03
 0.59280010E+02  0.21773E-03
 0.59330013E+02  0.14494E-03
 0.59380013E+02  0.11529E-04
 0.59430012E+02 -0.85119E-04
 0.59480011E+02 -0.89137E-04
 0.59530010E+02 -0.33371E-04
 0.59580013E+02  0.11420E-03
 0.59630013E+02  0.27117E-03
 0.59680012E+02  0.40920E-03
 0.59730011E+02  0.44283E-03
 0.59780010E+02  0.31911E-03
 0.59830013E+02  0.16783E-03
 0.59880013E+02 -0.68972E-05
 0.59930012E+02 -0.21603E-03
 0.59980011E+02 -0.45074E-03
 0.60030010E+02 -0.63921E-03
 0.60080013E+02 -0.67040E-03
 0.60130013E+02 -0.42286E-03
 0.60180012E+02 -0.10743E-04
 0.60230011E+02  0.21109E-03
 0.60280010E+02  0.25953E-03
 0.60330013E+02  0.26572E-03
 0.60380013E+02  0.28076E-03
 0.60430012E+02  0.40506E-03
 0.60480011E+02  0.52135E-03
 0.60530010E+02  0.44432E-03
 0.60580013E+02  0.17966E-03
 0.60630013E+02 -0.48222E-04
 0.60680012E+02 -0.70436E-04
 0.60730011E+02 -0.16722E-05
 0.60780010E+02  0.76862E-04
 0.60830013E+02  0.11412E-03
 0.60880013E+02  0.54135E-04
 0.60930012E+02 -0.40750E-04
 0.60980011E+02 -0.12289E-03
 0.61030010E+02 -0.10026E-03
 0.61080013E+02  0.23387E-04
 0.61130013E+02  0.16591E-03
 0.61180012E+02  0.25354E-03
 0.61230011E+02  0.11191E-03
 0.61280010E+02 -0.27498E-03
 0.61330013E+02 -0.66586E-03
 0.61380013E+02 -0.74848E-03
 0.61430012E+02 -0.50844E-03
 0.61480011E+02 -0.18801E-03
 0.61530010E+02  0.81807E-04
 0.61580013E+02  0.20241E-03
 0.61630013E+02  0.14554E-03
 0.61680012E+02 -0.52576E-04
 0.61730011E+02 -0.30812E-03
 0.61780010E+02 -0.40885E-03
 0.61830013E+02 -0.30446E-03
 0.61880013E+02 -0.88897E-04
 0.61930012E+02  0.11688E-03
 0.61980011E+02  0.19077E-03
 0.62030010E+02  0.12704E-03
 0.62080013E+02 -0.51987E-04
 0.62130013E+02 -0.15434E-03
 0.62180012E+02 -0.89088E-04
 0.62230011E+02 -0.43094E-05
 0.62280010E+02  0.90231E-04
 0.62330013E+02  0.13939E-03
 0.62380013E+02  0.73948E-04
 0.62430012E+02 -0.13195E-05
 0.62480011E+02  0.82091E-04
 0.62530010E+02  0.31531E-03
 0.62580013E+02  0.49978E-03
 0.62630013E+02  0.48742E-03
 0.62680012E+02  0.28474E-03
 0.62730011E+02  0.10688E-03
 0.62780010E+02  0.96509E-04
 0.62830013E+02  0.18615E-03
 0.62880013E+02  0.21554E-03
 0.62930012E+02  0.70774E-04
 0.62980011E+02 -0.22492E-03
 0.63030010E+02 -0.57251E-03
 0.63080013E+02 -0.74097E-03
 0.63130013E+02 -0.62991E-03
 0.63180012E+02 -0.35460E-03
 0.63230011E+02 -0.43427E-04
 0.63280010E+02  0.16516E-03
 0.63330013E+02  0.19062E-03
 0.63380013E+02  0.10352E-03
 0.63430012E+02  0.14372E-03
 0.63480011E+02  0.39881E-03
 0.63530010E+02  0.65655E-03
 0.63580013E+02  0.69602E-03
 0.63630013E+02  0.53205E-03
 0.63680012E+02  0.31406E-03
 0.63730011E+02  0.12809E-03
 0.63780010E+02  0.32206E-04
 0.63830013E+02 -0.62153E-04
 0.63880013E+02 -0.21570E-03
 0.63930012E+02 -0.34265E-03
 0.63980011E+02 -0.38276E-03
 0.64030014E+02 -0.30129E-03
 0.64080009E+02 -0.18782E-03
 0.64130013E+02 -0.10505E-03
 0.64180016E+02 -0.66067E-04
 0.64230011E+02 -0.85658E-04
 0.64280014E+02 -0.14085E-03
 0.64330009E+02 -0.23251E-03
 0.64380013E+02 -0.33714E-03
 0.64430016E+02 -0.39804E-03
 0.64480011E+02 -0.32928E-03
 0.64530014E+02 -0.16832E-03
 0.64580009E+02 -0.43485E-04
 0.64630013E+02  0.14705E-04
 0.64680016E+02  0.39780E-04
 0.64730011E+02  0.69478E-04
 0.64780014E+02  0.10643E-03
 0.64830009E+02  0.13790E-03
 0.64880013E+02  0.18670E-03
 0.64930016E+02  0.21383E-03
 0.64980011E+02  0.14867E-03
 0.65030014E+02  0.60513E-04
 0.65080009E+02  0.49904E-04
 0.65130013E+02  0.11648E-03
 0.65180016E+02  0.17675E-03
 0.65230011E+02  0.13543E-03
 0.65280014E+02 -0.18690E-04
 0.65330009E+02 -0.18267E-03
 0.65380013E+02 -0.25038E-03
 0.65430016E+02 -0.20937E-03
 0.65480011E+02 -0.96747E-04
 0.65530014E+02  0.45849E-04
 0.65580009E+02  0.16981E-03
 0.65630013E+02  0.21357E-03
 0.65680016E+02  0.22793E-03
 0.65730011E+02  0.23683E-03
 0.65780014E+02  0.15233E-03
 0.65830009E+02  0.20170E-04
 0.65880013E+02 -0.13398E-03
 0.65930016E+02 -0.28375E-03
 0.65980011E+02 -0.35100E-03
 0.66030014E+02 -0.36689E-03
 0.66080009E+02 -0.32990E-03
 0.66130013E+02 -0.23744E-03
 0.66180016E+02 -0.14873E-03
 0.66230011E+02 -0.60736E-04
 0.66280014E+02  0.84454E-04
 0.66330009E+02  0.27625E-03
 0.66380013E+02  0.50033E-03
 0.66430016E+02  0.73194E-03
 0.66480011E+02  0.83681E-03
 0.66530014E+02  0.73386E-03
 0.66580009E+02  0.48363E-03
 0.66630013E+02  0.19168E-03
 0.66680016E+02 -0.41692E-04
 0.66730011E+02 -0.17074E-03
 0.66780014E+02 -0.24221E-03
 0.66830009E+02 -0.28430E-03
 0.66880013E+02 -0.33237E-03
 0.66930016E+02 -0.37303E-03
 0.66980011E+02 -0.29647E-03
 0.67030014E+02 -0.19134E-03
 0.67080009E+02 -0.23149E-03
 0.67130013E+02 -0.33731E-03
 0.67180016E+02 -0.35601E-03
 0.67230011E+02 -0.28588E-03
 0.67280014E+02 -0.19603E-03
 0.67330009E+02 -0.17017E-03
 0.67380013E+02 -0.23995E-03
 0.67430016E+02 -0.34043E-03
 0.67480011E+02 -0.35919E-03
 0.67530014E+02 -0.23410E-03
 0.67580009E+02 -0.35559E-04
 0.67630013E+02  0.11800E-03
 0.67680016E+02  0.20835E-03
 0.67730011E+02  0.28339E-03
 0.67780014E+02  0.31013E-03
 0.67830009E+02  0.29382E-03
 0.67880013E+02  0.28233E-03
 0.67930016E+02  0.27137E-03
 0.67980011E+02  0.27271E-03
 0.68030014E+02  0.24529E-03
 0.68080009E+02  0.16773E-03
 0.68130013E+02  0.10559E-03
 0.68180016E+02  0.80611E-04
 0.68230011E+02  0.47345E-04
 0.68280014E+02  0.16833E-05
 0.68330009E+02 -0.44864E-04
 0.68380013E+02 -0.85750E-04
 0.68430016E+02 -0.76693E-04
 0.68480011E+02 -0.10707E-03
 0.68530014E+02 -0.22527E-03
 0.68580009E+02 -0.29564E-03
 0.68630013E+02 -0.26873E-03
 0.68680016E+02 -0.14437E-03
 0.68730011E+02  0.52859E-04
 0.68780014E+02  0.19432E-03
 0.68830009E+02  0.20583E-03
 0.68880013E+02  0.15074E-03
 0.68930016E+02  0.13179E-03
 0.68980011E+02  0.16527E-03
 0.69030014E+02  0.19745E-03
 0.69080009E+02  0.20930E-03
 0.69130013E+02  0.18226E-03
 0.69180016E+02  0.16109E-03
 0.69230011E+02  0.18665E-03
 0.69280014E+02  0.17725E-03
 0.69330009E+02  0.98010E-04
 0.69380013E+02 -0.48557E-04
 0.69430016E+02 -0.22670E-03
 0.69480011E+02 -0.34668E-03
 0.69530014E+02 -0.35692E-03
 0.69580009E+02 -0.27955E-03
 0.69630013E+02 -0.22819E-03
 0.69680016E+02 -0.24533E-03
 0.69730011E+02 -0.25657E-03
 0.69780014E+02 -0.23406E-03
 0.69830009E+02 -0.17415E-03
 0.69880013E+02 -0.10021E-03
 0.69930016E+02 -0.57151E-04
 0.69980011E+02 -0.97202E-05
 0.70030014E+02  0.83625E-04
 0.70080009E+02  0.22349E-03
 0.70130013E+02  0.35923E-03
 0.70180016E+02  0.41023E-03
 0.70230011E+02  0.32926E-03
 0.70280014E+02  0.16204E-03
 0.70330009E+02  0.57248E-04
 0.70380013E+02  0.46619E-04
 0.70430016E+02  0.77637E-04
 0.70480011E+02  0.14259E-03
 0.70530014E+02  0.19550E-03
 0.70580009E+02  0.19519E-03
 0.70630013E+02  0.11394E-03
 0.70680016E+02 -0.23170E-04
 0.70730011E+02 -0.13576E-03
 0.70780014E+02 -0.20261E-03
 0.70830009E+02 -0.23178E-03
 0.70880013E+02 -0.22724E-03
 0.70930016E+02 -0.19545E-03
 0.70980011E+02 -0.16194E-03
 0.71030014E+02 -0.14577E-03
 0.71080009E+02 -0.99168E-04
 0.71130013E+02 -0.26122E-04
 0.71180016E+02  0.10071E-04
 0.71230011E+02  0.15069E-04
 0.71280014E+02 -0.26059E-04
 0.71330009E+02 -0.83550E-04
 0.71380013E+02 -0.78494E-04
 0.71430016E+02 -0.54150E-04
 0.71480011E+02 -0.74673E-04
 0.71530014E+02 -0.11940E-03
 0.71580009E+02 -0.10758E-03
 0.71630013E+02 -0.81554E-05
 0.71680016E+02  0.14718E-03
 0.71730011E+02  0.27109E-03
 0.71780014E+02  0.30052E-03
 0.71830009E+02  0.27923E-03
 0.71880013E+02  0.22581E-03
 0.71930016E+02  0.17638E-03
 0.71980011E+02  0.17110E-03
 0.72030014E+02  0.15677E-03
 0.72080009E+02  0.71285E-04
 0.72130013E+02 -0.32142E-04
 0.72180016E+02 -0.63998E-04
 0.72230011E+02 -0.45459E-04
 0.72280014E+02 -0.27042E-04
 0.72330009E+02 -0.28073E-04
 0.72380013E+02 -0.48848E-04
 0.72430016E+02 -0.98830E-04
 0.72480011E+02 -0.19490E-03
 0.72530014E+02 -0.31525E-03
 0.72580009E+02 -0.38895E-03
 0.72630013E+02 -0.37872E-03
 0.72680016E+02 -0.34258E-03
 0.72730011E+02 -0.31755E-03
 0.72780014E+02 -0.30276E-03
 0.72830009E+02 -0.32529E-03
 0.72880013E+02 -0.35031E-03
 0.72930016E+02 -0.26512E-03
 0.72980011E+02 -0.64192E-04
 0.73030014E+02  0.16363E-03
 0.73080009E+02  0.37407E-03
 0.73130013E+02  0.52267E-03
 0.73180016E+02  0.60083E-03
 0.73230011E+02  0.63093E-03
 0.73280014E+02  0.59171E-03
 0.73330009E+02  0.48995E-03
 0.73380013E+02  0.34839E-03
 0.73430016E+02  0.19253E-03
 0.73480011E+02  0.65708E-04
 0.73530014E+02 -0.42535E-05
 0.73580009E+02 -0.27513E-04
 0.73630013E+02 -0.64269E-04
 0.73680016E+02 -0.12923E-03
 0.73730011E+02 -0.17062E-03
 0.73780014E+02 -0.15086E-03
 0.73830009E+02 -0.96279E-04
 0.73880013E+02 -0.48214E-04
 0.73930016E+02 -0.18381E-04
 0.73980011E+02 -0.41338E-04
 0.74030014E+02 -0.11146E-03
 0.74080009E+02 -0.17113E-03
 0.74130013E+02 -0.20019E-03
 0.74180016E+02 -0.24420E-03
 0.74230011E+02 -0.30745E-03
 0.74280014E+02 -0.32846E-03
 0.74330009E+02 -0.32994E-03
 0.74380013E+02 -0.33314E-03
 0.74430016E+02 -0.28191E-03
 0.74480011E+02 -0.14655E-03
 0.74530014E+02  0.25132E-04
 0.74580009E+02  0.16378E-03
 0.74630013E+02  0.26866E-03
 0.74680016E+02  0.35124E-03
 0.74730011E+02  0.39601E-03
 0.74780014E+02  0.39739E-03
 0.74830009E+02  0.35301E-03
 0.74880013E+02  0.25282E-03
 0.74930016E+02  0.13049E-03
 0.74980011E+02  0.47819E-04
 0.75030014E+02  0.60083E-05
 0.75080009E+02 -0.10477E-04
 0.75130013E+02 -0.38002E-04
 0.75180016E+02 -0.10757E-03
 0.75230011E+02 -0.18346E-03
 0.75280014E+02 -0.20496E-03
 0.75330009E+02 -0.11844E-03
 0.75380013E+02  0.31917E-04
 0.75430016E+02  0.15943E-03
 0.75480011E+02  0.22440E-03
 0.75530014E+02  0.20624E-03
 0.75580009E+02  0.12386E-03
 0.75630013E+02  0.17126E-04
 0.75680016E+02 -0.76275E-04
 0.75730011E+02 -0.12391E-03
 0.75780014E+02 -0.11694E-03
 0.75830009E+02 -0.89101E-04
 0.75880013E+02 -0.73088E-04
 0.75930016E+02 -0.39846E-04
 0.75980011E+02  0.14337E-04
 0.76030014E+02  0.47329E-04
 0.76080009E+02  0.58771E-04
 0.76130013E+02  0.34359E-04
 0.76180016E+02 -0.27331E-04
 0.76230011E+02 -0.78117E-04
 0.76280014E+02 -0.95869E-04
 0.76330009E+02 -0.99296E-04
 0.76380013E+02 -0.12231E-03
 0.76430016E+02 -0.14209E-03
 0.76480011E+02 -0.12635E-03
 0.76530014E+02 -0.53398E-04
 0.76580009E+02  0.70515E-04
 0.76630013E+02  0.16086E-03
 0.76680016E+02  0.17796E-03
 0.76730011E+02  0.13990E-03
 0.76780014E+02  0.82083E-04
 0.76830009E+02  0.30865E-04
 0.76880013E+02 -0.26572E-04
 0.76930016E+02 -0.85669E-04
 0.76980011E+02 -0.10324E-03
 0.77030014E+02 -0.29745E-04
 0.77080009E+02  0.10611E-03
 0.77130013E+02  0.19729E-03
 0.77180016E+02  0.17582E-03
 0.77230011E+02  0.64884E-04
 0.77280014E+02 -0.66301E-04
 0.77330009E+02 -0.16741E-03
 0.77380013E+02 -0.24564E-03
 0.77430016E+02 -0.32320E-03
 0.77480011E+02 -0.37324E-03
 0.77530014E+02 -0.36384E-03
 0.77580009E+02 -0.28115E-03
 0.77630013E+02 -0.12606E-03
 0.77680016E+02  0.53626E-04
 0.77730011E+02  0.19137E-03
 0.77780014E+02  0.24356E-03
 0.77830009E+02  0.21365E-03
 0.77880013E+02  0.16633E-03
 0.77930016E+02  0.16769E-03
 0.77980011E+02  0.20594E-03
 0.78030014E+02  0.22967E-03
 0.78080009E+02  0.21688E-03
 0.78130013E+02  0.16686E-03
 0.78180016E+02  0.11518E-03
 0.78230011E+02  0.92657E-04
 0.78280014E+02  0.60538E-04
 0.78330009E+02 -0.23894E-05
 0.78380013E+02 -0.54935E-04
 0.78430016E+02 -0.52439E-04
 0.78480011E+02 -0.79059E-05
 0.78530014E+02  0.23179E-04
 0.78580009E+02  0.13951E-04
 0.78630013E+02 -0.19261E-04
 0.78680016E+02 -0.23616E-04
 0.78730011E+02  0.12737E-04
 0.78780014E+02  0.52902E-04
 0.78830009E+02  0.82215E-04
 0.78880013E+02  0.76277E-04
 0.78930016E+02  0.15031E-04
 0.78980011E+02 -0.85005E-04
 0.79030014E+02 -0.18254E-03
 0.79080009E+02 -0.24118E-03
 0.79130013E+02 -0.25249E-03
 0.79180016E+02 -0.22284E-03
 0.79230011E+02 -0.19309E-03
 0.79280014E+02 -0.19061E-03
 0.79330009E+02 -0.19343E-03
 0.79380013E+02 -0.17967E-03
 0.79430016E+02 -0.13304E-03
 0.79480011E+02 -0.69286E-04
 0.79530014E+02 -0.74910E-05
 0.79580009E+02  0.74307E-04
 0.79630013E+02  0.16426E-03
 0.79680016E+02  0.23625E-03
 0.79730011E+02  0.28686E-03
 0.79780014E+02  0.30554E-03
 0.79830009E+02  0.30122E-03
 0.79880013E+02  0.27300E-03
 0.79930016E+02  0.20772E-03
 0.79980011E+02  0.13089E-03
 0.80030014E+02  0.70444E-04
 0.80080009E+02  0.32036E-04
 0.80130013E+02  0.99143E-05
 0.80180016E+02 -0.30158E-04
 0.80230011E+02 -0.10285E-03
 0.80280014E+02 -0.17223E-03
 0.80330009E+02 -0.21330E-03
 0.80380013E+02 -0.21139E-03
 0.80430016E+02 -0.16069E-03
 0.80480011E+02 -0.96750E-04
 0.80530014E+02 -0.69372E-04
 0.80580009E+02 -0.88550E-04
 0.80630013E+02 -0.13877E-03
 0.80680016E+02 -0.19642E-03
 0.80730011E+02 -0.21058E-03
 0.80780014E+02 -0.16925E-03
 0.80830009E+02 -0.10583E-03
 0.80880013E+02 -0.49489E-04
 0.80930016E+02 -0.81175E-05
 0.80980011E+02  0.48318E-04
 0.81030014E+02  0.12111E-03
 0.81080009E+02  0.16833E-03
 0.81130013E+02  0.15836E-03
 0.81180016E+02  0.95529E-04
 0.81230011E+02  0.36342E-04
 0.81280014E+02  0.31935E-04
 0.81330009E+02  0.57441E-04
 0.81380013E+02  0.73088E-04
 0.81430016E+02  0.91714E-04
 0.81480011E+02  0.11314E-03
 0.81530014E+02  0.11879E-03
 0.81580009E+02  0.11683E-03
 0.81630013E+02  0.11252E-03
 0.81680016E+02  0.10194E-03
 0.81730011E+02  0.85334E-04
 0.81780014E+02  0.61629E-04
 0.81830009E+02  0.25782E-04
 0.81880013E+02 -0.34293E-04
 0.81930016E+02 -0.12300E-03
 0.81980011E+02 -0.20706E-03
 0.82030014E+02 -0.25236E-03
 0.82080009E+02 -0.25648E-03
 0.82130013E+02 -0.21076E-03
 0.82180016E+02 -0.12608E-03
 0.82230011E+02 -0.47991E-04
 0.82280014E+02  0.99195E-05
 0.82330009E+02  0.47803E-04
 0.82380013E+02  0.68962E-04
 0.82430016E+02  0.99617E-04
 0.82480011E+02  0.12242E-03
 0.82530014E+02  0.11572E-03
 0.82580009E+02  0.11258E-03
 0.82630013E+02  0.12563E-03
 0.82680016E+02  0.14072E-03
 0.82730011E+02  0.16842E-03
 0.82780014E+02  0.20653E-03
 0.82830009E+02  0.22128E-03
 0.82880013E+02  0.19402E-03
 0.82930016E+02  0.12527E-03
 0.82980011E+02  0.44695E-04
 0.83030014E+02 -0.22612E-04
 0.83080009E+02 -0.90826E-04
 0.83130013E+02 -0.15391E-03
 0.83180016E+02 -0.19347E-03
 0.83230011E+02 -0.19687E-03
 0.83280014E+02 -0.15944E-03
 0.83330009E+02 -0.10064E-03
 0.83380013E+02 -0.41992E-04
 0.83430016E+02 -0.92543E-05
 0.83480011E+02 -0.20352E-04
 0.83530014E+02 -0.57883E-04
 0.83580009E+02 -0.82588E-04
 0.83630013E+02 -0.74555E-04
 0.83680016E+02 -0.52620E-04
 0.83730011E+02 -0.31742E-04
 0.83780014E+02 -0.29108E-05
 0.83830009E+02  0.38694E-04
 0.83880013E+02  0.88059E-04
 0.83930016E+02  0.12769E-03
 0.83980011E+02  0.13877E-03
 0.84030014E+02  0.11955E-03
 0.84080009E+02  0.80670E-04
 0.84130013E+02  0.26820E-04
 0.84180016E+02 -0.48991E-04
 0.84230011E+02 -0.13110E-03
 0.84280014E+02 -0.19101E-03
 0.84330009E+02 -0.22184E-03
 0.84380013E+02 -0.22167E-03
 0.84430016E+02 -0.19332E-03
 0.84480011E+02 -0.14542E-03
 0.84530014E+02 -0.70669E-04
 0.84580009E+02  0.27546E-04
 0.84630013E+02  0.11502E-03
 0.84680016E+02  0.16905E-03
 0.84730011E+02  0.17810E-03
 0.84780014E+02  0.13627E-03
 0.84830009E+02  0.74633E-04
 0.84880013E+02  0.23864E-04
 0.84930016E+02 -0.32063E-05
 0.84980011E+02 -0.53731E-05
 0.85030014E+02  0.26276E-05
 0.85080009E+02  0.11775E-04
 0.85130013E+02  0.82291E-05
 0.85180016E+02 -0.82282E-05
 0.85230011E+02 -0.25560E-04
 0.85280014E+02 -0.41181E-04
 0.85330009E+02 -0.44360E-04
 0.85380013E+02 -0.20418E-04
 0.85430016E+02  0.28714E-04
 0.85480011E+02  0.79018E-04
 0.85530014E+02  0.98369E-04
 0.85580009E+02  0.68316E-04
 0.85630013E+02  0.13538E-04
 0.85680016E+02 -0.37858E-04
 0.85730011E+02 -0.57945E-04
 0.85780014E+02 -0.22260E-04
 0.85830009E+02  0.29510E-04
 0.85880013E+02  0.63867E-04
 0.85930016E+02  0.74804E-04
 0.85980011E+02  0.41403E-04
 0.86030014E+02 -0.30630E-04
 0.86080009E+02 -0.10686E-03
 0.86130013E+02 -0.15877E-03
 0.86180016E+02 -0.16922E-03
 0.86230011E+02 -0.14633E-03
 0.86280014E+02 -0.10464E-03
 0.86330009E+02 -0.42842E-04
 0.86380013E+02  0.29951E-04
 0.86430016E+02  0.10533E-03
 0.86480011E+02  0.17641E-03
 0.86530014E+02  0.21815E-03
 0.86580009E+02  0.20820E-03
 0.86630013E+02  0.15606E-03
 0.86680016E+02  0.90858E-04
 0.86730011E+02  0.25648E-04
 0.86780014E+02 -0.36632E-04
 0.86830009E+02 -0.81888E-04
 0.86880013E+02 -0.95130E-04
 0.86930016E+02 -0.86950E-04
 0.86980011E+02 -0.82056E-04
 0.87030014E+02 -0.82347E-04
 0.87080009E+02 -0.90601E-04
 0.87130013E+02 -0.12287E-03
 0.87180016E+02 -0.15778E-03
 0.87230011E+02 -0.15719E-03
 0.87280014E+02 -0.12047E-03
 0.87330009E+02 -0.66717E-04
 0.87380013E+02 -0.12761E-04
 0.87430016E+02  0.32931E-04
 0.87480011E+02  0.84361E-04
 0.87530014E+02  0.15520E-03
 0.87580009E+02  0.23077E-03
 0.87630013E+02  0.27327E-03
 0.87680016E+02  0.26724E-03
 0.87730011E+02  0.23842E-03
 0.87780014E+02  0.20085E-03
 0.87830009E+02  0.16456E-03
 0.87880013E+02  0.13827E-03
 0.87930016E+02  0.10945E-03
 0.87980011E+02  0.73631E-04
 0.88030014E+02  0.27070E-04
 0.88080009E+02 -0.41107E-04
 0.88130013E+02 -0.12906E-03
 0.88180016E+02 -0.21666E-03
 0.88230011E+02 -0.27696E-03
 0.88280014E+02 -0.29051E-03
 0.88330009E+02 -0.26583E-03
 0.88380013E+02 -0.21800E-03
 0.88430016E+02 -0.15576E-03
 0.88480011E+02 -0.10482E-03
 0.88530014E+02 -0.69759E-04
 0.88580009E+02 -0.38782E-04
 0.88630013E+02 -0.61165E-05
 0.88680016E+02  0.34014E-04
 0.88730011E+02  0.71415E-04
 0.88780014E+02  0.99126E-04
 0.88830009E+02  0.11612E-03
 0.88880013E+02  0.11700E-03
 0.88930016E+02  0.10944E-03
 0.88980011E+02  0.11063E-03
 0.89030014E+02  0.11472E-03
 0.89080009E+02  0.92864E-04
 0.89130013E+02  0.32384E-04
 0.89180016E+02 -0.42707E-04
 0.89230011E+02 -0.99908E-04
 0.89280014E+02 -0.12016E-03
 0.89330009E+02 -0.98032E-04
 0.89380013E+02 -0.62051E-04
 0.89430016E+02 -0.50356E-04
 0.89480011E+02 -0.74487E-04
 0.89530014E+02 -0.10855E-03
 0.89580009E+02 -0.11143E-03
 0.89630013E+02 -0.81620E-04
 0.89680016E+02 -0.39888E-04
 0.89730011E+02  0.43253E-05
 0.89780014E+02  0.50178E-04
 0.89830009E+02  0.95201E-04
 0.89880013E+02  0.12764E-03
 0.89930016E+02  0.14406E-03
 0.89980011E+02  0.14329E-03
 0.90030014E+02  0.12388E-03
 0.90080009E+02  0.94245E-04
 0.90130013E+02  0.54788E-04
 0.90180016E+02  0.12357E-05
 0.90230011E+02 -0.50161E-04
 0.90280014E+02 -0.68803E-04
 0.90330009E+02 -0.39472E-04
 0.90380013E+02  0.22591E-04
 0.90430016E+02  0.79941E-04
 0.90480011E+02  0.97344E-04
 0.90530014E+02  0.62787E-04
 0.90580009E+02  0.49351E-05
 0.90630013E+02 -0.36865E-04
 0.90680016E+02 -0.52950E-04
 0.90730011E+02 -0.52711E-04
 0.90780014E+02 -0.58215E-04
 0.90830009E+02 -0.82474E-04
 0.90880013E+02 -0.11055E-03
 0.90930016E+02 -0.12032E-03
 0.90980011E+02 -0.99265E-04
 0.91030014E+02 -0.51749E-04
 0.91080009E+02 -0.35043E-05
 0.91130013E+02  0.17996E-04
 0.91180016E+02  0.13689E-04
 0.91230011E+02  0.76773E-05
 0.91280014E+02  0.10315E-04
 0.91330009E+02  0.17250E-04
 0.91380013E+02  0.26284E-04
 0.91430016E+02  0.31092E-04
 0.91480011E+02  0.25314E-04
 0.91530014E+02  0.47100E-05
 0.91580009E+02 -0.21321E-04
 0.91630013E+02 -0.34869E-04
 0.91680016E+02 -0.36677E-04
 0.91730011E+02 -0.36520E-04
 0.91780014E+02 -0.38889E-04
 0.91830009E+02 -0.36833E-04
 0.91880013E+02 -0.19095E-04
 0.91930016E+02  0.11476E-04
 0.91980011E+02  0.45093E-04
 0.92030014E+02  0.71060E-04
 0.92080009E+02  0.82074E-04
 0.92130013E+02  0.77425E-04
 0.92180016E+02  0.61954E-04
 0.92230011E+02  0.49834E-04
 0.92280014E+02  0.43875E-04
 0.92330009E+02  0.43145E-04
 0.92380013E+02  0.51795E-04
 0.92430016E+02  0.58283E-04
 0.92480011E+02  0.51908E-04
 0.92530014E+02  0.36776E-04
 0.92580009E+02  0.23705E-04
 0.92630013E+02  0.11443E-04
 0.92680016E+02 -0.12276E-04
 0.92730011E+02 -0.42405E-04
 0.92780014E+02 -0.58038E-04
 0.92830009E+02 -0.49454E-04
 0.92880013E+02 -0.30138E-04
 0.92930016E+02 -0.16974E-04
 0.92980011E+02 -0.17479E-04
 0.93030014E+02 -0.32238E-04
 0.93080009E+02 -0.49510E-04
 0.93130013E+02 -0.57181E-04
 0.93180016E+02 -0.59114E-04
 0.93230011E+02 -0.64795E-04
 0.93280014E+02 -0.73764E-04
 0.93330009E+02 -0.74695E-04
 0.93380013E+02 -0.62092E-04
 0.93430016E+02 -0.39145E-04
 0.93480011E+02 -0.15145E-04
 0.93530014E+02 -0.29680E-05
 0.93580009E+02  0.21915E-05
 0.93630013E+02  0.66467E-05
 0.93680016E+02  0.14495E-04
 0.93730011E+02  0.39706E-04
 0.93780014E+02  0.80045E-04
 0.93830009E+02  0.11317E-03
 0.93880013E+02  0.12212E-03
 0.93930016E+02  0.11489E-03
 0.93980011E+02  0.10003E-03
 0.94030014E+02  0.79981E-04
 0.94080009E+02  0.65126E-04
 0.94130013E+02  0.45636E-04
 0.94180016E+02  0.62336E-05
 0.94230011E+02 -0.38141E-04
 0.94280014E+02 -0.62479E-04
 0.94330009E+02 -0.66192E-04
 0.94380013E+02 -0.64200E-04
 0.94430016E+02 -0.62457E-04
 0.94480011E+02 -0.61208E-04
 0.94530014E+02 -0.58851E-04
 0.94580009E+02 -0.49256E-04
 0.94630013E+02 -0.31214E-04
 0.94680016E+02 -0.23225E-04
 0.94730011E+02 -0.36411E-04
 0.94780014E+02 -0.47848E-04
 0.94830009E+02 -0.41809E-04
 0.94880013E+02 -0.30590E-04
 0.94930016E+02 -0.18570E-04
 0.94980011E+02  0.37440E-05
 0.95030014E+02  0.39276E-04
 0.95080009E+02  0.81326E-04
 0.95130013E+02  0.11334E-03
 0.95180016E+02  0.12202E-03
 0.95230011E+02  0.10164E-03
 0.95280014E+02  0.54837E-04
 0.95330009E+02  0.10223E-04
 0.95380013E+02 -0.15013E-04
 0.95430016E+02 -0.28340E-04
 0.95480011E+02 -0.31764E-04
 0.95530014E+02 -0.33001E-04
 0.95580009E+02 -0.38210E-04
 0.95630013E+02 -0.50059E-04
 0.95680016E+02 -0.63238E-04
 0.95730011E+02 -0.65153E-04
 0.95780014E+02 -0.58884E-04
 0.95830009E+02 -0.41753E-04
 0.95880013E+02 -0.13650E-04
 0.95930016E+02  0.15807E-04
 0.95980011E+02  0.46270E-04
 0.96030014E+02  0.70848E-04
 0.96080009E+02  0.78649E-04
 0.96130013E+02  0.63936E-04
 0.96180016E+02  0.34896E-04
 0.96230011E+02  0.12791E-04
 0.96280014E+02  0.11790E-04
 0.96330009E+02  0.25182E-04
 0.96380013E+02  0.30638E-04
 0.96430016E+02  0.21853E-04
 0.96480011E+02  0.48048E-05
 0.96530014E+02 -0.16409E-04
 0.96580009E+02 -0.34019E-04
 0.96630013E+02 -0.38281E-04
 0.96680016E+02 -0.22908E-04
 0.96730011E+02 -0.18733E-05
 0.96780014E+02  0.72605E-05
 0.96830009E+02  0.78281E-05
 0.96880013E+02  0.81230E-05
 0.96930016E+02  0.14162E-04
 0.96980011E+02  0.28950E-04
 0.97030014E+02  0.41578E-04
 0.97080009E+02  0.40436E-04
 0.97130013E+02  0.24430E-04
 0.97180016E+02 -0.62711E-05
 0.97230011E+02 -0.44346E-04
 0.97280014E+02 -0.78342E-04
 0.97330009E+02 -0.99081E-04
 0.97380013E+02 -0.91276E-04
 0.97430016E+02 -0.60587E-04
 0.97480011E+02 -0.42588E-04
 0.97530014E+02 -0.50332E-04
 0.97580009E+02 -0.66563E-04
 0.97630013E+02 -0.73422E-04
 0.97680016E+02 -0.68654E-04
 0.97730011E+02 -0.64200E-04
 0.97780014E+02 -0.54004E-04
 0.97830009E+02 -0.27569E-04
 0.97880013E+02  0.78348E-05
 0.97930016E+02  0.42232E-04
 0.97980011E+02  0.66895E-04
 0.98030014E+02  0.78529E-04
 0.98080009E+02  0.78193E-04
 0.98130013E+02  0.79147E-04
 0.98180016E+02  0.87406E-04
 0.98230011E+02  0.93389E-04
 0.98280014E+02  0.91393E-04
 0.98330009E+02  0.74876E-04
 0.98380013E+02  0.50786E-04
 0.98430016E+02  0.23696E-04
 0.98480011E+02 -0.12683E-04
 0.98530014E+02 -0.57197E-04
 0.98580009E+02 -0.98208E-04
 0.98630013E+02 -0.11946E-03
 0.98680016E+02 -0.11189E-03
 0.98730011E+02 -0.69444E-04
 0.98780014E+02 -0.69214E-05
 0.98830009E+02  0.47892E-04
 0.98880013E+02  0.76870E-04
 0.98930016E+02  0.81060E-04
 0.98980011E+02  0.79421E-04
 0.99030014E+02  0.75034E-04
 0.99080009E+02  0.68786E-04
 0.99130013E+02  0.65252E-04
 0.99180016E+02  0.52124E-04
 0.99230011E+02  0.27307E-04
 0.99280014E+02  0.41470E-05
 0.99330009E+02 -0.15896E-04
 0.99380013E+02 -0.38664E-04
 0.99430016E+02 -0.62100E-04
 0.99480011E+02 -0.82293E-04
 0.99530014E+02 -0.95410E-04
 0.99580009E+02 -0.96556E-04
 0.99630013E+02 -0.90098E-04
 0.99680016E+02 -0.82828E-04
 0.99730011E+02 -0.71855E-04
 0.99780014E+02 -0.50385E-04
 0.99830009E+02 -0.16161E-04
 0.99880013E+02  0.19806E-04
 0.99930016E+02  0.48207E-04
 0.99980011E+02  0.68748E-04
 0.10003001E+03  0.76145E-04
 0.10008001E+03  0.74374E-04
 0.10013001E+03  0.73510E-04
 0.10018002E+03  0.73793E-04
 0.10023001E+03  0.67550E-04
 0.10028001E+03  0.46703E-04
 0.10033001E+03  0.15694E-04
 0.10038001E+03 -0.11492E-04
 0.10043002E+03 -0.21510E-04
 0.10048001E+03 -0.11544E-04
 0.10053001E+03  0.58939E-05
 0.10058001E+03  0.13311E-04
 0.10063001E+03  0.84277E-05
 0.10068002E+03  0.27990E-05
 0.10073001E+03 -0.11286E-05
 0.10078001E+03 -0.93688E-05
 0.10083001E+03 -0.21177E-04
 0.10088001E+03 -0.29648E-04
 0.10093002E+03 -0.32499E-04
 0.10098001E+03 -0.32167E-04
 0.10103001E+03 -0.32521E-04
 0.10108001E+03 -0.30100E-04
 0.10113001E+03 -0.16352E-04
 0.10118002E+03  0.10325E-05
 0.10123001E+03  0.91118E-05
 0.10128001E+03  0.55441E-05
 0.10133001E+03  0.29455E-06
 0.10138001E+03  0.84317E-05
 0.10143002E+03  0.28164E-04
 0.10148001E+03  0.47039E-04
 0.10153001E+03  0.51658E-04
 0.10158001E+03  0.39059E-04
 0.10163001E+03  0.22063E-04
 0.10168002E+03  0.38526E-05
 0.10173001E+03 -0.19905E-04
 0.10178001E+03 -0.48337E-04
 0.10183001E+03 -0.79125E-04
 0.10188001E+03 -0.10390E-03
 0.10193002E+03 -0.10832E-03
 0.10198001E+03 -0.83196E-04
 0.10203001E+03 -0.35312E-04
 0.10208001E+03  0.13997E-04
 0.10213001E+03  0.46760E-04
 0.10218002E+03  0.57738E-04
 0.10223001E+03  0.52448E-04
 0.10228001E+03  0.39718E-04
 0.10233001E+03  0.22478E-04
 0.10238001E+03  0.80323E-05
 0.10243002E+03  0.44752E-05
 0.10248001E+03  0.31892E-05
 0.10253001E+03 -0.78132E-05
 0.10258001E+03 -0.30772E-04
 0.10263001E+03 -0.58826E-04
 0.10268002E+03 -0.78456E-04
 0.10273001E+03 -0.75242E-04
 0.10278001E+03 -0.48446E-04
 0.10283001E+03 -0.10324E-04
 0.10288001E+03  0.35078E-04
 0.10293002E+03  0.81678E-04
 0.10298001E+03  0.11998E-03
 0.10303001E+03  0.14898E-03
 0.10308001E+03  0.16649E-03
 0.10313001E+03  0.16872E-03
 0.10318002E+03  0.15230E-03
 0.10323001E+03  0.11524E-03
 0.10328001E+03  0.65259E-04
 0.10333001E+03  0.13491E-04
 0.10338001E+03 -0.38168E-04
 0.10343002E+03 -0.85775E-04
 0.10348001E+03 -0.12154E-03
 0.10353001E+03 -0.14500E-03
 0.10358001E+03 -0.15794E-03
 0.10363001E+03 -0.15984E-03
 0.10368002E+03 -0.15187E-03
 0.10373001E+03 -0.13869E-03
 0.10378001E+03 -0.11893E-03
 0.10383001E+03 -0.89420E-04
 0.10388001E+03 -0.56033E-04
 0.10393002E+03 -0.28531E-04
 0.10398001E+03 -0.87625E-05
 0.10403001E+03  0.15036E-04
 0.10408001E+03  0.46658E-04
 0.10413001E+03  0.79112E-04
 0.10418002E+03  0.10762E-03
 0.10423001E+03  0.12539E-03
 0.10428001E+03  0.12930E-03
 0.10433001E+03  0.11856E-03
 0.10438001E+03  0.97758E-04
 0.10443002E+03  0.73485E-04
 0.10448001E+03  0.44365E-04
 0.10453001E+03  0.11783E-04
 0.10458001E+03 -0.21004E-04
 0.10463001E+03 -0.50377E-04
 0.10468002E+03 -0.66001E-04
 0.10473001E+03 -0.66113E-04
 0.10478001E+03 -0.62641E-04
 0.10483001E+03 -0.52552E-04
 0.10488001E+03 -0.29517E-04
 0.10493002E+03 -0.76326E-07
 0.10498001E+03  0.30789E-04
 0.10503001E+03  0.53321E-04
 0.10508001E+03  0.63446E-04
 0.10513001E+03  0.62258E-04
 0.10518002E+03  0.49356E-04
 0.10523001E+03  0.31914E-04
 0.10528001E+03  0.15643E-04
 0.10533001E+03  0.89993E-06
 0.10538001E+03 -0.11013E-04
 0.10543002E+03 -0.19800E-04
 0.10548001E+03 -0.30308E-04
 0.10553001E+03 -0.46450E-04
 0.10558001E+03 -0.66298E-04
 0.10563001E+03 -0.79354E-04
 0.10568002E+03 -0.77016E-04
 0.10573001E+03 -0.58266E-04
 0.10578001E+03 -0.28785E-04
 0.10583001E+03 -0.45089E-05
 0.10588001E+03  0.10464E-04
 0.10593002E+03  0.24370E-04
 0.10598001E+03  0.38110E-04
 0.10603001E+03  0.47559E-04
 0.10608001E+03  0.47509E-04
 0.10613001E+03  0.36627E-04
 0.10618002E+03  0.21487E-04
 0.10623001E+03  0.11582E-04
 0.10628001E+03  0.76036E-05
 0.10633001E+03  0.45923E-05
 0.10638001E+03  0.39178E-05
 0.10643002E+03  0.77324E-05
 0.10648001E+03  0.15554E-04
 0.10653001E+03  0.25401E-04
 0.10658001E+03  0.35196E-04
 0.10663001E+03  0.43932E-04
 0.10668002E+03  0.45607E-04
 0.10673001E+03  0.29946E-04
 0.10678001E+03 -0.70039E-05
 0.10683001E+03 -0.51912E-04
 0.10688001E+03 -0.86523E-04
 0.10693002E+03 -0.10155E-03
 0.10698001E+03 -0.90733E-04
 0.10703001E+03 -0.58690E-04
 0.10708001E+03 -0.20210E-04
 0.10713001E+03  0.14241E-04
 0.10718002E+03  0.37547E-04
 0.10723001E+03  0.43330E-04
 0.10728001E+03  0.30899E-04
 0.10733001E+03  0.93763E-05
 0.10738001E+03 -0.10008E-04
 0.10743002E+03 -0.23007E-04
 0.10748001E+03 -0.29647E-04
 0.10753001E+03 -0.34158E-04
 0.10758001E+03 -0.42147E-04
 0.10763001E+03 -0.52136E-04
 0.10768002E+03 -0.58251E-04
 0.10773001E+03 -0.54221E-04
 0.10778001E+03 -0.37543E-04
 0.10783001E+03 -0.10710E-04
 0.10788001E+03  0.19859E-04
 0.10793002E+03  0.44902E-04
 0.10798001E+03  0.62920E-04
 0.10803001E+03  0.77192E-04
 0.10808001E+03  0.88610E-04
 0.10813001E+03  0.96604E-04
 0.10818002E+03  0.98554E-04
 0.10823001E+03  0.91437E-04
 0.10828001E+03  0.74354E-04
 0.10833001E+03  0.53949E-04
 0.10838001E+03  0.36877E-04
 0.10843002E+03  0.20524E-04
 0.10848001E+03 -0.84282E-06
 0.10853001E+03 -0.26201E-04
 0.10858001E+03 -0.46253E-04
 0.10863001E+03 -0.58824E-04
 0.10868002E+03 -0.70661E-04
 0.10873001E+03 -0.84774E-04
 0.10878001E+03 -0.96283E-04
 0.10883001E+03 -0.94029E-04
 0.10888001E+03 -0.72891E-04
 0.10893002E+03 -0.39800E-04
 0.10898001E+03 -0.73424E-05
 0.10903001E+03  0.17965E-04
 0.10908001E+03  0.40496E-04
 0.10913001E+03  0.63525E-04
 0.10918002E+03  0.80713E-04
 0.10923001E+03  0.83051E-04
 0.10928001E+03  0.72001E-04
 0.10933001E+03  0.50666E-04
 0.10938001E+03  0.21023E-04
 0.10943002E+03 -0.73825E-05
 0.10948001E+03 -0.29021E-04
 0.10953001E+03 -0.38759E-04
 0.10958001E+03 -0.32644E-04
 0.10963001E+03 -0.17104E-04
 0.10968002E+03 -0.89531E-06
 0.10973001E+03  0.99609E-05
 0.10978001E+03  0.14619E-04
 0.10983001E+03  0.14289E-04
 0.10988001E+03  0.97529E-05
 0.10993002E+03 -0.12478E-05
 0.10998001E+03 -0.19090E-04
 0.11003001E+03 -0.36065E-04
 0.11008001E+03 -0.48580E-04
 0.11013001E+03 -0.60665E-04
 0.11018002E+03 -0.73117E-04
 0.11023001E+03 -0.78701E-04
 0.11028001E+03 -0.71361E-04
 0.11033001E+03 -0.51108E-04
 0.11038001E+03 -0.24192E-04
 0.11043002E+03  0.25419E-05
 0.11048001E+03  0.29630E-04
 0.11053001E+03  0.56495E-04
 0.11058001E+03  0.77761E-04
 0.11063001E+03  0.85689E-04
 0.11068002E+03  0.78044E-04
 0.11073001E+03  0.61756E-04
 0.11078001E+03  0.42895E-04
 0.11083001E+03  0.21034E-04
 0.11088001E+03 -0.64910E-05
 0.11093002E+03 -0.35041E-04
 0.11098001E+03 -0.59002E-04
 0.11103001E+03 -0.75891E-04
 0.11108001E+03 -0.80568E-04
 0.11113001E+03 -0.70250E-04
 0.11118002E+03 -0.47817E-04
 0.11123001E+03 -0.19578E-04
 0.11128001E+03  0.77990E-05
 0.11133001E+03  0.24879E-04
 0.11138001E+03  0.28853E-04
 0.11143002E+03  0.28731E-04
 0.11148001E+03  0.27636E-04
 0.11153001E+03  0.24584E-04
 0.11158001E+03  0.20688E-04
 0.11163001E+03  0.17156E-04
 0.11168002E+03  0.14359E-04
 0.11173001E+03  0.12380E-04
 0.11178001E+03  0.17364E-04
 0.11183001E+03  0.33993E-04
 0.11188001E+03  0.58370E-04
 0.11193002E+03  0.81954E-04
 0.11198001E+03  0.93975E-04
 0.11203001E+03  0.85758E-04
 0.11208001E+03  0.60605E-04
 0.11213001E+03  0.30932E-04
 0.11218002E+03  0.39427E-05
 0.11223001E+03 -0.17941E-04
 0.11228001E+03 -0.35652E-04
 0.11233001E+03 -0.51718E-04
 0.11238001E+03 -0.65152E-04
 0.11243002E+03 -0.73062E-04
 0.11248001E+03 -0.70707E-04
 0.11253001E+03 -0.55596E-04
 0.11258001E+03 -0.35421E-04
 0.11263001E+03 -0.24092E-04
 0.11268002E+03 -0.30532E-04
 0.11273001E+03 -0.51646E-04
 0.11278001E+03 -0.72409E-04
 0.11283001E+03 -0.80623E-04
 0.11288001E+03 -0.74653E-04
 0.11293002E+03 -0.54859E-04
 0.11298001E+03 -0.22362E-04
 0.11303001E+03  0.15698E-04
 0.11308001E+03  0.48178E-04
 0.11313001E+03  0.65013E-04
 0.11318002E+03  0.62495E-04
 0.11323001E+03  0.47096E-04
 0.11328001E+03  0.26305E-04
 0.11333001E+03  0.63951E-05
 0.11338001E+03 -0.59129E-05
 0.11343002E+03 -0.11222E-04
 0.11348001E+03 -0.14279E-04
 0.11353001E+03 -0.18711E-04
 0.11358001E+03 -0.24985E-04
 0.11363001E+03 -0.28245E-04
 0.11368002E+03 -0.21870E-04
 0.11373001E+03 -0.16752E-05
 0.11378001E+03  0.28195E-04
 0.11383001E+03  0.55100E-04
 0.11388001E+03  0.69387E-04
 0.11393002E+03  0.72441E-04
 0.11398001E+03  0.68564E-04
 0.11403001E+03  0.58121E-04
 0.11408001E+03  0.42144E-04
 0.11413001E+03  0.22835E-04
 0.11418002E+03  0.41855E-05
 0.11423001E+03 -0.10875E-04
 0.11428001E+03 -0.21298E-04
 0.11433001E+03 -0.22707E-04
 0.11438001E+03 -0.11834E-04
 0.11443002E+03  0.89250E-05
 0.11448001E+03  0.32981E-04
 0.11453001E+03  0.49661E-04
 0.11458001E+03  0.45097E-04
 0.11463001E+03  0.16956E-04
 0.11468002E+03 -0.20794E-04
 0.11473001E+03 -0.55233E-04
 0.11478001E+03 -0.79050E-04
 0.11483001E+03 -0.88736E-04
 0.11488001E+03 -0.85516E-04
 0.11493002E+03 -0.70859E-04
 0.11498001E+03 -0.45618E-04
 0.11503001E+03 -0.14245E-04
 0.11508001E+03  0.14879E-04
 0.11513001E+03  0.34566E-04
 0.11518002E+03  0.42884E-04
 0.11523001E+03  0.43659E-04
 0.11528001E+03  0.43225E-04
 0.11533001E+03  0.45637E-04
 0.11538001E+03  0.49487E-04
 0.11543002E+03  0.49747E-04
 0.11548001E+03  0.41085E-04
 0.11553001E+03  0.23615E-04
 0.11558001E+03  0.41103E-05
 0.11563001E+03 -0.11402E-04
 0.11568002E+03 -0.16601E-04
 0.11573001E+03 -0.11055E-04
 0.11578001E+03 -0.48493E-05
 0.11583001E+03 -0.46468E-05
 0.11588001E+03 -0.90882E-05
 0.11593002E+03 -0.16712E-04
 0.11598001E+03 -0.30606E-04
 0.11603001E+03 -0.49056E-04
 0.11608001E+03 -0.62450E-04
 0.11613001E+03 -0.64448E-04
 0.11618002E+03 -0.53668E-04
 0.11623001E+03 -0.32393E-04
 0.11628001E+03 -0.89906E-05
 0.11633001E+03  0.61811E-05
 0.11638001E+03  0.12029E-04
 0.11643002E+03  0.13181E-04
 0.11648001E+03  0.11444E-04
 0.11653001E+03  0.67171E-05
 0.11658001E+03 -0.39128E-05
 0.11663001E+03 -0.19744E-04
 0.11668002E+03 -0.34185E-04
 0.11673001E+03 -0.40263E-04
 0.11678001E+03 -0.33642E-04
 0.11683001E+03 -0.14011E-04
 0.11688001E+03  0.14529E-04
 0.11693002E+03  0.44256E-04
 0.11698001E+03  0.68632E-04
 0.11703001E+03  0.83462E-04
 0.11708001E+03  0.88179E-04
 0.11713001E+03  0.84892E-04
 0.11718002E+03  0.72290E-04
 0.11723001E+03  0.49193E-04
 0.11728001E+03  0.20214E-04
 0.11733001E+03 -0.77114E-05
 0.11738001E+03 -0.28224E-04
 0.11743002E+03 -0.38559E-04
 0.11748001E+03 -0.41214E-04
 0.11753001E+03 -0.35702E-04
 0.11758001E+03 -0.19540E-04
 0.11763001E+03  0.43896E-05
 0.11768002E+03  0.28471E-04
 0.11773001E+03  0.43029E-04
 0.11778001E+03  0.42086E-04
 0.11783001E+03  0.27789E-04
 0.11788001E+03  0.82887E-05
 0.11793002E+03 -0.89191E-05
 0.11798001E+03 -0.18963E-04
 0.11803001E+03 -0.21761E-04
 0.11808001E+03 -0.21428E-04
 0.11813001E+03 -0.20319E-04
 0.11818002E+03 -0.19718E-04
 0.11823001E+03 -0.20739E-04
 0.11828001E+03 -0.23709E-04
 0.11833001E+03 -0.28084E-04
 0.11838001E+03 -0.31554E-04
 0.11843002E+03 -0.31010E-04
 0.11848001E+03 -0.25850E-04
 0.11853001E+03 -0.16274E-04
 0.11858001E+03 -0.35340E-05
 0.11863001E+03  0.10502E-04
 0.11868002E+03  0.24189E-04
 0.11873001E+03  0.33985E-04
 0.11878001E+03  0.39078E-04
 0.11883001E+03  0.39840E-04
 0.11888001E+03  0.35354E-04
 0.11893002E+03  0.27342E-04
 0.11898001E+03  0.20886E-04
 0.11903001E+03  0.14383E-04
 0.11908001E+03  0.23521E-05
 0.11913001E+03 -0.14164E-04
 0.11918002E+03 -0.34312E-04
 0.11923001E+03 -0.54546E-04
 0.11928001E+03 -0.67070E-04
 0.11933001E+03 -0.66065E-04
 0.11938001E+03 -0.49960E-04
 0.11943002E+03 -0.23133E-04
 0.11948001E+03  0.53414E-05
 0.11953001E+03  0.24514E-04
 0.11958001E+03  0.29682E-04
 0.11963001E+03  0.24138E-04
 0.11968002E+03  0.13187E-04
 0.11973001E+03  0.21423E-05
 0.11978001E+03 -0.61584E-05
 0.11983001E+03 -0.12040E-04
 0.11988001E+03 -0.15127E-04
 0.11993002E+03 -0.13463E-04
 0.11998001E+03 -0.75944E-05
 0.12003001E+03  0.35155E-06
 0.12008001E+03  0.12229E-04
 0.12013001E+03  0.26584E-04
 0.12018002E+03  0.34792E-04
 0.12023001E+03  0.31501E-04
 0.12028001E+03  0.15259E-04
 0.12033001E+03 -0.11736E-04
 0.12038001E+03 -0.41020E-04
 0.12043002E+03 -0.63768E-04
 0.12048001E+03 -0.71958E-04
 0.12053001E+03 -0.63328E-04
 0.12058001E+03 -0.46363E-04
 0.12063001E+03 -0.27563E-04
 0.12068002E+03 -0.67073E-05
 0.12073001E+03  0.16557E-04
 0.12078001E+03  0.39636E-04
 0.12083001E+03  0.58009E-04
 0.12088001E+03  0.68440E-04
 0.12093002E+03  0.70827E-04
 0.12098001E+03  0.66559E-04
 0.12103001E+03  0.55859E-04
 0.12108001E+03  0.40855E-04
 0.12113001E+03  0.26513E-04
 0.12118002E+03  0.18099E-04
 0.12123001E+03  0.15190E-04
 0.12128001E+03  0.10737E-04
 0.12133001E+03 -0.11733E-05
 0.12138001E+03 -0.18426E-04
 0.12143002E+03 -0.30051E-04
 0.12148001E+03 -0.28900E-04
 0.12153001E+03 -0.17915E-04
 0.12158001E+03 -0.27925E-05
 0.12163001E+03  0.11516E-04
 0.12168002E+03  0.19098E-04
 0.12173001E+03  0.17155E-04
 0.12178001E+03  0.93283E-05
 0.12183001E+03 -0.19089E-05
 0.12188001E+03 -0.16283E-04
 0.12193002E+03 -0.33547E-04
 0.12198001E+03 -0.53196E-04
 0.12203001E+03 -0.67999E-04
 0.12208001E+03 -0.67723E-04
 0.12213001E+03 -0.50140E-04
 0.12218002E+03 -0.23525E-04
 0.12223001E+03  0.90792E-06
 0.12228001E+03  0.16761E-04
 0.12233001E+03  0.22475E-04
 0.12238001E+03  0.21311E-04
 0.12243002E+03  0.17147E-04
 0.12248001E+03  0.10726E-04
 0.12253001E+03  0.16357E-05
 0.12258001E+03 -0.71839E-05
 0.12263001E+03 -0.10242E-04
 0.12268002E+03 -0.68406E-05
 0.12273001E+03  0.28849E-07
 0.12278001E+03  0.62103E-05
 0.12283001E+03  0.79309E-05
 0.12288001E+03  0.34763E-05
 0.12293002E+03 -0.41862E-05
 0.12298001E+03 -0.58193E-05
 0.12303001E+03  0.45878E-05
 0.12308001E+03  0.22590E-04
 0.12313001E+03  0.38529E-04
 0.12318002E+03  0.45560E-04
 0.12323001E+03  0.42209E-04
 0.12328001E+03  0.31628E-04
 0.12333001E+03  0.19723E-04
 0.12338001E+03  0.11064E-04
 0.12343002E+03  0.55984E-05
 0.12348001E+03  0.23899E-06
 0.12353001E+03 -0.71710E-05
 0.12358001E+03 -0.15317E-04
 0.12363001E+03 -0.22219E-04
 0.12368002E+03 -0.27663E-04
 0.12373001E+03 -0.29729E-04
 0.12378001E+03 -0.26840E-04
 0.12383001E+03 -0.21482E-04
 0.12388001E+03 -0.16339E-04
 0.12393002E+03 -0.12494E-04
 0.12398001E+03 -0.90186E-05
 0.12403001E+03 -0.14769E-05
 0.12408001E+03  0.10088E-04
 0.12413001E+03  0.19378E-04
 0.12418002E+03  0.23139E-04
 0.12423001E+03  0.20802E-04
 0.12428001E+03  0.13986E-04
 0.12433001E+03  0.61586E-05
 0.12438001E+03 -0.31616E-05
 0.12443002E+03 -0.16023E-04
 0.12448001E+03 -0.30585E-04
 0.12453001E+03 -0.39048E-04
 0.12458001E+03 -0.35200E-04
 0.12463001E+03 -0.22180E-04
 0.12468002E+03 -0.67669E-05
 0.12473001E+03  0.42987E-05
 0.12478001E+03  0.98416E-05
 0.12483001E+03  0.16371E-04
 0.12488001E+03  0.27376E-04
 0.12493002E+03  0.37565E-04
 0.12498001E+03  0.39027E-04
 0.12503001E+03  0.30107E-04
 0.12508001E+03  0.16297E-04
 0.12513001E+03  0.55347E-05
 0.12518002E+03  0.23880E-05
 0.12523001E+03  0.68961E-05
 0.12528001E+03  0.14900E-04
 0.12533001E+03  0.19513E-04
 0.12538001E+03  0.17522E-04
 0.12543002E+03  0.10229E-04
 0.12548001E+03  0.11082E-05
 0.12553001E+03 -0.70212E-05
 0.12558001E+03 -0.15024E-04
 0.12563001E+03 -0.24344E-04
 0.12568002E+03 -0.34428E-04
 0.12573001E+03 -0.42665E-04
 0.12578001E+03 -0.45124E-04
 0.12583001E+03 -0.42285E-04
 0.12588001E+03 -0.37487E-04
 0.12593002E+03 -0.31234E-04
 0.12598001E+03 -0.24066E-04
 0.12603001E+03 -0.17715E-04
 0.12608001E+03 -0.12767E-04
 0.12613001E+03 -0.89365E-05
 0.12618002E+03 -0.54347E-05
 0.12623001E+03 -0.12600E-05
 0.12628001E+03  0.28440E-05
 0.12633001E+03  0.81768E-05
 0.12638001E+03  0.17434E-04
 0.12643002E+03  0.30677E-04
 0.12648001E+03  0.45549E-04
 0.12653001E+03  0.54463E-04
 0.12658001E+03  0.52621E-04
 0.12663001E+03  0.40766E-04
 0.12668002E+03  0.22285E-04
 0.12673001E+03  0.47001E-05
 0.12678001E+03 -0.89236E-05
 0.12683001E+03 -0.18812E-04
 0.12688001E+03 -0.24779E-04
 0.12693002E+03 -0.26570E-04
 0.12698001E+03 -0.21167E-04
 0.12703001E+03 -0.85107E-05
 0.12708001E+03  0.70178E-05
 0.12713001E+03  0.20564E-04
 0.12718002E+03  0.27500E-04
 0.12723001E+03  0.25110E-04
 0.12728001E+03  0.16773E-04
 0.12733001E+03  0.99626E-05
 0.12738001E+03  0.84037E-05
 0.12743002E+03  0.11301E-04
 0.12748001E+03  0.17008E-04
 0.12753001E+03  0.24917E-04
 0.12758001E+03  0.30607E-04
 0.12763001E+03  0.27671E-04
 0.12768002E+03  0.15943E-04
 0.12773001E+03 -0.83716E-06
 0.12778001E+03 -0.16711E-04
 0.12783001E+03 -0.26867E-04
 0.12788001E+03 -0.32996E-04
 0.12793002E+03 -0.38569E-04
 0.12798001E+03 -0.42145E-04
 0.12803001E+03 -0.40875E-04
 0.12808002E+03 -0.34786E-04
 0.12813002E+03 -0.23527E-04
 0.12818001E+03 -0.78622E-05
 0.12823001E+03  0.82254E-05
 0.12828001E+03  0.20260E-04
 0.12833002E+03  0.24444E-04
 0.12838002E+03  0.18946E-04
 0.12843001E+03  0.54249E-05
 0.12848001E+03 -0.87954E-05
 0.12853001E+03 -0.16782E-04
 0.12858002E+03 -0.17858E-04
 0.12863002E+03 -0.12054E-04
 0.12868001E+03  0.22372E-06
 0.12873001E+03  0.16210E-04
 0.12878001E+03  0.29433E-04
 0.12883002E+03  0.34172E-04
 0.12888002E+03  0.30248E-04
 0.12893001E+03  0.18108E-04
 0.12898001E+03  0.15181E-05
 0.12903001E+03 -0.12686E-04
 0.12908002E+03 -0.21263E-04
 0.12913002E+03 -0.25426E-04
 0.12918001E+03 -0.27813E-04
 0.12923001E+03 -0.28724E-04
 0.12928001E+03 -0.28434E-04
 0.12933002E+03 -0.28595E-04
 0.12938002E+03 -0.28513E-04
 0.12943001E+03 -0.24787E-04
 0.12948001E+03 -0.16173E-04
 0.12953001E+03 -0.38238E-05
 0.12958002E+03  0.94010E-05
 0.12963002E+03  0.16815E-04
 0.12968001E+03  0.15453E-04
 0.12973001E+03  0.99608E-05
 0.12978001E+03  0.68033E-05
 0.12983002E+03  0.87879E-05
 0.12988002E+03  0.12584E-04
 0.12993001E+03  0.13485E-04
 0.12998001E+03  0.11314E-04
 0.13003001E+03  0.95608E-05
 0.13008002E+03  0.97836E-05
 0.13013002E+03  0.12247E-04
 0.13018001E+03  0.15576E-04
 0.13023001E+03  0.16642E-04
 0.13028001E+03  0.16327E-04
 0.13033002E+03  0.15930E-04
 0.13038002E+03  0.15682E-04
 0.13043001E+03  0.16286E-04
 0.13048001E+03  0.17474E-04
 0.13053001E+03  0.19446E-04
 0.13058002E+03  0.21424E-04
 0.13063002E+03  0.21136E-04
 0.13068001E+03  0.17262E-04
 0.13073001E+03  0.11840E-04
 0.13078001E+03  0.70163E-05
 0.13083002E+03  0.94237E-06
 0.13088002E+03 -0.76991E-05
 0.13093001E+03 -0.17929E-04
 0.13098001E+03 -0.28387E-04
 0.13103001E+03 -0.36015E-04
 0.13108002E+03 -0.38460E-04
 0.13113002E+03 -0.35515E-04
 0.13118001E+03 -0.27811E-04
 0.13123001E+03 -0.18107E-04
 0.13128001E+03 -0.82210E-05
 0.13133002E+03  0.66204E-06
 0.13138002E+03  0.68040E-05
 0.13143001E+03  0.10642E-04
 0.13148001E+03  0.12780E-04
 0.13153001E+03  0.13953E-04
 0.13158002E+03  0.14457E-04
 0.13163002E+03  0.13865E-04
 0.13168001E+03  0.12356E-04
 0.13173001E+03  0.10293E-04
 0.13178001E+03  0.95041E-05
 0.13183002E+03  0.10465E-04
 0.13188002E+03  0.98560E-05
 0.13193001E+03  0.60710E-05
 0.13198001E+03 -0.50055E-06
 0.13203001E+03 -0.89369E-05
 0.13208002E+03 -0.15167E-04
 0.13213002E+03 -0.15507E-04
 0.13218001E+03 -0.95242E-05
 0.13223001E+03 -0.16294E-05
 0.13228001E+03  0.11442E-05
 0.13233002E+03 -0.38704E-05
 0.13238002E+03 -0.15491E-04
 0.13243001E+03 -0.30516E-04
 0.13248001E+03 -0.44321E-04
 0.13253001E+03 -0.54016E-04
 0.13258002E+03 -0.58737E-04
 0.13263002E+03 -0.59495E-04
 0.13268001E+03 -0.58829E-04
 0.13273001E+03 -0.56339E-04
 0.13278001E+03 -0.47837E-04
 0.13283002E+03 -0.30472E-04
 0.13288002E+03 -0.77287E-05
 0.13293001E+03  0.11437E-04
 0.13298001E+03  0.20035E-04
 0.13303001E+03  0.18267E-04
 0.13308002E+03  0.10585E-04
 0.13313002E+03  0.39709E-05
 0.13318001E+03  0.36960E-05
 0.13323001E+03  0.71557E-05
 0.13328001E+03  0.10702E-04
 0.13333002E+03  0.12808E-04
 0.13338002E+03  0.15213E-04
 0.13343001E+03  0.21384E-04
 0.13348001E+03  0.30804E-04
 0.13353001E+03  0.40180E-04
 0.13358002E+03  0.43948E-04
 0.13363002E+03  0.42964E-04
 0.13368001E+03  0.44634E-04
 0.13373001E+03  0.53241E-04
 0.13378001E+03  0.65816E-04
 0.13383002E+03  0.74017E-04
 0.13388002E+03  0.73809E-04
 0.13393001E+03  0.64551E-04
 0.13398001E+03  0.47888E-04
 0.13403001E+03  0.28475E-04
 0.13408002E+03  0.93721E-05
 0.13413002E+03 -0.73495E-05
 0.13418001E+03 -0.21022E-04
 0.13423001E+03 -0.31026E-04
 0.13428001E+03 -0.36419E-04
 0.13433002E+03 -0.37358E-04
 0.13438002E+03 -0.33258E-04
 0.13443001E+03 -0.24558E-04
 0.13448001E+03 -0.12821E-04
 0.13453001E+03  0.12225E-06
 0.13458002E+03  0.11193E-04
 0.13463002E+03  0.18315E-04
 0.13468001E+03  0.21439E-04
 0.13473001E+03  0.20535E-04
 0.13478001E+03  0.15986E-04
 0.13483002E+03  0.87249E-05
 0.13488002E+03 -0.23258E-05
 0.13493001E+03 -0.18461E-04
 0.13498001E+03 -0.37544E-04
 0.13503001E+03 -0.54453E-04
 0.13508002E+03 -0.64310E-04
 0.13513002E+03 -0.65603E-04
 0.13518001E+03 -0.60430E-04
 0.13523001E+03 -0.50592E-04
 0.13528001E+03 -0.36881E-04
 0.13533002E+03 -0.21827E-04
 0.13538002E+03 -0.69830E-05
 0.13543001E+03  0.66287E-05
 0.13548001E+03  0.17286E-04
 0.13553001E+03  0.24242E-04
 0.13558002E+03  0.26174E-04
 0.13563002E+03  0.23731E-04
 0.13568001E+03  0.20022E-04
 0.13573001E+03  0.17314E-04
 0.13578001E+03  0.16972E-04
 0.13583002E+03  0.18608E-04
 0.13588002E+03  0.20572E-04
 0.13593001E+03  0.20667E-04
 0.13598001E+03  0.16741E-04
 0.13603001E+03  0.87539E-05
 0.13608002E+03 -0.20618E-05
 0.13613002E+03 -0.13733E-04
 0.13618001E+03 -0.23936E-04
 0.13623001E+03 -0.30100E-04
 0.13628001E+03 -0.29852E-04
 0.13633002E+03 -0.24699E-04
 0.13638002E+03 -0.18811E-04
 0.13643001E+03 -0.14265E-04
 0.13648001E+03 -0.94736E-05
 0.13653001E+03 -0.35561E-05
 0.13658002E+03  0.14265E-05
 0.13663002E+03  0.42205E-05
 0.13668001E+03  0.55145E-05
 0.13673001E+03  0.79794E-05
 0.13678001E+03  0.13925E-04
 0.13683002E+03  0.22612E-04
 0.13688002E+03  0.30579E-04
 0.13693001E+03  0.34432E-04
 0.13698001E+03  0.33763E-04
 0.13703001E+03  0.29977E-04
 0.13708002E+03  0.24959E-04
 0.13713002E+03  0.20511E-04
 0.13718001E+03  0.18107E-04
 0.13723001E+03  0.17782E-04
 0.13728001E+03  0.17379E-04
 0.13733002E+03  0.14616E-04
 0.13738002E+03  0.82756E-05
 0.13743001E+03 -0.10754E-05
 0.13748001E+03 -0.12500E-04
 0.13753001E+03 -0.24559E-04
 0.13758002E+03 -0.33666E-04
 0.13763002E+03 -0.37164E-04
 0.13768001E+03 -0.35634E-04
 0.13773001E+03 -0.32288E-04
 0.13778001E+03 -0.27549E-04
 0.13783002E+03 -0.19043E-04
 0.13788002E+03 -0.77298E-05
 0.13793001E+03  0.43590E-05
 0.13798001E+03  0.15382E-04
 0.13803001E+03  0.23243E-04
 0.13808002E+03  0.28006E-04
 0.13813002E+03  0.29924E-04
 0.13818001E+03  0.27209E-04
 0.13823001E+03  0.18960E-04
 0.13828001E+03  0.70182E-05
 0.13833002E+03 -0.52462E-05
 0.13838002E+03 -0.13185E-04
 0.13843001E+03 -0.13781E-04
 0.13848001E+03 -0.88216E-05
 0.13853001E+03 -0.15350E-05
 0.13858002E+03  0.52204E-05
 0.13863002E+03  0.72031E-05
 0.13868001E+03  0.19748E-05
 0.13873001E+03 -0.82485E-05
 0.13878001E+03 -0.19291E-04
 0.13883002E+03 -0.28486E-04
 0.13888002E+03 -0.35175E-04
 0.13893001E+03 -0.39541E-04
 0.13898001E+03 -0.42376E-04
 0.13903001E+03 -0.43622E-04
 0.13908002E+03 -0.41080E-04
 0.13913002E+03 -0.33375E-04
 0.13918001E+03 -0.21289E-04
 0.13923001E+03 -0.66153E-05
 0.13928001E+03  0.72456E-05
 0.13933002E+03  0.17531E-04
 0.13938002E+03  0.23742E-04
 0.13943001E+03  0.25826E-04
 0.13948001E+03  0.24012E-04
 0.13953001E+03  0.18721E-04
 0.13958002E+03  0.99691E-05
 0.13963002E+03 -0.17653E-05
 0.13968001E+03 -0.15423E-04
 0.13973001E+03 -0.27926E-04
 0.13978001E+03 -0.33751E-04
 0.13983002E+03 -0.29717E-04
 0.13988002E+03 -0.17009E-04
 0.13993001E+03  0.11092E-05
 0.13998001E+03  0.21167E-04
 0.14003001E+03  0.38982E-04
 0.14008002E+03  0.50577E-04
 0.14013002E+03  0.53915E-04
 0.14018001E+03  0.48313E-04
 0.14023001E+03  0.35601E-04
 0.14028001E+03  0.19875E-04
 0.14033002E+03  0.68595E-05
 0.14038002E+03  0.68232E-06
 0.14043001E+03  0.29416E-06
 0.14048001E+03  0.36713E-05
 0.14053001E+03  0.10096E-04
 0.14058002E+03  0.18727E-04
 0.14063002E+03  0.27006E-04
 0.14068001E+03  0.31492E-04
 0.14073001E+03  0.30175E-04
 0.14078001E+03  0.21946E-04
 0.14083002E+03  0.92472E-05
 0.14088002E+03 -0.26668E-05
 0.14093001E+03 -0.10950E-04
 0.14098001E+03 -0.15377E-04
 0.14103001E+03 -0.17081E-04
 0.14108002E+03 -0.18054E-04
 0.14113002E+03 -0.22187E-04
 0.14118001E+03 -0.31518E-04
 0.14123001E+03 -0.42417E-04
 0.14128001E+03 -0.49201E-04
 0.14133002E+03 -0.48284E-04
 0.14138002E+03 -0.41476E-04
 0.14143001E+03 -0.32777E-04
 0.14148001E+03 -0.25388E-04
 0.14153001E+03 -0.20456E-04
 0.14158002E+03 -0.14618E-04
 0.14163002E+03 -0.50401E-05
 0.14168001E+03  0.69894E-05
 0.14173001E+03  0.17526E-04
 0.14178001E+03  0.24312E-04
 0.14183002E+03  0.30546E-04
 0.14188002E+03  0.39615E-04
 0.14193001E+03  0.49978E-04
 0.14198001E+03  0.56832E-04
 0.14203001E+03  0.55978E-04
 0.14208002E+03  0.46896E-04
 0.14213002E+03  0.32944E-04
 0.14218001E+03  0.18989E-04
 0.14223001E+03  0.70981E-05
 0.14228001E+03 -0.30969E-05
 0.14233002E+03 -0.11300E-04
 0.14238002E+03 -0.17115E-04
 0.14243001E+03 -0.21919E-04
 0.14248001E+03 -0.27385E-04
 0.14253001E+03 -0.31445E-04
 0.14258002E+03 -0.30399E-04
 0.14263002E+03 -0.24003E-04
 0.14268001E+03 -0.15464E-04
 0.14273001E+03 -0.59183E-05
 0.14278001E+03  0.54221E-05
 0.14283002E+03  0.16576E-04
 0.14288002E+03  0.24034E-04
 0.14293001E+03  0.24625E-04
 0.14298001E+03  0.17884E-04
 0.14303001E+03  0.69555E-05
 0.14308002E+03 -0.38759E-05
 0.14313002E+03 -0.11197E-04
 0.14318001E+03 -0.14667E-04
 0.14323001E+03 -0.16483E-04
 0.14328001E+03 -0.18368E-04
 0.14333002E+03 -0.20247E-04
 0.14338002E+03 -0.21776E-04
 0.14343001E+03 -0.22531E-04
 0.14348001E+03 -0.20890E-04
 0.14353001E+03 -0.16126E-04
 0.14358002E+03 -0.85429E-05
 0.14363002E+03  0.82872E-06
 0.14368001E+03  0.94450E-05
 0.14373001E+03  0.15474E-04
 0.14378001E+03  0.18779E-04
 0.14383002E+03  0.19889E-04
 0.14388002E+03  0.19630E-04
 0.14393001E+03  0.18288E-04
 0.14398001E+03  0.15314E-04
 0.14403001E+03  0.10888E-04
 0.14408002E+03  0.58562E-05
 0.14413002E+03  0.83663E-06
 0.14418001E+03 -0.44192E-05
 0.14423001E+03 -0.10147E-04
 0.14428001E+03 -0.15860E-04
 0.14433002E+03 -0.21022E-04
 0.14438002E+03 -0.24553E-04
 0.14443001E+03 -0.26925E-04
 0.14448001E+03 -0.30150E-04
 0.14453001E+03 -0.34802E-04
 0.14458002E+03 -0.39625E-04
 0.14463002E+03 -0.42562E-04
 0.14468001E+03 -0.41754E-04
 0.14473001E+03 -0.35879E-04
 0.14478001E+03 -0.24436E-04
 0.14483002E+03 -0.76472E-05
 0.14488002E+03  0.13157E-04
 0.14493001E+03  0.34253E-04
 0.14498001E+03  0.49635E-04
 0.14503001E+03  0.55500E-04
 0.14508002E+03  0.53323E-04
 0.14513002E+03  0.46985E-04
 0.14518001E+03  0.40159E-04
 0.14523001E+03  0.34972E-04
 0.14528001E+03  0.31895E-04
 0.14533002E+03  0.30280E-04
 0.14538002E+03  0.28800E-04
 0.14543001E+03  0.26568E-04
 0.14548001E+03  0.23099E-04
 0.14553001E+03  0.17994E-04
 0.14558002E+03  0.11333E-04
 0.14563002E+03  0.42212E-05
 0.14568001E+03 -0.24539E-05
 0.14573001E+03 -0.96433E-05
 0.14578001E+03 -0.17149E-04
 0.14583002E+03 -0.22536E-04
 0.14588002E+03 -0.24741E-04
 0.14593001E+03 -0.23861E-04
 0.14598001E+03 -0.20411E-04
 0.14603001E+03 -0.15853E-04
 0.14608002E+03 -0.10716E-04
 0.14613002E+03 -0.51260E-05
 0.14618001E+03  0.38239E-06
 0.14623001E+03  0.59050E-05
 0.14628001E+03  0.10358E-04
 0.14633002E+03  0.11642E-04
 0.14638002E+03  0.86252E-05
 0.14643001E+03  0.22011E-05
 0.14648001E+03 -0.46794E-05
 0.14653001E+03 -0.96215E-05
 0.14658002E+03 -0.11504E-04
 0.14663002E+03 -0.10512E-04
 0.14668001E+03 -0.88125E-05
 0.14673001E+03 -0.96248E-05
 0.14678001E+03 -0.14069E-04
 0.14683002E+03 -0.20303E-04
 0.14688002E+03 -0.25972E-04
 0.14693001E+03 -0.28174E-04
 0.14698001E+03 -0.24826E-04
 0.14703001E+03 -0.17300E-04
 0.14708002E+03 -0.88595E-05
 0.14713002E+03 -0.13288E-05
 0.14718001E+03  0.45351E-05
 0.14723001E+03  0.73955E-05
 0.14728001E+03  0.62887E-05
 0.14733002E+03  0.16566E-05
 0.14738002E+03 -0.45761E-05
 0.14743001E+03 -0.99533E-05
 0.14748001E+03 -0.12522E-04
 0.14753001E+03 -0.11860E-04
 0.14758002E+03 -0.79713E-05
 0.14763002E+03 -0.60954E-06
 0.14768001E+03  0.83045E-05
 0.14773001E+03  0.15516E-04
 0.14778001E+03  0.18123E-04
 0.14783002E+03  0.15027E-04
 0.14788002E+03  0.84378E-05
 0.14793001E+03  0.20436E-05
 0.14798001E+03 -0.67275E-06
 0.14803001E+03  0.15997E-05
 0.14808002E+03  0.64080E-05
 0.14813002E+03  0.94360E-05
 0.14818001E+03  0.75713E-05
 0.14823001E+03  0.10241E-05
 0.14828001E+03 -0.63463E-05
 0.14833002E+03 -0.10014E-04
 0.14838002E+03 -0.82714E-05
 0.14843001E+03 -0.25508E-05
 0.14848001E+03  0.46743E-05
 0.14853001E+03  0.11848E-04
 0.14858002E+03  0.18401E-04
 0.14863002E+03  0.24001E-04
 0.14868001E+03  0.26980E-04
 0.14873001E+03  0.26518E-04
 0.14878001E+03  0.24553E-04
 0.14883002E+03  0.22949E-04
 0.14888002E+03  0.23347E-04
 0.14893001E+03  0.25361E-04
 0.14898001E+03  0.26097E-04
 0.14903001E+03  0.23951E-04
 0.14908002E+03  0.19001E-04
 0.14913002E+03  0.12741E-04
 0.14918001E+03  0.71560E-05
 0.14923001E+03  0.34715E-05
 0.14928001E+03  0.17172E-05
 0.14933002E+03  0.72493E-06
 0.14938002E+03 -0.11209E-05
 0.14943001E+03 -0.46839E-05
 0.14948001E+03 -0.93980E-05
 0.14953001E+03 -0.14225E-04
 0.14958002E+03 -0.18513E-04
 0.14963002E+03 -0.23042E-04
 0.14968001E+03 -0.27956E-04
 0.14973001E+03 -0.31207E-04
 0.14978001E+03 -0.30515E-04
 0.14983002E+03 -0.25373E-04
 0.14988002E+03 -0.18502E-04
 0.14993001E+03 -0.13784E-04
 0.14998001E+03 -0.12909E-04
