-0.19989014E-01 -0.11350E-02
 0.30010987E-01 -0.63645E-03
 0.80010988E-01 -0.26554E-03
 0.13001099E+00 -0.63482E-05
 0.18001099E+00  0.16041E-03
 0.23001099E+00  0.25462E-03
 0.28001100E+00  0.29447E-03
 0.33001098E+00  0.29639E-03
 0.38001099E+00  0.27382E-03
 0.43001100E+00  0.23724E-03
 0.48001099E+00  0.19491E-03
 0.53001100E+00  0.15203E-03
 0.58001101E+00  0.11232E-03
 0.63001102E+00  0.77757E-04
 0.68001097E+00  0.49216E-04
 0.73001099E+00  0.27283E-04
 0.78001100E+00  0.11090E-04
 0.83001101E+00 -0.47798E-06
 0.88001102E+00 -0.79279E-05
 0.93001097E+00 -0.11710E-04
 0.98001099E+00 -0.13365E-04
 0.10300111E+01 -0.13559E-04
 0.10800110E+01 -0.12346E-04
 0.11300110E+01 -0.10657E-04
 0.11800110E+01 -0.86389E-05
 0.12300110E+01 -0.66483E-05
 0.12800111E+01 -0.49602E-05
 0.13300110E+01 -0.34181E-05
 0.13800110E+01 -0.22279E-05
 0.14300110E+01 -0.13376E-05
 0.14800110E+01 -0.58035E-06
 0.15300111E+01 -0.26102E-08
 0.15800110E+01  0.40976E-06
 0.16300110E+01  0.51607E-06
 0.16800110E+01  0.65772E-06
 0.17300110E+01  0.59547E-06
 0.17800111E+01  0.23957E-06
 0.18300110E+01  0.53405E-06
 0.18800110E+01  0.47103E-06
 0.19300110E+01  0.29200E-06
 0.19800110E+01  0.42123E-06
 0.20300109E+01  0.85598E-07
 0.20800111E+01  0.65866E-07
 0.21300111E+01  0.77864E-07
 0.21800110E+01 -0.18233E-07
 0.22300110E+01  0.10052E-06
 0.22800109E+01  0.66474E-07
 0.23300111E+01 -0.80406E-08
 0.23800111E+01 -0.49594E-07
 0.24300110E+01 -0.31257E-07
 0.24800110E+01  0.23022E-07
 0.25300109E+01 -0.18689E-07
 0.25800111E+01  0.15361E-08
 0.26300111E+01 -0.14093E-06
 0.26800110E+01 -0.73368E-07
 0.27300110E+01  0.21976E-06
 0.27800109E+01  0.62206E-07
 0.28300111E+01  0.27109E-07
 0.28800111E+01 -0.23601E-06
 0.29300110E+01 -0.27709E-06
 0.29800110E+01  0.14215E-06
 0.30300109E+01 -0.37383E-07
 0.30800111E+01  0.28901E-07
 0.31300111E+01  0.14973E-06
 0.31800110E+01 -0.16153E-06
 0.32300110E+01 -0.14454E-06
 0.32800109E+01 -0.74675E-08
 0.33300111E+01  0.83556E-08
 0.33800111E+01  0.19849E-06
 0.34300110E+01  0.68043E-07
 0.34800110E+01 -0.25095E-06
 0.35300109E+01  0.10921E-06
 0.35800111E+01  0.20171E-06
 0.36300111E+01 -0.11239E-06
 0.36800110E+01  0.39740E-07
 0.37300110E+01 -0.60462E-07
 0.37800109E+01 -0.74518E-07
 0.38300111E+01  0.16114E-06
 0.38800111E+01 -0.34032E-07
 0.39300110E+01  0.31272E-07
 0.39800110E+01  0.98226E-07
 0.40300112E+01 -0.18990E-06
 0.40800109E+01 -0.14013E-06
 0.41300111E+01  0.87432E-07
 0.41800113E+01  0.19355E-06
 0.42300110E+01  0.12144E-06
 0.42800112E+01 -0.60550E-07
 0.43300109E+01 -0.15936E-06
 0.43800111E+01 -0.19129E-06
 0.44300113E+01  0.12664E-06
 0.44800110E+01  0.29863E-06
 0.45300112E+01  0.12390E-06
 0.45800109E+01 -0.17194E-08
 0.46300111E+01 -0.20230E-06
 0.46800113E+01 -0.95139E-07
 0.47300110E+01  0.98274E-07
 0.47800112E+01  0.29394E-06
 0.48300109E+01  0.29692E-06
 0.48800111E+01 -0.57017E-07
 0.49300113E+01 -0.18463E-06
 0.49800110E+01 -0.17697E-06
 0.50300112E+01  0.14818E-06
 0.50800109E+01  0.12204E-06
 0.51300111E+01 -0.22050E-06
 0.51800113E+01 -0.44009E-07
 0.52300110E+01  0.22522E-07
 0.52800112E+01 -0.71056E-07
 0.53300109E+01  0.32930E-07
 0.53800111E+01  0.17215E-06
 0.54300113E+01 -0.66249E-07
 0.54800110E+01 -0.16164E-06
 0.55300112E+01 -0.11242E-06
 0.55800109E+01  0.53371E-08
 0.56300111E+01  0.33589E-06
 0.56800113E+01  0.63294E-07
 0.57300110E+01 -0.26733E-06
 0.57800112E+01 -0.27091E-06
 0.58300109E+01  0.21037E-07
 0.58800111E+01  0.20038E-06
 0.59300113E+01  0.10992E-08
 0.59800110E+01  0.52248E-07
 0.60300112E+01 -0.13907E-06
 0.60800109E+01 -0.35596E-06
 0.61300111E+01 -0.19417E-07
 0.61800113E+01  0.23588E-06
 0.62300110E+01  0.13267E-06
 0.62800112E+01 -0.17206E-06
 0.63300109E+01 -0.25975E-06
 0.63800111E+01 -0.59664E-07
 0.64300113E+01 -0.13019E-06
 0.64800110E+01  0.44394E-07
 0.65300112E+01  0.23058E-06
 0.65800109E+01 -0.31716E-07
 0.66300111E+01 -0.16359E-07
 0.66800113E+01 -0.13727E-06
 0.67300110E+01 -0.17820E-06
 0.67800112E+01  0.12087E-06
 0.68300109E+01  0.52226E-07
 0.68800111E+01  0.12987E-06
 0.69300113E+01  0.12463E-06
 0.69800110E+01 -0.13823E-06
 0.70300112E+01  0.80262E-07
 0.70800109E+01  0.42109E-07
 0.71300111E+01 -0.59051E-07
 0.71800113E+01  0.49670E-07
 0.72300110E+01  0.32097E-08
 0.72800112E+01 -0.61511E-07
 0.73300109E+01 -0.88635E-07
 0.73800111E+01  0.29596E-06
 0.74300113E+01  0.28276E-06
 0.74800110E+01  0.14212E-06
 0.75300112E+01  0.39201E-06
 0.75800109E+01  0.37827E-06
 0.76300111E+01  0.12818E-05
 0.76800113E+01 -0.11421E-05
 0.77300110E+01  0.13668E-05
 0.77800112E+01 -0.12249E-05
 0.78300109E+01 -0.44499E-05
 0.78800111E+01  0.88497E-05
 0.79300113E+01 -0.12016E-04
 0.79800110E+01  0.15508E-04
 0.80300112E+01 -0.15147E-04
 0.80800114E+01  0.57166E-05
 0.81300116E+01  0.83584E-05
 0.81800108E+01 -0.28378E-04
 0.82300110E+01  0.56605E-04
 0.82800112E+01 -0.80725E-04
 0.83300114E+01  0.99592E-04
 0.83800116E+01 -0.10306E-03
 0.84300108E+01  0.89209E-04
 0.84800110E+01 -0.39985E-04
 0.85300112E+01 -0.52802E-04
 0.85800114E+01 -0.22029E-04
 0.86300116E+01 -0.11164E-02
 0.86800108E+01 -0.53626E-03
 0.87300110E+01 -0.25720E-02
 0.87800112E+01 -0.45864E-03
 0.88300114E+01  0.27182E-03
 0.88800116E+01 -0.90360E-03
 0.89300108E+01  0.55524E-02
 0.89800110E+01  0.13383E-02
 0.90300112E+01 -0.27562E-02
 0.90800114E+01 -0.13525E-02
 0.91300116E+01 -0.42883E-03
 0.91800108E+01  0.37336E-02
 0.92300110E+01  0.20168E-02
 0.92800112E+01 -0.16649E-02
 0.93300114E+01 -0.32275E-02
 0.93800116E+01 -0.21266E-02
 0.94300108E+01  0.13807E-02
 0.94800110E+01  0.61181E-02
 0.95300112E+01  0.65428E-02
 0.95800114E+01  0.17200E-02
 0.96300116E+01 -0.96281E-03
 0.96800108E+01 -0.24652E-02
 0.97300110E+01 -0.41168E-02
 0.97800112E+01 -0.20836E-02
 0.98300114E+01  0.55006E-03
 0.98800116E+01 -0.19327E-02
 0.99300108E+01 -0.17431E-02
 0.99800110E+01  0.71269E-03
 0.10030011E+02  0.17888E-02
 0.10080011E+02  0.16327E-02
 0.10130012E+02 -0.15095E-02
 0.10180011E+02 -0.19771E-02
 0.10230011E+02 -0.83234E-03
 0.10280011E+02 -0.71922E-03
 0.10330011E+02  0.35966E-03
 0.10380012E+02  0.17000E-02
 0.10430011E+02 -0.15675E-03
 0.10480011E+02 -0.18086E-02
 0.10530011E+02  0.14964E-02
 0.10580011E+02  0.70668E-03
 0.10630012E+02 -0.22272E-02
 0.10680011E+02 -0.20835E-03
 0.10730011E+02 -0.36339E-02
 0.10780011E+02 -0.58768E-02
 0.10830011E+02  0.30682E-02
 0.10880012E+02  0.77252E-02
 0.10930011E+02  0.42131E-02
 0.10980011E+02  0.24977E-02
 0.11030011E+02 -0.22675E-02
 0.11080011E+02 -0.64037E-02
 0.11130012E+02 -0.12702E-03
 0.11180011E+02  0.12723E-02
 0.11230011E+02 -0.16627E-02
 0.11280011E+02 -0.13776E-02
 0.11330011E+02 -0.12653E-02
 0.11380012E+02  0.42360E-02
 0.11430011E+02  0.68750E-02
 0.11480011E+02  0.11552E-02
 0.11530011E+02 -0.23982E-02
 0.11580011E+02 -0.39334E-03
 0.11630012E+02 -0.12869E-02
 0.11680011E+02 -0.25602E-03
 0.11730011E+02  0.30578E-02
 0.11780011E+02 -0.17759E-02
 0.11830011E+02 -0.30813E-02
 0.11880012E+02 -0.35487E-03
 0.11930011E+02 -0.63023E-03
 0.11980011E+02  0.75848E-03
 0.12030011E+02  0.24950E-02
 0.12080011E+02  0.66651E-03
 0.12130012E+02 -0.23411E-02
 0.12180011E+02 -0.13623E-02
 0.12230011E+02 -0.50335E-03
 0.12280011E+02  0.11474E-02
 0.12330011E+02  0.19940E-02
 0.12380012E+02 -0.21844E-02
 0.12430011E+02 -0.19748E-02
 0.12480011E+02  0.15824E-02
 0.12530011E+02  0.19384E-02
 0.12580011E+02  0.45819E-03
 0.12630012E+02 -0.13862E-02
 0.12680011E+02 -0.32105E-02
 0.12730011E+02 -0.15574E-02
 0.12780011E+02  0.14566E-02
 0.12830011E+02  0.27576E-02
 0.12880012E+02  0.46232E-02
 0.12930011E+02  0.16129E-02
 0.12980011E+02 -0.17297E-02
 0.13030011E+02  0.33664E-03
 0.13080011E+02  0.60180E-03
 0.13130012E+02 -0.31494E-03
 0.13180011E+02 -0.86949E-04
 0.13230011E+02 -0.93173E-03
 0.13280011E+02 -0.25992E-02
 0.13330011E+02 -0.17704E-02
 0.13380012E+02  0.26243E-02
 0.13430011E+02  0.97332E-03
 0.13480011E+02 -0.49026E-02
 0.13530011E+02 -0.30400E-02
 0.13580011E+02 -0.79844E-03
 0.13630012E+02  0.14745E-03
 0.13680011E+02  0.32429E-02
 0.13730011E+02  0.19898E-02
 0.13780011E+02 -0.10427E-03
 0.13830011E+02 -0.91889E-03
 0.13880012E+02 -0.65386E-03
 0.13930011E+02  0.41699E-03
 0.13980011E+02 -0.15764E-02
 0.14030011E+02 -0.18392E-02
 0.14080011E+02 -0.76212E-04
 0.14130012E+02  0.87059E-05
 0.14180011E+02  0.20355E-03
 0.14230011E+02  0.26219E-02
 0.14280011E+02  0.46308E-02
 0.14330011E+02  0.21616E-02
 0.14380012E+02 -0.16700E-02
 0.14430011E+02 -0.29194E-02
 0.14480011E+02 -0.22639E-02
 0.14530011E+02 -0.10625E-02
 0.14580011E+02  0.74111E-03
 0.14630012E+02  0.21602E-02
 0.14680011E+02  0.32244E-02
 0.14730011E+02  0.11819E-02
 0.14780011E+02 -0.67975E-03
 0.14830011E+02 -0.14680E-02
 0.14880012E+02 -0.19804E-02
 0.14930011E+02  0.23597E-02
 0.14980011E+02  0.16692E-03
 0.15030011E+02 -0.53489E-02
 0.15080011E+02 -0.56724E-02
 0.15130012E+02 -0.30840E-02
 0.15180011E+02  0.34872E-03
 0.15230011E+02  0.27050E-02
 0.15280011E+02  0.59965E-02
 0.15330011E+02  0.55819E-02
 0.15380012E+02  0.78240E-02
 0.15430011E+02  0.65011E-02
 0.15480011E+02 -0.19189E-02
 0.15530011E+02 -0.49402E-03
 0.15580011E+02  0.27995E-02
 0.15630012E+02  0.31608E-02
 0.15680011E+02  0.36712E-02
 0.15730011E+02  0.34123E-03
 0.15780011E+02 -0.15545E-02
 0.15830011E+02 -0.33342E-02
 0.15880012E+02 -0.60134E-02
 0.15930011E+02 -0.33902E-02
 0.15980011E+02 -0.18802E-02
 0.16030012E+02 -0.22327E-02
 0.16080011E+02 -0.33414E-02
 0.16130011E+02 -0.68174E-02
 0.16180012E+02 -0.46904E-02
 0.16230011E+02 -0.35195E-03
 0.16280012E+02  0.27667E-02
 0.16330011E+02  0.47875E-02
 0.16380011E+02  0.32119E-02
 0.16430012E+02  0.13191E-02
 0.16480011E+02 -0.72802E-03
 0.16530012E+02 -0.31582E-02
 0.16580011E+02 -0.16057E-02
 0.16630011E+02  0.60191E-03
 0.16680012E+02  0.12270E-03
 0.16730011E+02  0.11303E-02
 0.16780012E+02  0.20361E-03
 0.16830011E+02 -0.24069E-02
 0.16880011E+02 -0.16132E-02
 0.16930012E+02  0.98928E-03
 0.16980011E+02  0.82738E-03
 0.17030012E+02 -0.11927E-03
 0.17080011E+02  0.72681E-04
 0.17130011E+02  0.27167E-03
 0.17180012E+02  0.15032E-02
 0.17230011E+02  0.53752E-03
 0.17280012E+02  0.18631E-02
 0.17330011E+02  0.29625E-02
 0.17380011E+02 -0.11967E-03
 0.17430012E+02 -0.42377E-03
 0.17480011E+02 -0.14780E-02
 0.17530012E+02 -0.25026E-02
 0.17580011E+02 -0.13337E-02
 0.17630011E+02 -0.11021E-02
 0.17680012E+02 -0.35849E-04
 0.17730011E+02 -0.14044E-02
 0.17780012E+02 -0.40159E-02
 0.17830011E+02 -0.18185E-02
 0.17880011E+02  0.81646E-03
 0.17930012E+02  0.23998E-02
 0.17980011E+02  0.44222E-02
 0.18030012E+02  0.39208E-02
 0.18080011E+02  0.21330E-02
 0.18130011E+02  0.13847E-02
 0.18180012E+02  0.30747E-03
 0.18230011E+02 -0.20083E-03
 0.18280012E+02  0.82649E-03
 0.18330011E+02  0.96714E-03
 0.18380011E+02 -0.10648E-02
 0.18430012E+02 -0.17136E-02
 0.18480011E+02 -0.20028E-02
 0.18530012E+02 -0.50028E-02
 0.18580011E+02 -0.34389E-02
 0.18630011E+02 -0.35095E-03
 0.18680012E+02 -0.34318E-03
 0.18730011E+02 -0.14994E-03
 0.18780012E+02 -0.66485E-03
 0.18830011E+02 -0.14066E-02
 0.18880011E+02 -0.23534E-02
 0.18930012E+02 -0.28515E-02
 0.18980011E+02 -0.80134E-03
 0.19030012E+02  0.44254E-02
 0.19080011E+02  0.72282E-02
 0.19130011E+02  0.52400E-02
 0.19180012E+02  0.23363E-02
 0.19230011E+02  0.11957E-03
 0.19280012E+02 -0.69223E-03
 0.19330011E+02 -0.67819E-03
 0.19380011E+02 -0.98423E-03
 0.19430012E+02 -0.88465E-03
 0.19480011E+02  0.86501E-03
 0.19530012E+02  0.18610E-02
 0.19580011E+02  0.74971E-03
 0.19630011E+02  0.17156E-03
 0.19680012E+02 -0.77708E-03
 0.19730011E+02 -0.29162E-02
 0.19780012E+02 -0.25073E-02
 0.19830011E+02 -0.28932E-03
 0.19880011E+02  0.16548E-02
 0.19930012E+02  0.22974E-02
 0.19980011E+02 -0.71018E-03
 0.20030012E+02 -0.51232E-02
 0.20080011E+02 -0.71979E-02
 0.20130011E+02 -0.47536E-02
 0.20180012E+02  0.15413E-02
 0.20230011E+02  0.69854E-02
 0.20280012E+02  0.70624E-02
 0.20330011E+02  0.35319E-02
 0.20380011E+02  0.62031E-03
 0.20430012E+02 -0.97952E-03
 0.20480011E+02  0.36125E-03
 0.20530012E+02  0.26452E-02
 0.20580011E+02  0.20021E-02
 0.20630011E+02  0.47128E-03
 0.20680012E+02  0.12731E-03
 0.20730011E+02 -0.40330E-03
 0.20780012E+02 -0.95805E-03
 0.20830011E+02 -0.73671E-03
 0.20880011E+02 -0.14748E-02
 0.20930012E+02 -0.31652E-02
 0.20980011E+02 -0.32340E-02
 0.21030012E+02 -0.15959E-02
 0.21080011E+02 -0.10022E-02
 0.21130011E+02 -0.40701E-03
 0.21180012E+02  0.41099E-03
 0.21230011E+02  0.59698E-03
 0.21280012E+02  0.15532E-02
 0.21330011E+02  0.15029E-02
 0.21380011E+02  0.11346E-02
 0.21430012E+02  0.77073E-03
 0.21480011E+02 -0.58094E-03
 0.21530012E+02 -0.14621E-02
 0.21580011E+02 -0.20705E-02
 0.21630011E+02 -0.20397E-02
 0.21680012E+02 -0.15235E-02
 0.21730011E+02 -0.60176E-03
 0.21780012E+02  0.74151E-03
 0.21830011E+02  0.12130E-02
 0.21880011E+02  0.83150E-04
 0.21930012E+02 -0.77119E-03
 0.21980011E+02  0.62899E-03
 0.22030012E+02  0.13147E-02
 0.22080011E+02  0.15650E-02
 0.22130011E+02  0.27364E-02
 0.22180012E+02  0.17898E-02
 0.22230011E+02  0.94993E-04
 0.22280012E+02 -0.11859E-02
 0.22330011E+02 -0.26346E-02
 0.22380011E+02 -0.26792E-02
 0.22430012E+02 -0.10659E-02
 0.22480011E+02  0.95496E-03
 0.22530012E+02  0.20208E-02
 0.22580011E+02  0.25425E-02
 0.22630011E+02  0.17368E-02
 0.22680012E+02  0.50446E-03
 0.22730011E+02  0.16188E-03
 0.22780012E+02 -0.38195E-03
 0.22830011E+02  0.70194E-03
 0.22880011E+02  0.22803E-02
 0.22930012E+02  0.17348E-02
 0.22980011E+02 -0.34123E-03
 0.23030012E+02 -0.29065E-02
 0.23080011E+02 -0.36485E-02
 0.23130011E+02 -0.23924E-02
 0.23180012E+02 -0.16393E-02
 0.23230011E+02 -0.11202E-02
 0.23280012E+02  0.50823E-03
 0.23330011E+02  0.12816E-02
 0.23380011E+02  0.44044E-03
 0.23430012E+02  0.68902E-03
 0.23480011E+02  0.10761E-02
 0.23530012E+02  0.52248E-03
 0.23580011E+02 -0.82874E-04
 0.23630011E+02 -0.81084E-03
 0.23680012E+02 -0.69237E-03
 0.23730011E+02 -0.82041E-03
 0.23780012E+02 -0.90189E-03
 0.23830011E+02  0.26443E-03
 0.23880011E+02  0.11971E-02
 0.23930012E+02  0.63446E-03
 0.23980011E+02 -0.12324E-02
 0.24030012E+02 -0.21634E-02
 0.24080011E+02 -0.12270E-02
 0.24130011E+02  0.41229E-03
 0.24180012E+02  0.13050E-02
 0.24230011E+02  0.13420E-02
 0.24280012E+02  0.99254E-03
 0.24330011E+02  0.14563E-03
 0.24380011E+02  0.73169E-04
 0.24430012E+02  0.54808E-03
 0.24480011E+02  0.73922E-03
 0.24530012E+02  0.11097E-02
 0.24580011E+02  0.42539E-03
 0.24630011E+02 -0.33618E-03
 0.24680012E+02  0.59347E-03
 0.24730011E+02  0.17953E-02
 0.24780012E+02  0.14596E-02
 0.24830011E+02 -0.30889E-03
 0.24880011E+02 -0.11541E-02
 0.24930012E+02 -0.17979E-02
 0.24980011E+02 -0.23652E-02
 0.25030012E+02 -0.88272E-03
 0.25080011E+02  0.74290E-03
 0.25130011E+02  0.11328E-02
 0.25180012E+02  0.57693E-03
 0.25230011E+02  0.10101E-03
 0.25280012E+02 -0.24570E-03
 0.25330011E+02 -0.63485E-03
 0.25380011E+02 -0.64032E-05
 0.25430012E+02  0.15501E-03
 0.25480011E+02 -0.76334E-03
 0.25530012E+02 -0.18307E-02
 0.25580011E+02 -0.16490E-02
 0.25630011E+02  0.11279E-03
 0.25680012E+02  0.92014E-03
 0.25730011E+02 -0.69652E-04
 0.25780012E+02 -0.58257E-03
 0.25830011E+02  0.43357E-04
 0.25880011E+02 -0.25528E-03
 0.25930012E+02 -0.34689E-03
 0.25980011E+02 -0.71809E-04
 0.26030012E+02 -0.50899E-03
 0.26080011E+02 -0.16468E-03
 0.26130011E+02  0.28050E-03
 0.26180012E+02  0.60563E-04
 0.26230011E+02  0.85885E-03
 0.26280012E+02  0.22844E-02
 0.26330011E+02  0.16135E-02
 0.26380011E+02  0.44001E-03
 0.26430012E+02  0.12187E-03
 0.26480011E+02 -0.67093E-04
 0.26530012E+02  0.36977E-03
 0.26580011E+02  0.63916E-03
 0.26630011E+02  0.40837E-03
 0.26680012E+02  0.14190E-03
 0.26730011E+02  0.19324E-03
 0.26780012E+02 -0.10158E-03
 0.26830011E+02 -0.19720E-03
 0.26880011E+02 -0.26563E-03
 0.26930012E+02 -0.86876E-03
 0.26980011E+02 -0.63945E-03
 0.27030012E+02 -0.58101E-03
 0.27080011E+02 -0.41717E-03
 0.27130011E+02  0.15010E-03
 0.27180012E+02  0.34352E-03
 0.27230011E+02  0.10971E-02
 0.27280012E+02  0.16643E-02
 0.27330011E+02  0.10991E-02
 0.27380011E+02 -0.61407E-05
 0.27430012E+02 -0.13350E-02
 0.27480011E+02 -0.23196E-02
 0.27530012E+02 -0.17997E-02
 0.27580011E+02 -0.12134E-02
 0.27630011E+02 -0.13010E-02
 0.27680012E+02  0.10654E-04
 0.27730011E+02  0.16213E-02
 0.27780012E+02  0.19155E-02
 0.27830011E+02  0.13937E-02
 0.27880011E+02  0.94052E-03
 0.27930012E+02  0.26327E-03
 0.27980011E+02 -0.11432E-02
 0.28030012E+02 -0.13419E-02
 0.28080011E+02 -0.60751E-03
 0.28130011E+02  0.15767E-03
 0.28180012E+02  0.88770E-03
 0.28230011E+02  0.10617E-02
 0.28280012E+02  0.11804E-02
 0.28330011E+02  0.82857E-03
 0.28380011E+02  0.14101E-03
 0.28430012E+02 -0.45069E-03
 0.28480011E+02 -0.34523E-03
 0.28530012E+02  0.33693E-03
 0.28580011E+02  0.19530E-03
 0.28630011E+02 -0.55085E-03
 0.28680012E+02 -0.15273E-02
 0.28730011E+02 -0.22736E-02
 0.28780012E+02 -0.23196E-02
 0.28830011E+02 -0.20254E-02
 0.28880011E+02 -0.14866E-02
 0.28930012E+02 -0.80883E-03
 0.28980011E+02  0.12210E-03
 0.29030012E+02  0.12647E-02
 0.29080011E+02  0.19951E-02
 0.29130011E+02  0.12479E-02
 0.29180012E+02  0.17275E-03
 0.29230011E+02  0.54881E-03
 0.29280012E+02  0.78767E-03
 0.29330011E+02  0.48116E-03
 0.29380011E+02  0.21493E-03
 0.29430012E+02  0.42147E-04
 0.29480011E+02  0.75287E-04
 0.29530012E+02  0.12774E-03
 0.29580011E+02  0.59119E-03
 0.29630011E+02  0.57242E-03
 0.29680012E+02 -0.36529E-03
 0.29730011E+02 -0.94655E-03
 0.29780012E+02 -0.57862E-03
 0.29830011E+02  0.93382E-04
 0.29880011E+02  0.77696E-03
 0.29930012E+02  0.12985E-02
 0.29980011E+02  0.13221E-02
 0.30030012E+02  0.11056E-02
 0.30080011E+02  0.86505E-03
 0.30130011E+02  0.12102E-02
 0.30180012E+02  0.11390E-02
 0.30230011E+02 -0.55126E-04
 0.30280012E+02 -0.95110E-03
 0.30330011E+02 -0.15677E-02
 0.30380011E+02 -0.14223E-02
 0.30430012E+02 -0.63278E-03
 0.30480011E+02 -0.56705E-03
 0.30530012E+02 -0.48499E-03
 0.30580011E+02 -0.18690E-04
 0.30630011E+02  0.44553E-03
 0.30680012E+02  0.36010E-03
 0.30730011E+02 -0.25634E-03
 0.30780012E+02  0.18872E-03
 0.30830011E+02  0.79240E-03
 0.30880011E+02  0.53804E-03
 0.30930012E+02  0.40328E-03
 0.30980011E+02 -0.62165E-04
 0.31030012E+02 -0.71302E-03
 0.31080011E+02 -0.90392E-03
 0.31130011E+02 -0.16071E-03
 0.31180012E+02  0.86387E-03
 0.31230011E+02  0.57628E-03
 0.31280012E+02 -0.83694E-04
 0.31330011E+02 -0.95452E-04
 0.31380011E+02 -0.15702E-03
 0.31430012E+02 -0.91577E-03
 0.31480011E+02 -0.18274E-02
 0.31530012E+02 -0.22961E-02
 0.31580011E+02 -0.20626E-02
 0.31630011E+02 -0.10510E-02
 0.31680012E+02 -0.20435E-04
 0.31730011E+02  0.79955E-03
 0.31780012E+02  0.12777E-02
 0.31830011E+02  0.10725E-02
 0.31880011E+02  0.44893E-03
 0.31930012E+02 -0.23369E-03
 0.31980011E+02 -0.91148E-03
 0.32030010E+02 -0.10246E-02
 0.32080013E+02 -0.43366E-03
 0.32130013E+02  0.17893E-03
 0.32180012E+02  0.51928E-03
 0.32230011E+02  0.64166E-03
 0.32280010E+02  0.90164E-03
 0.32330013E+02  0.79679E-03
 0.32380013E+02  0.61995E-03
 0.32430012E+02  0.79594E-03
 0.32480011E+02  0.41070E-03
 0.32530010E+02  0.23805E-04
 0.32580013E+02  0.79011E-04
 0.32630013E+02  0.52750E-03
 0.32680012E+02  0.89609E-03
 0.32730011E+02  0.11334E-02
 0.32780010E+02  0.15157E-02
 0.32830013E+02  0.96583E-03
 0.32880013E+02  0.54850E-03
 0.32930012E+02  0.72959E-03
 0.32980011E+02  0.16445E-03
 0.33030010E+02 -0.62350E-03
 0.33080013E+02 -0.98096E-03
 0.33130013E+02 -0.10816E-02
 0.33180012E+02 -0.69347E-03
 0.33230011E+02 -0.27959E-03
 0.33280010E+02 -0.58621E-03
 0.33330013E+02 -0.84976E-03
 0.33380013E+02 -0.84201E-03
 0.33430012E+02 -0.60796E-03
 0.33480011E+02 -0.77171E-04
 0.33530010E+02  0.12059E-03
 0.33580013E+02 -0.75520E-04
 0.33630013E+02 -0.10848E-03
 0.33680012E+02  0.21702E-04
 0.33730011E+02 -0.38877E-03
 0.33780010E+02 -0.55193E-03
 0.33830013E+02 -0.32768E-03
 0.33880013E+02 -0.62927E-03
 0.33930012E+02 -0.86950E-03
 0.33980011E+02 -0.10848E-02
 0.34030010E+02 -0.10009E-02
 0.34080013E+02 -0.25618E-03
 0.34130013E+02  0.52363E-03
 0.34180012E+02  0.10258E-02
 0.34230011E+02  0.11117E-02
 0.34280010E+02  0.63436E-03
 0.34330013E+02 -0.35859E-03
 0.34380013E+02 -0.90528E-03
 0.34430012E+02 -0.66137E-03
 0.34480011E+02 -0.21376E-03
 0.34530010E+02  0.18434E-03
 0.34580013E+02  0.42753E-03
 0.34630013E+02  0.32069E-03
 0.34680012E+02  0.45353E-03
 0.34730011E+02  0.12225E-02
 0.34780010E+02  0.12928E-02
 0.34830013E+02  0.84135E-03
 0.34880013E+02  0.70264E-03
 0.34930012E+02  0.62414E-03
 0.34980011E+02  0.76536E-03
 0.35030010E+02  0.73715E-03
 0.35080013E+02  0.30026E-03
 0.35130013E+02  0.12011E-03
 0.35180012E+02  0.16353E-03
 0.35230011E+02 -0.21935E-03
 0.35280010E+02 -0.47655E-03
 0.35330013E+02 -0.72121E-03
 0.35380013E+02 -0.13532E-02
 0.35430012E+02 -0.15590E-02
 0.35480011E+02 -0.12571E-02
 0.35530010E+02 -0.49051E-03
 0.35580013E+02  0.11949E-03
 0.35630013E+02  0.39227E-03
 0.35680012E+02  0.74259E-03
 0.35730011E+02  0.96821E-03
 0.35780010E+02  0.99029E-03
 0.35830013E+02  0.68249E-03
 0.35880013E+02  0.65316E-03
 0.35930012E+02  0.46852E-03
 0.35980011E+02  0.18991E-03
 0.36030010E+02  0.56390E-03
 0.36080013E+02  0.50179E-03
 0.36130013E+02  0.91784E-04
 0.36180012E+02 -0.33967E-03
 0.36230011E+02 -0.81517E-03
 0.36280010E+02 -0.99972E-03
 0.36330013E+02 -0.98937E-03
 0.36380013E+02 -0.74042E-03
 0.36430012E+02 -0.33899E-03
 0.36480011E+02  0.58262E-04
 0.36530010E+02  0.32201E-04
 0.36580013E+02 -0.14888E-03
 0.36630013E+02 -0.39550E-03
 0.36680012E+02 -0.10002E-02
 0.36730011E+02 -0.11526E-02
 0.36780010E+02 -0.80408E-03
 0.36830013E+02 -0.34145E-03
 0.36880013E+02 -0.17909E-03
 0.36930012E+02 -0.46413E-03
 0.36980011E+02 -0.49117E-03
 0.37030010E+02 -0.14578E-03
 0.37080013E+02  0.24755E-03
 0.37130013E+02  0.45416E-03
 0.37180012E+02  0.70806E-03
 0.37230011E+02  0.85956E-03
 0.37280010E+02  0.58115E-03
 0.37330013E+02  0.38419E-03
 0.37380013E+02  0.48657E-03
 0.37430012E+02  0.49439E-03
 0.37480011E+02  0.29683E-03
 0.37530010E+02  0.25162E-03
 0.37580013E+02  0.15537E-03
 0.37630013E+02 -0.10635E-04
 0.37680012E+02  0.20207E-03
 0.37730011E+02  0.68205E-03
 0.37780010E+02  0.11003E-02
 0.37830013E+02  0.11521E-02
 0.37880013E+02  0.86638E-03
 0.37930012E+02  0.27414E-03
 0.37980011E+02 -0.29936E-03
 0.38030010E+02 -0.56224E-03
 0.38080013E+02 -0.73068E-03
 0.38130013E+02 -0.50347E-03
 0.38180012E+02 -0.18947E-03
 0.38230011E+02 -0.13973E-03
 0.38280010E+02 -0.73275E-04
 0.38330013E+02 -0.23245E-03
 0.38380013E+02 -0.44400E-03
 0.38430012E+02 -0.33728E-03
 0.38480011E+02 -0.12648E-03
 0.38530010E+02 -0.54437E-04
 0.38580013E+02 -0.31307E-03
 0.38630013E+02 -0.92789E-03
 0.38680012E+02 -0.12662E-02
 0.38730011E+02 -0.90039E-03
 0.38780010E+02 -0.39004E-03
 0.38830013E+02 -0.21606E-03
 0.38880013E+02 -0.28112E-03
 0.38930012E+02 -0.62419E-03
 0.38980011E+02 -0.74571E-03
 0.39030010E+02 -0.18112E-03
 0.39080013E+02  0.21222E-03
 0.39130013E+02  0.40792E-03
 0.39180012E+02  0.73337E-03
 0.39230011E+02  0.10345E-02
 0.39280010E+02  0.14150E-02
 0.39330013E+02  0.13888E-02
 0.39380013E+02  0.82726E-03
 0.39430012E+02  0.31850E-03
 0.39480011E+02  0.88690E-04
 0.39530010E+02 -0.11384E-03
 0.39580013E+02 -0.64121E-04
 0.39630013E+02  0.30718E-03
 0.39680012E+02  0.51334E-03
 0.39730011E+02  0.54499E-03
 0.39780010E+02  0.51279E-03
 0.39830013E+02  0.50377E-03
 0.39880013E+02  0.37479E-03
 0.39930012E+02 -0.45518E-05
 0.39980011E+02 -0.35899E-03
 0.40030010E+02 -0.50967E-03
 0.40080013E+02 -0.41743E-03
 0.40130013E+02 -0.26942E-03
 0.40180012E+02 -0.39128E-03
 0.40230011E+02 -0.78441E-03
 0.40280010E+02 -0.10004E-02
 0.40330013E+02 -0.79159E-03
 0.40380013E+02 -0.56082E-03
 0.40430012E+02 -0.48933E-03
 0.40480011E+02 -0.23905E-03
 0.40530010E+02  0.17191E-04
 0.40580013E+02  0.40114E-04
 0.40630013E+02  0.13667E-03
 0.40680012E+02  0.42507E-04
 0.40730011E+02 -0.22327E-03
 0.40780010E+02 -0.13346E-03
 0.40830013E+02  0.21918E-03
 0.40880013E+02  0.45982E-03
 0.40930012E+02  0.53204E-03
 0.40980011E+02  0.67024E-03
 0.41030010E+02  0.58791E-03
 0.41080013E+02  0.25011E-03
 0.41130013E+02 -0.12354E-03
 0.41180012E+02 -0.42390E-03
 0.41230011E+02 -0.33828E-03
 0.41280010E+02 -0.17731E-04
 0.41330013E+02  0.14616E-03
 0.41380013E+02  0.60804E-04
 0.41430012E+02 -0.59372E-04
 0.41480011E+02 -0.10588E-03
 0.41530010E+02 -0.65180E-04
 0.41580013E+02  0.39343E-04
 0.41630013E+02  0.24512E-04
 0.41680012E+02  0.13517E-03
 0.41730011E+02  0.52532E-03
 0.41780010E+02  0.71819E-03
 0.41830013E+02  0.61881E-03
 0.41880013E+02  0.32093E-03
 0.41930012E+02  0.10351E-04
 0.41980011E+02 -0.14817E-03
 0.42030010E+02 -0.28441E-03
 0.42080013E+02 -0.32865E-03
 0.42130013E+02 -0.38516E-03
 0.42180012E+02 -0.34979E-03
 0.42230011E+02 -0.16823E-03
 0.42280010E+02  0.11626E-03
 0.42330013E+02  0.54675E-03
 0.42380013E+02  0.70801E-03
 0.42430012E+02  0.56872E-03
 0.42480011E+02  0.17763E-03
 0.42530010E+02 -0.35277E-03
 0.42580013E+02 -0.55064E-03
 0.42630013E+02 -0.45988E-03
 0.42680012E+02 -0.17016E-03
 0.42730011E+02  0.57784E-04
 0.42780010E+02 -0.20383E-03
 0.42830013E+02 -0.61260E-03
 0.42880013E+02 -0.83754E-03
 0.42930012E+02 -0.85840E-03
 0.42980011E+02 -0.78946E-03
 0.43030010E+02 -0.55854E-03
 0.43080013E+02 -0.15943E-04
 0.43130013E+02  0.37072E-03
 0.43180012E+02  0.51456E-03
 0.43230011E+02  0.52528E-03
 0.43280010E+02  0.35236E-03
 0.43330013E+02  0.10280E-03
 0.43380013E+02  0.52121E-05
 0.43430012E+02  0.29171E-03
 0.43480011E+02  0.50724E-03
 0.43530010E+02  0.34629E-03
 0.43580013E+02  0.23080E-03
 0.43630013E+02  0.27607E-03
 0.43680012E+02  0.20523E-03
 0.43730011E+02  0.14193E-04
 0.43780010E+02 -0.14752E-03
 0.43830013E+02 -0.20707E-03
 0.43880013E+02 -0.24124E-03
 0.43930012E+02 -0.15723E-03
 0.43980011E+02  0.28174E-03
 0.44030010E+02  0.64153E-03
 0.44080013E+02  0.51483E-03
 0.44130013E+02  0.19975E-03
 0.44180012E+02 -0.54447E-04
 0.44230011E+02 -0.39230E-03
 0.44280010E+02 -0.80049E-03
 0.44330013E+02 -0.87896E-03
 0.44380013E+02 -0.60490E-03
 0.44430012E+02 -0.26307E-03
 0.44480011E+02  0.66363E-05
 0.44530010E+02 -0.12089E-03
 0.44580013E+02 -0.44240E-03
 0.44630013E+02 -0.52922E-03
 0.44680012E+02 -0.53596E-03
 0.44730011E+02 -0.27326E-03
 0.44780010E+02  0.22952E-03
 0.44830013E+02  0.52506E-03
 0.44880013E+02  0.60971E-03
 0.44930012E+02  0.57530E-03
 0.44980011E+02  0.58001E-03
 0.45030010E+02  0.66084E-03
 0.45080013E+02  0.45262E-03
 0.45130013E+02  0.14129E-03
 0.45180012E+02  0.95224E-04
 0.45230011E+02  0.68360E-04
 0.45280010E+02  0.10303E-03
 0.45330013E+02  0.11168E-03
 0.45380013E+02 -0.11558E-03
 0.45430012E+02 -0.32340E-03
 0.45480011E+02 -0.34281E-03
 0.45530010E+02 -0.14159E-03
 0.45580013E+02  0.96004E-04
 0.45630013E+02  0.15228E-03
 0.45680012E+02  0.19979E-04
 0.45730011E+02 -0.13036E-03
 0.45780010E+02 -0.19804E-03
 0.45830013E+02 -0.10003E-03
 0.45880013E+02  0.13368E-03
 0.45930012E+02  0.17233E-04
 0.45980011E+02 -0.31471E-03
 0.46030010E+02 -0.40803E-03
 0.46080013E+02 -0.31062E-03
 0.46130013E+02 -0.13093E-03
 0.46180012E+02 -0.10960E-03
 0.46230011E+02 -0.19546E-03
 0.46280010E+02 -0.20730E-03
 0.46330013E+02 -0.63116E-04
 0.46380013E+02  0.25680E-03
 0.46430012E+02  0.47509E-03
 0.46480011E+02  0.54989E-03
 0.46530010E+02  0.60334E-03
 0.46580013E+02  0.60689E-03
 0.46630013E+02  0.49988E-03
 0.46680012E+02  0.37131E-03
 0.46730011E+02  0.29171E-03
 0.46780010E+02  0.24757E-03
 0.46830013E+02  0.15517E-03
 0.46880013E+02 -0.56528E-04
 0.46930012E+02 -0.16556E-03
 0.46980011E+02 -0.19031E-03
 0.47030010E+02 -0.26129E-03
 0.47080013E+02 -0.24976E-03
 0.47130013E+02 -0.19661E-03
 0.47180012E+02 -0.26610E-03
 0.47230011E+02 -0.33554E-03
 0.47280010E+02 -0.33481E-03
 0.47330013E+02 -0.43178E-03
 0.47380013E+02 -0.46292E-03
 0.47430012E+02 -0.27603E-03
 0.47480011E+02 -0.26747E-04
 0.47530010E+02  0.26677E-03
 0.47580013E+02  0.43699E-03
 0.47630013E+02  0.37337E-03
 0.47680012E+02  0.28352E-03
 0.47730011E+02  0.10601E-03
 0.47780010E+02 -0.11355E-03
 0.47830013E+02 -0.31799E-03
 0.47880013E+02 -0.42566E-03
 0.47930012E+02 -0.20865E-03
 0.47980011E+02  0.85558E-04
 0.48030010E+02  0.16383E-03
 0.48080013E+02  0.50049E-04
 0.48130013E+02 -0.72234E-04
 0.48180012E+02 -0.16337E-03
 0.48230011E+02 -0.22718E-03
 0.48280010E+02 -0.23601E-03
 0.48330013E+02 -0.20396E-03
 0.48380013E+02 -0.13599E-03
 0.48430012E+02 -0.14154E-03
 0.48480011E+02 -0.13334E-03
 0.48530010E+02  0.73811E-05
 0.48580013E+02  0.18087E-03
 0.48630013E+02  0.41211E-03
 0.48680012E+02  0.72897E-03
 0.48730011E+02  0.86564E-03
 0.48780010E+02  0.69113E-03
 0.48830013E+02  0.42040E-03
 0.48880013E+02  0.16024E-03
 0.48930012E+02 -0.84399E-04
 0.48980011E+02 -0.28294E-03
 0.49030010E+02 -0.42368E-03
 0.49080013E+02 -0.39428E-03
 0.49130013E+02 -0.30112E-03
 0.49180012E+02 -0.40160E-03
 0.49230011E+02 -0.64294E-03
 0.49280010E+02 -0.81486E-03
 0.49330013E+02 -0.80705E-03
 0.49380013E+02 -0.57481E-03
 0.49430012E+02 -0.14591E-03
 0.49480011E+02  0.30204E-03
 0.49530010E+02  0.63819E-03
 0.49580013E+02  0.73960E-03
 0.49630013E+02  0.69266E-03
 0.49680012E+02  0.63663E-03
 0.49730011E+02  0.44883E-03
 0.49780010E+02  0.21633E-03
 0.49830013E+02 -0.33445E-04
 0.49880013E+02 -0.27831E-03
 0.49930012E+02 -0.38625E-03
 0.49980011E+02 -0.35851E-03
 0.50030010E+02 -0.24427E-03
 0.50080013E+02 -0.17788E-03
 0.50130013E+02 -0.11639E-03
 0.50180012E+02 -0.82915E-04
 0.50230011E+02 -0.90361E-04
 0.50280010E+02  0.28749E-04
 0.50330013E+02  0.21146E-03
 0.50380013E+02  0.34654E-03
 0.50430012E+02  0.48028E-03
 0.50480011E+02  0.53002E-03
 0.50530010E+02  0.40847E-03
 0.50580013E+02  0.32689E-03
 0.50630013E+02  0.26308E-03
 0.50680012E+02  0.14697E-03
 0.50730011E+02  0.14394E-04
 0.50780010E+02 -0.15774E-03
 0.50830013E+02 -0.16476E-03
 0.50880013E+02  0.38108E-04
 0.50930012E+02  0.21651E-03
 0.50980011E+02  0.37225E-04
 0.51030010E+02 -0.37167E-03
 0.51080013E+02 -0.67991E-03
 0.51130013E+02 -0.89443E-03
 0.51180012E+02 -0.85016E-03
 0.51230011E+02 -0.52594E-03
 0.51280010E+02 -0.18192E-03
 0.51330013E+02 -0.21500E-04
 0.51380013E+02  0.36176E-04
 0.51430012E+02  0.12438E-03
 0.51480011E+02  0.10930E-03
 0.51530010E+02  0.22906E-04
 0.51580013E+02 -0.32849E-04
 0.51630013E+02 -0.10184E-03
 0.51680012E+02 -0.16403E-03
 0.51730011E+02 -0.12472E-03
 0.51780010E+02  0.18387E-05
 0.51830013E+02  0.15487E-03
 0.51880013E+02  0.37782E-03
 0.51930012E+02  0.55782E-03
 0.51980011E+02  0.55940E-03
 0.52030010E+02  0.47956E-03
 0.52080013E+02  0.36693E-03
 0.52130013E+02  0.29383E-03
 0.52180012E+02  0.24839E-03
 0.52230011E+02  0.12112E-03
 0.52280010E+02  0.89167E-04
 0.52330013E+02  0.15954E-03
 0.52380013E+02  0.15694E-03
 0.52430012E+02  0.10582E-03
 0.52480011E+02  0.58290E-04
 0.52530010E+02  0.14038E-04
 0.52580013E+02 -0.21927E-04
 0.52630013E+02  0.31713E-04
 0.52680012E+02  0.77666E-04
 0.52730011E+02 -0.24862E-04
 0.52780010E+02 -0.10239E-03
 0.52830013E+02 -0.91900E-04
 0.52880013E+02 -0.11815E-03
 0.52930012E+02 -0.69014E-04
 0.52980011E+02  0.25384E-04
 0.53030010E+02 -0.39903E-04
 0.53080013E+02 -0.10523E-03
 0.53130013E+02 -0.90502E-04
 0.53180012E+02 -0.14087E-03
 0.53230011E+02 -0.18202E-03
 0.53280010E+02 -0.13645E-03
 0.53330013E+02 -0.14308E-03
 0.53380013E+02 -0.21744E-03
 0.53430012E+02 -0.26779E-03
 0.53480011E+02 -0.34863E-03
 0.53530010E+02 -0.40925E-03
 0.53580013E+02 -0.34466E-03
 0.53630013E+02 -0.26122E-03
 0.53680012E+02 -0.23651E-03
 0.53730011E+02 -0.12192E-03
 0.53780010E+02  0.26651E-04
 0.53830013E+02  0.52927E-04
 0.53880013E+02  0.42120E-04
 0.53930012E+02 -0.82219E-06
 0.53980011E+02 -0.23546E-04
 0.54030010E+02  0.21951E-04
 0.54080013E+02  0.37455E-04
 0.54130013E+02  0.22991E-04
 0.54180012E+02  0.14761E-03
 0.54230011E+02  0.38077E-03
 0.54280010E+02  0.41145E-03
 0.54330013E+02  0.27847E-03
 0.54380013E+02  0.16684E-03
 0.54430012E+02  0.13041E-03
 0.54480011E+02  0.17473E-03
 0.54530010E+02  0.14126E-03
 0.54580013E+02 -0.88489E-04
 0.54630013E+02 -0.36053E-03
 0.54680012E+02 -0.43917E-03
 0.54730011E+02 -0.34972E-03
 0.54780010E+02 -0.21676E-03
 0.54830013E+02 -0.15608E-03
 0.54880013E+02 -0.16926E-03
 0.54930012E+02 -0.98871E-04
 0.54980011E+02 -0.59167E-04
 0.55030010E+02 -0.15007E-03
 0.55080013E+02 -0.20437E-03
 0.55130013E+02 -0.16284E-03
 0.55180012E+02 -0.16276E-04
 0.55230011E+02  0.18576E-03
 0.55280010E+02  0.31382E-03
 0.55330013E+02  0.37213E-03
 0.55380013E+02  0.44410E-03
 0.55430012E+02  0.51560E-03
 0.55480011E+02  0.47852E-03
 0.55530010E+02  0.33741E-03
 0.55580013E+02  0.22632E-03
 0.55630013E+02  0.16797E-03
 0.55680012E+02  0.11173E-03
 0.55730011E+02  0.16754E-04
 0.55780010E+02 -0.11570E-03
 0.55830013E+02 -0.21056E-03
 0.55880013E+02 -0.27899E-03
 0.55930012E+02 -0.21356E-03
 0.55980011E+02  0.10124E-04
 0.56030010E+02  0.19111E-03
 0.56080013E+02  0.27747E-03
 0.56130013E+02  0.25426E-03
 0.56180012E+02  0.21257E-03
 0.56230011E+02  0.17012E-03
 0.56280010E+02 -0.30597E-08
 0.56330013E+02 -0.22491E-03
 0.56380013E+02 -0.38366E-03
 0.56430012E+02 -0.47875E-03
 0.56480011E+02 -0.47463E-03
 0.56530010E+02 -0.34706E-03
 0.56580013E+02 -0.20894E-03
 0.56630013E+02 -0.73540E-04
 0.56680012E+02 -0.11169E-04
 0.56730011E+02 -0.56039E-04
 0.56780010E+02 -0.20688E-04
 0.56830013E+02  0.12417E-03
 0.56880013E+02  0.34137E-03
 0.56930012E+02  0.55506E-03
 0.56980011E+02  0.66061E-03
 0.57030010E+02  0.63452E-03
 0.57080013E+02  0.41143E-03
 0.57130013E+02  0.16678E-03
 0.57180012E+02  0.70450E-04
 0.57230011E+02  0.56435E-05
 0.57280010E+02 -0.68157E-04
 0.57330013E+02 -0.21491E-03
 0.57380013E+02 -0.43158E-03
 0.57430012E+02 -0.55536E-03
 0.57480011E+02 -0.57651E-03
 0.57530010E+02 -0.53569E-03
 0.57580013E+02 -0.43766E-03
 0.57630013E+02 -0.34278E-03
 0.57680012E+02 -0.23455E-03
 0.57730011E+02 -0.11348E-03
 0.57780010E+02  0.22068E-04
 0.57830013E+02  0.18506E-03
 0.57880013E+02  0.21123E-03
 0.57930012E+02  0.50453E-04
 0.57980011E+02 -0.17337E-03
 0.58030010E+02 -0.28122E-03
 0.58080013E+02 -0.18086E-03
 0.58130013E+02  0.59125E-04
 0.58180012E+02  0.31722E-03
 0.58230011E+02  0.46609E-03
 0.58280010E+02  0.53177E-03
 0.58330013E+02  0.53574E-03
 0.58380013E+02  0.47825E-03
 0.58430012E+02  0.33618E-03
 0.58480011E+02  0.10098E-03
 0.58530010E+02 -0.11092E-03
 0.58580013E+02 -0.25321E-03
 0.58630013E+02 -0.30013E-03
 0.58680012E+02 -0.30976E-03
 0.58730011E+02 -0.32936E-03
 0.58780010E+02 -0.30031E-03
 0.58830013E+02 -0.24641E-03
 0.58880013E+02 -0.12376E-03
 0.58930012E+02  0.67198E-04
 0.58980011E+02  0.16055E-03
 0.59030010E+02  0.10661E-03
 0.59080013E+02 -0.10580E-04
 0.59130013E+02 -0.86095E-04
 0.59180012E+02 -0.88642E-04
 0.59230011E+02 -0.71495E-04
 0.59280010E+02 -0.61485E-04
 0.59330013E+02 -0.54792E-04
 0.59380013E+02 -0.58207E-04
 0.59430012E+02 -0.37366E-04
 0.59480011E+02  0.33024E-04
 0.59530010E+02  0.85555E-04
 0.59580013E+02  0.13072E-03
 0.59630013E+02  0.16637E-03
 0.59680012E+02  0.75406E-04
 0.59730011E+02 -0.13437E-03
 0.59780010E+02 -0.33029E-03
 0.59830013E+02 -0.43008E-03
 0.59880013E+02 -0.39913E-03
 0.59930012E+02 -0.19814E-03
 0.59980011E+02  0.10471E-03
 0.60030010E+02  0.33022E-03
 0.60080013E+02  0.37873E-03
 0.60130013E+02  0.35312E-03
 0.60180012E+02  0.34671E-03
 0.60230011E+02  0.29293E-03
 0.60280010E+02  0.19987E-03
 0.60330013E+02  0.14474E-03
 0.60380013E+02  0.14182E-03
 0.60430012E+02  0.14989E-03
 0.60480011E+02  0.97831E-04
 0.60530010E+02 -0.36144E-04
 0.60580013E+02 -0.14304E-03
 0.60630013E+02 -0.14702E-03
 0.60680012E+02 -0.73744E-04
 0.60730011E+02  0.89157E-04
 0.60780010E+02  0.22983E-03
 0.60830013E+02  0.23666E-03
 0.60880013E+02  0.15910E-03
 0.60930012E+02  0.73926E-04
 0.60980011E+02  0.89360E-04
 0.61030010E+02  0.17424E-03
 0.61080013E+02  0.24211E-03
 0.61130013E+02  0.30710E-03
 0.61180012E+02  0.32376E-03
 0.61230011E+02  0.26854E-03
 0.61280010E+02  0.16251E-03
 0.61330013E+02 -0.23092E-04
 0.61380013E+02 -0.22081E-03
 0.61430012E+02 -0.31554E-03
 0.61480011E+02 -0.36834E-03
 0.61530010E+02 -0.44788E-03
 0.61580013E+02 -0.50932E-03
 0.61630013E+02 -0.55230E-03
 0.61680012E+02 -0.57411E-03
 0.61730011E+02 -0.52749E-03
 0.61780010E+02 -0.45549E-03
 0.61830013E+02 -0.39415E-03
 0.61880013E+02 -0.31860E-03
 0.61930012E+02 -0.25076E-03
 0.61980011E+02 -0.15890E-03
 0.62030010E+02 -0.36398E-04
 0.62080013E+02  0.65028E-04
 0.62130013E+02  0.18640E-03
 0.62180012E+02  0.31360E-03
 0.62230011E+02  0.34413E-03
 0.62280010E+02  0.26436E-03
 0.62330013E+02  0.12421E-03
 0.62380013E+02 -0.20473E-04
 0.62430012E+02 -0.13377E-03
 0.62480011E+02 -0.17694E-03
 0.62530010E+02 -0.10305E-03
 0.62580013E+02  0.39933E-04
 0.62630013E+02  0.22760E-03
 0.62680012E+02  0.44469E-03
 0.62730011E+02  0.58495E-03
 0.62780010E+02  0.63075E-03
 0.62830013E+02  0.58538E-03
 0.62880013E+02  0.42502E-03
 0.62930012E+02  0.22456E-03
 0.62980011E+02  0.46065E-04
 0.63030010E+02 -0.11296E-03
 0.63080013E+02 -0.19489E-03
 0.63130013E+02 -0.16667E-03
 0.63180012E+02 -0.11802E-03
 0.63230011E+02 -0.59916E-04
 0.63280010E+02  0.27703E-04
 0.63330013E+02  0.82030E-04
 0.63380013E+02  0.67700E-04
 0.63430012E+02 -0.15622E-04
 0.63480011E+02 -0.12824E-03
 0.63530010E+02 -0.22169E-03
 0.63580013E+02 -0.25692E-03
 0.63630013E+02 -0.23898E-03
 0.63680012E+02 -0.20907E-03
 0.63730011E+02 -0.21432E-03
 0.63780010E+02 -0.26351E-03
 0.63830013E+02 -0.25768E-03
 0.63880013E+02 -0.19856E-03
 0.63930012E+02 -0.14322E-03
 0.63980011E+02 -0.68672E-04
 0.64030014E+02 -0.14478E-04
 0.64080009E+02 -0.18853E-04
 0.64130013E+02 -0.49741E-04
 0.64180016E+02 -0.57037E-04
 0.64230011E+02 -0.20861E-04
 0.64280014E+02  0.61334E-04
 0.64330009E+02  0.19204E-03
 0.64380013E+02  0.27671E-03
 0.64430016E+02  0.26995E-03
 0.64480011E+02  0.24586E-03
 0.64530014E+02  0.22626E-03
 0.64580009E+02  0.19443E-03
 0.64630013E+02  0.14684E-03
 0.64680016E+02  0.11797E-03
 0.64730011E+02  0.82579E-04
 0.64780014E+02  0.14304E-04
 0.64830009E+02 -0.23673E-04
 0.64880013E+02 -0.15053E-04
 0.64930016E+02 -0.31098E-05
 0.64980011E+02  0.18616E-05
 0.65030014E+02  0.43500E-04
 0.65080009E+02  0.75126E-04
 0.65130013E+02  0.56464E-04
 0.65180016E+02  0.60054E-04
 0.65230011E+02  0.94362E-04
 0.65280014E+02  0.14294E-03
 0.65330009E+02  0.19978E-03
 0.65380013E+02  0.20044E-03
 0.65430016E+02  0.86748E-04
 0.65480011E+02 -0.12414E-03
 0.65530014E+02 -0.33156E-03
 0.65580009E+02 -0.41170E-03
 0.65630013E+02 -0.33970E-03
 0.65680016E+02 -0.22840E-03
 0.65730011E+02 -0.18388E-03
 0.65780014E+02 -0.17019E-03
 0.65830009E+02 -0.13645E-03
 0.65880013E+02 -0.93586E-04
 0.65930016E+02 -0.16944E-04
 0.65980011E+02  0.58864E-04
 0.66030014E+02  0.14487E-03
 0.66080009E+02  0.24464E-03
 0.66130013E+02  0.22539E-03
 0.66180016E+02  0.13187E-03
 0.66230011E+02  0.32206E-04
 0.66280014E+02 -0.80876E-04
 0.66330009E+02 -0.15778E-03
 0.66380013E+02 -0.20853E-03
 0.66430016E+02 -0.22989E-03
 0.66480011E+02 -0.21001E-03
 0.66530014E+02 -0.16618E-03
 0.66580009E+02 -0.12423E-03
 0.66630013E+02 -0.14565E-03
 0.66680016E+02 -0.21351E-03
 0.66730011E+02 -0.23716E-03
 0.66780014E+02 -0.17358E-03
 0.66830009E+02 -0.44036E-04
 0.66880013E+02  0.85057E-04
 0.66930016E+02  0.19986E-03
 0.66980011E+02  0.33005E-03
 0.67030014E+02  0.42610E-03
 0.67080009E+02  0.44363E-03
 0.67130013E+02  0.40519E-03
 0.67180016E+02  0.33943E-03
 0.67230011E+02  0.21146E-03
 0.67280014E+02  0.35233E-04
 0.67330009E+02 -0.70426E-04
 0.67380013E+02 -0.12816E-03
 0.67430016E+02 -0.17738E-03
 0.67480011E+02 -0.20501E-03
 0.67530014E+02 -0.23148E-03
 0.67580009E+02 -0.22928E-03
 0.67630013E+02 -0.22054E-03
 0.67680016E+02 -0.22321E-03
 0.67730011E+02 -0.20778E-03
 0.67780014E+02 -0.17585E-03
 0.67830009E+02 -0.11052E-03
 0.67880013E+02  0.18950E-04
 0.67930016E+02  0.14120E-03
 0.67980011E+02  0.16009E-03
 0.68030014E+02  0.12712E-03
 0.68080009E+02  0.10213E-03
 0.68130013E+02  0.78290E-04
 0.68180016E+02  0.91074E-04
 0.68230011E+02  0.15711E-03
 0.68280014E+02  0.22764E-03
 0.68330009E+02  0.26806E-03
 0.68380013E+02  0.28829E-03
 0.68430016E+02  0.26808E-03
 0.68480011E+02  0.13536E-03
 0.68530014E+02 -0.63607E-04
 0.68580009E+02 -0.20685E-03
 0.68630013E+02 -0.25446E-03
 0.68680016E+02 -0.16821E-03
 0.68730011E+02  0.17084E-04
 0.68780014E+02  0.19454E-03
 0.68830009E+02  0.27125E-03
 0.68880013E+02  0.22076E-03
 0.68930016E+02  0.13839E-03
 0.68980011E+02  0.42964E-04
 0.69030014E+02 -0.56378E-04
 0.69080009E+02 -0.91047E-04
 0.69130013E+02 -0.10429E-03
 0.69180016E+02 -0.14419E-03
 0.69230011E+02 -0.15963E-03
 0.69280014E+02 -0.12048E-03
 0.69330009E+02 -0.47617E-04
 0.69380013E+02  0.43316E-04
 0.69430016E+02  0.92240E-04
 0.69480011E+02  0.87675E-04
 0.69530014E+02  0.85537E-04
 0.69580009E+02  0.67871E-04
 0.69630013E+02  0.33324E-04
 0.69680016E+02  0.14850E-04
 0.69730011E+02 -0.30744E-04
 0.69780014E+02 -0.11657E-03
 0.69830009E+02 -0.16389E-03
 0.69880013E+02 -0.13278E-03
 0.69930016E+02 -0.54152E-04
 0.69980011E+02  0.73362E-05
 0.70030014E+02  0.40458E-04
 0.70080009E+02  0.88040E-04
 0.70130013E+02  0.10101E-03
 0.70180016E+02  0.65565E-04
 0.70230011E+02  0.50250E-04
 0.70280014E+02  0.21949E-04
 0.70330009E+02 -0.61908E-04
 0.70380013E+02 -0.13467E-03
 0.70430016E+02 -0.15442E-03
 0.70480011E+02 -0.16357E-03
 0.70530014E+02 -0.18937E-03
 0.70580009E+02 -0.22962E-03
 0.70630013E+02 -0.25538E-03
 0.70680016E+02 -0.24707E-03
 0.70730011E+02 -0.21517E-03
 0.70780014E+02 -0.18399E-03
 0.70830009E+02 -0.14911E-03
 0.70880013E+02 -0.73865E-04
 0.70930016E+02 -0.21597E-05
 0.70980011E+02  0.31246E-04
 0.71030014E+02  0.76672E-04
 0.71080009E+02  0.15769E-03
 0.71130013E+02  0.22977E-03
 0.71180016E+02  0.25788E-03
 0.71230011E+02  0.26069E-03
 0.71280014E+02  0.23626E-03
 0.71330009E+02  0.16115E-03
 0.71380013E+02  0.70569E-04
 0.71430016E+02  0.78470E-05
 0.71480011E+02 -0.44852E-04
 0.71530014E+02 -0.69552E-04
 0.71580009E+02 -0.25838E-04
 0.71630013E+02  0.20669E-04
 0.71680016E+02  0.30859E-04
 0.71730011E+02  0.29656E-04
 0.71780014E+02  0.22650E-04
 0.71830009E+02  0.39271E-04
 0.71880013E+02  0.58266E-04
 0.71930016E+02  0.50256E-04
 0.71980011E+02  0.19660E-04
 0.72030014E+02 -0.11730E-04
 0.72080009E+02 -0.13824E-06
 0.72130013E+02  0.27782E-04
 0.72180016E+02  0.22253E-04
 0.72230011E+02 -0.20889E-04
 0.72280014E+02 -0.82782E-04
 0.72330009E+02 -0.15540E-03
 0.72380013E+02 -0.21943E-03
 0.72430016E+02 -0.23324E-03
 0.72480011E+02 -0.19764E-03
 0.72530014E+02 -0.10383E-03
 0.72580009E+02  0.46196E-04
 0.72630013E+02  0.14485E-03
 0.72680016E+02  0.13306E-03
 0.72730011E+02  0.89745E-04
 0.72780014E+02  0.98424E-04
 0.72830009E+02  0.18461E-03
 0.72880013E+02  0.31826E-03
 0.72930016E+02  0.39965E-03
 0.72980011E+02  0.38046E-03
 0.73030014E+02  0.31561E-03
 0.73080009E+02  0.21015E-03
 0.73130013E+02  0.63698E-04
 0.73180016E+02 -0.70542E-04
 0.73230011E+02 -0.20819E-03
 0.73280014E+02 -0.35945E-03
 0.73330009E+02 -0.42711E-03
 0.73380013E+02 -0.38722E-03
 0.73430016E+02 -0.32373E-03
 0.73480011E+02 -0.25597E-03
 0.73530014E+02 -0.21041E-03
 0.73580009E+02 -0.20369E-03
 0.73630013E+02 -0.16584E-03
 0.73680016E+02 -0.93965E-04
 0.73730011E+02  0.19996E-05
 0.73780014E+02  0.10139E-03
 0.73830009E+02  0.14268E-03
 0.73880013E+02  0.12024E-03
 0.73930016E+02  0.67000E-04
 0.73980011E+02  0.59738E-04
 0.74030014E+02  0.99474E-04
 0.74080009E+02  0.13679E-03
 0.74130013E+02  0.15823E-03
 0.74180016E+02  0.13959E-03
 0.74230011E+02  0.13082E-03
 0.74280014E+02  0.18247E-03
 0.74330009E+02  0.24125E-03
 0.74380013E+02  0.23421E-03
 0.74430016E+02  0.13986E-03
 0.74480011E+02  0.32738E-05
 0.74530014E+02 -0.10608E-03
 0.74580009E+02 -0.16601E-03
 0.74630013E+02 -0.21172E-03
 0.74680016E+02 -0.24709E-03
 0.74730011E+02 -0.23028E-03
 0.74780014E+02 -0.18947E-03
 0.74830009E+02 -0.17013E-03
 0.74880013E+02 -0.15226E-03
 0.74930016E+02 -0.12328E-03
 0.74980011E+02 -0.83199E-04
 0.75030014E+02 -0.38827E-04
 0.75080009E+02  0.11235E-04
 0.75130013E+02  0.78036E-04
 0.75180016E+02  0.15885E-03
 0.75230011E+02  0.24317E-03
 0.75280014E+02  0.29056E-03
 0.75330009E+02  0.26044E-03
 0.75380013E+02  0.15081E-03
 0.75430016E+02  0.43652E-04
 0.75480011E+02 -0.10085E-04
 0.75530014E+02 -0.45580E-04
 0.75580009E+02 -0.62426E-04
 0.75630013E+02 -0.79422E-04
 0.75680016E+02 -0.91996E-04
 0.75730011E+02 -0.78862E-04
 0.75780014E+02 -0.47735E-04
 0.75830009E+02  0.82145E-05
 0.75880013E+02  0.46045E-04
 0.75930016E+02  0.18128E-04
 0.75980011E+02 -0.36052E-04
 0.76030014E+02 -0.51048E-04
 0.76080009E+02 -0.37595E-04
 0.76130013E+02 -0.47053E-05
 0.76180016E+02  0.36426E-04
 0.76230011E+02  0.45817E-04
 0.76280014E+02  0.27827E-04
 0.76330009E+02 -0.10521E-05
 0.76380013E+02 -0.23864E-04
 0.76430016E+02 -0.55674E-04
 0.76480011E+02 -0.93867E-04
 0.76530014E+02 -0.91006E-04
 0.76580009E+02 -0.25628E-04
 0.76630013E+02  0.46130E-04
 0.76680016E+02  0.58417E-04
 0.76730011E+02  0.33639E-04
 0.76780014E+02 -0.24374E-04
 0.76830009E+02 -0.87252E-04
 0.76880013E+02 -0.90792E-04
 0.76930016E+02 -0.55194E-04
 0.76980011E+02 -0.28165E-05
 0.77030014E+02  0.77887E-04
 0.77080009E+02  0.16569E-03
 0.77130013E+02  0.23830E-03
 0.77180016E+02  0.27589E-03
 0.77230011E+02  0.25351E-03
 0.77280014E+02  0.22314E-03
 0.77330009E+02  0.20710E-03
 0.77380013E+02  0.16712E-03
 0.77430016E+02  0.96770E-04
 0.77480011E+02  0.43182E-05
 0.77530014E+02 -0.59981E-04
 0.77580009E+02 -0.87870E-04
 0.77630013E+02 -0.10331E-03
 0.77680016E+02 -0.95570E-04
 0.77730011E+02 -0.77549E-04
 0.77780014E+02 -0.43856E-04
 0.77830009E+02 -0.19687E-05
 0.77880013E+02 -0.93871E-05
 0.77930016E+02 -0.50537E-04
 0.77980011E+02 -0.77874E-04
 0.78030014E+02 -0.13032E-03
 0.78080009E+02 -0.20813E-03
 0.78130013E+02 -0.24066E-03
 0.78180016E+02 -0.23635E-03
 0.78230011E+02 -0.23207E-03
 0.78280014E+02 -0.20532E-03
 0.78330009E+02 -0.18563E-03
 0.78380013E+02 -0.20097E-03
 0.78430016E+02 -0.19240E-03
 0.78480011E+02 -0.15337E-03
 0.78530014E+02 -0.12095E-03
 0.78580009E+02 -0.86533E-04
 0.78630013E+02 -0.24138E-04
 0.78680016E+02  0.48076E-04
 0.78730011E+02  0.98618E-04
 0.78780014E+02  0.13858E-03
 0.78830009E+02  0.18270E-03
 0.78880013E+02  0.22881E-03
 0.78930016E+02  0.27508E-03
 0.78980011E+02  0.31033E-03
 0.79030014E+02  0.30324E-03
 0.79080009E+02  0.27637E-03
 0.79130013E+02  0.24525E-03
 0.79180016E+02  0.16376E-03
 0.79230011E+02  0.74206E-04
 0.79280014E+02 -0.11366E-05
 0.79330009E+02 -0.59021E-04
 0.79380013E+02 -0.10383E-03
 0.79430016E+02 -0.21483E-03
 0.79480011E+02 -0.33728E-03
 0.79530014E+02 -0.37049E-03
 0.79580009E+02 -0.27840E-03
 0.79630013E+02 -0.13191E-03
 0.79680016E+02  0.23086E-04
 0.79730011E+02  0.15901E-03
 0.79780014E+02  0.18808E-03
 0.79830009E+02  0.19683E-03
 0.79880013E+02  0.17874E-03
 0.79930016E+02  0.10629E-03
 0.79980011E+02  0.80454E-04
 0.80030014E+02  0.78256E-04
 0.80080009E+02  0.57820E-04
 0.80130013E+02  0.28412E-04
 0.80180016E+02  0.77053E-05
 0.80230011E+02  0.82789E-06
 0.80280014E+02 -0.22964E-05
 0.80330009E+02 -0.32584E-04
 0.80380013E+02 -0.72886E-04
 0.80430016E+02 -0.95267E-04
 0.80480011E+02 -0.13664E-03
 0.80530014E+02 -0.16866E-03
 0.80580009E+02 -0.16157E-03
 0.80630013E+02 -0.14155E-03
 0.80680016E+02 -0.10225E-03
 0.80730011E+02 -0.17118E-04
 0.80780014E+02  0.82117E-04
 0.80830009E+02  0.14346E-03
 0.80880013E+02  0.17407E-03
 0.80930016E+02  0.16704E-03
 0.80980011E+02  0.14775E-03
 0.81030014E+02  0.14418E-03
 0.81080009E+02  0.12346E-03
 0.81130013E+02  0.86785E-04
 0.81180016E+02  0.43919E-04
 0.81230011E+02 -0.31442E-05
 0.81280014E+02 -0.17833E-04
 0.81330009E+02 -0.70759E-05
 0.81380013E+02 -0.43683E-04
 0.81430016E+02 -0.93244E-04
 0.81480011E+02 -0.12117E-03
 0.81530014E+02 -0.15369E-03
 0.81580009E+02 -0.17638E-03
 0.81630013E+02 -0.19505E-03
 0.81680016E+02 -0.16460E-03
 0.81730011E+02 -0.92124E-04
 0.81780014E+02 -0.13676E-04
 0.81830009E+02  0.94130E-04
 0.81880013E+02  0.15710E-03
 0.81930016E+02  0.12879E-03
 0.81980011E+02  0.46031E-04
 0.82030014E+02 -0.51415E-04
 0.82080009E+02 -0.12397E-03
 0.82130013E+02 -0.14432E-03
 0.82180016E+02 -0.11462E-03
 0.82230011E+02 -0.63990E-04
 0.82280014E+02 -0.75088E-05
 0.82330009E+02  0.20950E-04
 0.82380013E+02  0.42028E-04
 0.82430016E+02  0.74779E-04
 0.82480011E+02  0.85757E-04
 0.82530014E+02  0.10540E-03
 0.82580009E+02  0.13860E-03
 0.82630013E+02  0.18092E-03
 0.82680016E+02  0.21894E-03
 0.82730011E+02  0.21371E-03
 0.82780014E+02  0.17146E-03
 0.82830009E+02  0.77935E-04
 0.82880013E+02 -0.25739E-04
 0.82930016E+02 -0.73159E-04
 0.82980011E+02 -0.69088E-04
 0.83030014E+02 -0.20502E-04
 0.83080009E+02  0.37075E-04
 0.83130013E+02  0.64768E-04
 0.83180016E+02  0.43806E-04
 0.83230011E+02  0.28604E-05
 0.83280014E+02 -0.41798E-04
 0.83330009E+02 -0.13162E-03
 0.83380013E+02 -0.20615E-03
 0.83430016E+02 -0.23486E-03
 0.83480011E+02 -0.24064E-03
 0.83530014E+02 -0.19194E-03
 0.83580009E+02 -0.13751E-03
 0.83630013E+02 -0.12204E-03
 0.83680016E+02 -0.10890E-03
 0.83730011E+02 -0.76311E-04
 0.83780014E+02 -0.26684E-04
 0.83830009E+02  0.19146E-04
 0.83880013E+02  0.26030E-04
 0.83930016E+02 -0.14697E-06
 0.83980011E+02 -0.29426E-04
 0.84030014E+02 -0.40738E-04
 0.84080009E+02  0.13920E-05
 0.84130013E+02  0.80421E-04
 0.84180016E+02  0.14404E-03
 0.84230011E+02  0.20099E-03
 0.84280014E+02  0.22165E-03
 0.84330009E+02  0.16584E-03
 0.84380013E+02  0.96163E-04
 0.84430016E+02  0.47569E-04
 0.84480011E+02  0.26055E-04
 0.84530014E+02  0.20536E-04
 0.84580009E+02  0.48344E-05
 0.84630013E+02 -0.12634E-04
 0.84680016E+02 -0.39201E-04
 0.84730011E+02 -0.58552E-04
 0.84780014E+02 -0.71040E-04
 0.84830009E+02 -0.85460E-04
 0.84880013E+02 -0.97778E-04
 0.84930016E+02 -0.11998E-03
 0.84980011E+02 -0.11762E-03
 0.85030014E+02 -0.82309E-04
 0.85080009E+02 -0.37212E-04
 0.85130013E+02  0.20734E-04
 0.85180016E+02  0.69965E-04
 0.85230011E+02  0.11203E-03
 0.85280014E+02  0.15902E-03
 0.85330009E+02  0.19409E-03
 0.85380013E+02  0.20021E-03
 0.85430016E+02  0.16315E-03
 0.85480011E+02  0.11587E-03
 0.85530014E+02  0.72649E-04
 0.85580009E+02  0.45950E-04
 0.85630013E+02  0.46583E-04
 0.85680016E+02  0.40928E-04
 0.85730011E+02  0.55736E-05
 0.85780014E+02 -0.71749E-04
 0.85830009E+02 -0.15377E-03
 0.85880013E+02 -0.21813E-03
 0.85930016E+02 -0.24762E-03
 0.85980011E+02 -0.22579E-03
 0.86030014E+02 -0.18724E-03
 0.86080009E+02 -0.13770E-03
 0.86130013E+02 -0.87182E-04
 0.86180016E+02 -0.64886E-04
 0.86230011E+02 -0.68612E-04
 0.86280014E+02 -0.76755E-04
 0.86330009E+02 -0.71581E-04
 0.86380013E+02 -0.52321E-04
 0.86430016E+02 -0.64153E-05
 0.86480011E+02  0.62564E-04
 0.86530014E+02  0.12763E-03
 0.86580009E+02  0.18861E-03
 0.86630013E+02  0.24220E-03
 0.86680016E+02  0.28809E-03
 0.86730011E+02  0.32708E-03
 0.86780014E+02  0.35384E-03
 0.86830009E+02  0.34874E-03
 0.86880013E+02  0.27722E-03
 0.86930016E+02  0.16143E-03
 0.86980011E+02  0.37012E-04
 0.87030014E+02 -0.95157E-04
 0.87080009E+02 -0.19825E-03
 0.87130013E+02 -0.24175E-03
 0.87180016E+02 -0.24772E-03
 0.87230011E+02 -0.23137E-03
 0.87280014E+02 -0.21068E-03
 0.87330009E+02 -0.18735E-03
 0.87380013E+02 -0.15520E-03
 0.87430016E+02 -0.12863E-03
 0.87480011E+02 -0.99520E-04
 0.87530014E+02 -0.62700E-04
 0.87580009E+02 -0.32073E-04
 0.87630013E+02  0.22334E-05
 0.87680016E+02  0.59760E-04
 0.87730011E+02  0.12498E-03
 0.87780014E+02  0.16962E-03
 0.87830009E+02  0.16480E-03
 0.87880013E+02  0.11250E-03
 0.87930016E+02  0.53553E-04
 0.87980011E+02  0.14224E-04
 0.88030014E+02  0.88073E-05
 0.88080009E+02  0.10673E-04
 0.88130013E+02  0.19507E-05
 0.88180016E+02  0.90790E-05
 0.88230011E+02  0.19305E-04
 0.88280014E+02  0.52618E-05
 0.88330009E+02 -0.47962E-04
 0.88380013E+02 -0.12068E-03
 0.88430016E+02 -0.16905E-03
 0.88480011E+02 -0.20275E-03
 0.88530014E+02 -0.21965E-03
 0.88580009E+02 -0.20676E-03
 0.88630013E+02 -0.17362E-03
 0.88680016E+02 -0.11420E-03
 0.88730011E+02 -0.41366E-04
 0.88780014E+02  0.40337E-04
 0.88830009E+02  0.11080E-03
 0.88880013E+02  0.15356E-03
 0.88930016E+02  0.16878E-03
 0.88980011E+02  0.17556E-03
 0.89030014E+02  0.17777E-03
 0.89080009E+02  0.15520E-03
 0.89130013E+02  0.15516E-03
 0.89180016E+02  0.11558E-03
 0.89230011E+02  0.42411E-04
 0.89280014E+02  0.73665E-05
 0.89330009E+02 -0.32167E-04
 0.89380013E+02 -0.42112E-04
 0.89430016E+02 -0.40589E-04
 0.89480011E+02 -0.43124E-04
 0.89530014E+02 -0.24751E-04
 0.89580009E+02  0.56495E-05
 0.89630013E+02  0.43045E-04
 0.89680016E+02  0.67766E-04
 0.89730011E+02  0.69458E-04
 0.89780014E+02  0.50545E-04
 0.89830009E+02  0.44074E-04
 0.89880013E+02  0.25303E-04
 0.89930016E+02 -0.66087E-05
 0.89980011E+02 -0.12412E-04
 0.90030014E+02 -0.32914E-04
 0.90080009E+02 -0.68478E-04
 0.90130013E+02 -0.90199E-04
 0.90180016E+02 -0.11341E-03
 0.90230011E+02 -0.13333E-03
 0.90280014E+02 -0.12093E-03
 0.90330009E+02 -0.77845E-04
 0.90380013E+02 -0.43358E-04
 0.90430016E+02 -0.31920E-04
 0.90480011E+02 -0.34681E-04
 0.90530014E+02 -0.56575E-04
 0.90580009E+02 -0.82628E-04
 0.90630013E+02 -0.81063E-04
 0.90680016E+02 -0.41195E-04
 0.90730011E+02  0.35769E-05
 0.90780014E+02  0.31745E-04
 0.90830009E+02  0.50343E-04
 0.90880013E+02  0.53668E-04
 0.90930016E+02  0.58066E-04
 0.90980011E+02  0.62435E-04
 0.91030014E+02  0.52260E-04
 0.91080009E+02  0.69231E-04
 0.91130013E+02  0.11710E-03
 0.91180016E+02  0.16579E-03
 0.91230011E+02  0.20359E-03
 0.91280014E+02  0.20072E-03
 0.91330009E+02  0.17451E-03
 0.91380013E+02  0.13971E-03
 0.91430016E+02  0.86802E-04
 0.91480011E+02  0.14836E-04
 0.91530014E+02 -0.56720E-04
 0.91580009E+02 -0.11731E-03
 0.91630013E+02 -0.18620E-03
 0.91680016E+02 -0.21723E-03
 0.91730011E+02 -0.22423E-03
 0.91780014E+02 -0.22879E-03
 0.91830009E+02 -0.21517E-03
 0.91880013E+02 -0.21518E-03
 0.91930016E+02 -0.19730E-03
 0.91980011E+02 -0.14531E-03
 0.92030014E+02 -0.80610E-04
 0.92080009E+02 -0.34615E-05
 0.92130013E+02  0.70509E-04
 0.92180016E+02  0.13148E-03
 0.92230011E+02  0.18397E-03
 0.92280014E+02  0.20947E-03
 0.92330009E+02  0.20060E-03
 0.92380013E+02  0.18637E-03
 0.92430016E+02  0.17347E-03
 0.92480011E+02  0.16709E-03
 0.92530014E+02  0.16097E-03
 0.92580009E+02  0.13366E-03
 0.92630013E+02  0.99294E-04
 0.92680016E+02  0.57411E-04
 0.92730011E+02 -0.23508E-05
 0.92780014E+02 -0.57263E-04
 0.92830009E+02 -0.84511E-04
 0.92880013E+02 -0.96497E-04
 0.92930016E+02 -0.11939E-03
 0.92980011E+02 -0.17080E-03
 0.93030014E+02 -0.22745E-03
 0.93080009E+02 -0.24229E-03
 0.93130013E+02 -0.22231E-03
 0.93180016E+02 -0.17166E-03
 0.93230011E+02 -0.92451E-04
 0.93280014E+02 -0.16741E-04
 0.93330009E+02  0.32487E-04
 0.93380013E+02  0.54049E-04
 0.93430016E+02  0.66559E-04
 0.93480011E+02  0.65307E-04
 0.93530014E+02  0.61989E-04
 0.93580009E+02  0.59841E-04
 0.93630013E+02  0.26568E-04
 0.93680016E+02  0.34045E-07
 0.93730011E+02  0.16369E-04
 0.93780014E+02  0.34851E-04
 0.93830009E+02  0.25955E-04
 0.93880013E+02  0.82421E-05
 0.93930016E+02  0.98196E-05
 0.93980011E+02  0.35917E-04
 0.94030014E+02  0.69138E-04
 0.94080009E+02  0.89702E-04
 0.94130013E+02  0.91871E-04
 0.94180016E+02  0.75931E-04
 0.94230011E+02  0.55641E-04
 0.94280014E+02  0.49678E-04
 0.94330009E+02  0.49618E-04
 0.94380013E+02  0.44252E-04
 0.94430016E+02  0.39615E-04
 0.94480011E+02  0.34202E-04
 0.94530014E+02  0.28410E-04
 0.94580009E+02  0.18849E-04
 0.94630013E+02  0.82459E-05
 0.94680016E+02  0.11881E-04
 0.94730011E+02  0.17763E-04
 0.94780014E+02  0.16328E-04
 0.94830009E+02  0.73916E-05
 0.94880013E+02  0.65538E-06
 0.94930016E+02 -0.23635E-05
 0.94980011E+02 -0.14868E-04
 0.95030014E+02 -0.33614E-04
 0.95080009E+02 -0.56958E-04
 0.95130013E+02 -0.73509E-04
 0.95180016E+02 -0.70296E-04
 0.95230011E+02 -0.51846E-04
 0.95280014E+02 -0.42305E-04
 0.95330009E+02 -0.39779E-04
 0.95380013E+02 -0.28859E-04
 0.95430016E+02 -0.19415E-04
 0.95480011E+02 -0.29808E-05
 0.95530014E+02  0.19642E-04
 0.95580009E+02  0.36357E-04
 0.95630013E+02  0.47635E-04
 0.95680016E+02  0.45528E-04
 0.95730011E+02  0.20160E-04
 0.95780014E+02 -0.28154E-04
 0.95830009E+02 -0.91889E-04
 0.95880013E+02 -0.16052E-03
 0.95930016E+02 -0.21211E-03
 0.95980011E+02 -0.22535E-03
 0.96030014E+02 -0.21667E-03
 0.96080009E+02 -0.19228E-03
 0.96130013E+02 -0.14267E-03
 0.96180016E+02 -0.82435E-04
 0.96230011E+02 -0.13696E-04
 0.96280014E+02  0.55869E-04
 0.96330009E+02  0.11338E-03
 0.96380013E+02  0.14317E-03
 0.96430016E+02  0.14129E-03
 0.96480011E+02  0.13072E-03
 0.96530014E+02  0.12895E-03
 0.96580009E+02  0.14251E-03
 0.96630013E+02  0.15082E-03
 0.96680016E+02  0.13635E-03
 0.96730011E+02  0.11230E-03
 0.96780014E+02  0.91768E-04
 0.96830009E+02  0.72868E-04
 0.96880013E+02  0.56884E-04
 0.96930016E+02  0.37691E-04
 0.96980011E+02  0.15705E-04
 0.97030014E+02 -0.27808E-05
 0.97080009E+02 -0.26501E-04
 0.97130013E+02 -0.46838E-04
 0.97180016E+02 -0.67132E-04
 0.97230011E+02 -0.89482E-04
 0.97280014E+02 -0.92072E-04
 0.97330009E+02 -0.69442E-04
 0.97380013E+02 -0.44292E-04
 0.97430016E+02 -0.35275E-04
 0.97480011E+02 -0.25469E-04
 0.97530014E+02 -0.15178E-04
 0.97580009E+02 -0.13522E-04
 0.97630013E+02 -0.11673E-04
 0.97680016E+02 -0.36661E-05
 0.97730011E+02  0.87015E-05
 0.97780014E+02  0.25767E-04
 0.97830009E+02  0.58937E-04
 0.97880013E+02  0.92663E-04
 0.97930016E+02  0.11984E-03
 0.97980011E+02  0.12058E-03
 0.98030014E+02  0.78148E-04
 0.98080009E+02  0.28348E-04
 0.98130013E+02 -0.77145E-05
 0.98180016E+02 -0.17148E-04
 0.98230011E+02 -0.14115E-04
 0.98280014E+02 -0.12638E-04
 0.98330009E+02 -0.17967E-04
 0.98380013E+02 -0.34988E-04
 0.98430016E+02 -0.45316E-04
 0.98480011E+02 -0.54511E-04
 0.98530014E+02 -0.57535E-04
 0.98580009E+02 -0.49688E-04
 0.98630013E+02 -0.43886E-04
 0.98680016E+02 -0.32791E-04
 0.98730011E+02 -0.14089E-04
 0.98780014E+02  0.11746E-04
 0.98830009E+02  0.44616E-04
 0.98880013E+02  0.66208E-04
 0.98930016E+02  0.75202E-04
 0.98980011E+02  0.79978E-04
 0.99030014E+02  0.80440E-04
 0.99080009E+02  0.90102E-04
 0.99130013E+02  0.90252E-04
 0.99180016E+02  0.51863E-04
 0.99230011E+02 -0.80324E-05
 0.99280014E+02 -0.70512E-04
 0.99330009E+02 -0.12122E-03
 0.99380013E+02 -0.14334E-03
 0.99430016E+02 -0.14477E-03
 0.99480011E+02 -0.13388E-03
 0.99530014E+02 -0.10594E-03
 0.99580009E+02 -0.71825E-04
 0.99630013E+02 -0.47763E-04
 0.99680016E+02 -0.39932E-04
 0.99730011E+02 -0.45251E-04
 0.99780014E+02 -0.54791E-04
 0.99830009E+02 -0.55716E-04
 0.99880013E+02 -0.39464E-04
 0.99930016E+02 -0.14396E-04
 0.99980011E+02  0.13263E-04
 0.10003001E+03  0.31055E-04
 0.10008001E+03  0.31741E-04
 0.10013001E+03  0.35925E-04
 0.10018002E+03  0.50860E-04
 0.10023001E+03  0.69584E-04
 0.10028001E+03  0.90598E-04
 0.10033001E+03  0.10165E-03
 0.10038001E+03  0.98458E-04
 0.10043002E+03  0.92293E-04
 0.10048001E+03  0.76379E-04
 0.10053001E+03  0.36696E-04
 0.10058001E+03 -0.17594E-04
 0.10063001E+03 -0.70094E-04
 0.10068002E+03 -0.11996E-03
 0.10073001E+03 -0.14571E-03
 0.10078001E+03 -0.14357E-03
 0.10083001E+03 -0.12842E-03
 0.10088001E+03 -0.94779E-04
 0.10093002E+03 -0.69378E-04
 0.10098001E+03 -0.36020E-04
 0.10103001E+03  0.31435E-04
 0.10108001E+03  0.93792E-04
 0.10113001E+03  0.13552E-03
 0.10118002E+03  0.14366E-03
 0.10123001E+03  0.11260E-03
 0.10128001E+03  0.79671E-04
 0.10133001E+03  0.57646E-04
 0.10138001E+03  0.42949E-04
 0.10143002E+03  0.33801E-04
 0.10148001E+03  0.29573E-04
 0.10153001E+03  0.28742E-04
 0.10158001E+03  0.20482E-04
 0.10163001E+03  0.27536E-04
 0.10168002E+03  0.47222E-04
 0.10173001E+03  0.55743E-04
 0.10178001E+03  0.59548E-04
 0.10183001E+03  0.56220E-04
 0.10188001E+03  0.53064E-04
 0.10193002E+03  0.52831E-04
 0.10198001E+03  0.38483E-04
 0.10203001E+03  0.16574E-04
 0.10208001E+03 -0.13100E-04
 0.10213001E+03 -0.55843E-04
 0.10218002E+03 -0.82846E-04
 0.10223001E+03 -0.87229E-04
 0.10228001E+03 -0.69920E-04
 0.10233001E+03 -0.42265E-04
 0.10238001E+03 -0.28220E-04
 0.10243002E+03 -0.29167E-04
 0.10248001E+03 -0.47826E-04
 0.10253001E+03 -0.53850E-04
 0.10258001E+03 -0.39569E-04
 0.10263001E+03 -0.40466E-04
 0.10268002E+03 -0.52312E-04
 0.10273001E+03 -0.64023E-04
 0.10278001E+03 -0.82229E-04
 0.10283001E+03 -0.96807E-04
 0.10288001E+03 -0.95049E-04
 0.10293002E+03 -0.90285E-04
 0.10298001E+03 -0.79345E-04
 0.10303001E+03 -0.47865E-04
 0.10308001E+03 -0.13627E-04
 0.10313001E+03  0.15797E-04
 0.10318002E+03  0.39813E-04
 0.10323001E+03  0.55831E-04
 0.10328001E+03  0.68864E-04
 0.10333001E+03  0.88028E-04
 0.10338001E+03  0.12444E-03
 0.10343002E+03  0.15777E-03
 0.10348001E+03  0.17045E-03
 0.10353001E+03  0.14007E-03
 0.10358001E+03  0.64529E-04
 0.10363001E+03  0.20085E-05
 0.10368002E+03 -0.25589E-04
 0.10373001E+03 -0.35907E-04
 0.10378001E+03 -0.38111E-04
 0.10383001E+03 -0.46821E-04
 0.10388001E+03 -0.69044E-04
 0.10393002E+03 -0.83686E-04
 0.10398001E+03 -0.72689E-04
 0.10403001E+03 -0.35576E-04
 0.10408001E+03  0.92148E-05
 0.10413001E+03  0.40226E-04
 0.10418002E+03  0.44209E-04
 0.10423001E+03  0.17896E-04
 0.10428001E+03 -0.15667E-05
 0.10433001E+03 -0.61703E-05
 0.10438001E+03 -0.15335E-04
 0.10443002E+03 -0.16094E-04
 0.10448001E+03 -0.13656E-04
 0.10453001E+03 -0.83773E-05
 0.10458001E+03  0.91319E-05
 0.10463001E+03  0.25955E-04
 0.10468002E+03  0.33459E-04
 0.10473001E+03  0.24154E-04
 0.10478001E+03  0.10526E-04
 0.10483001E+03  0.71536E-05
 0.10488001E+03  0.44199E-05
 0.10493002E+03  0.45085E-05
 0.10498001E+03  0.10221E-05
 0.10503001E+03 -0.21852E-04
 0.10508001E+03 -0.49305E-04
 0.10513001E+03 -0.61713E-04
 0.10518002E+03 -0.69284E-04
 0.10523001E+03 -0.64910E-04
 0.10528001E+03 -0.31960E-04
 0.10533001E+03 -0.31744E-05
 0.10538001E+03  0.21531E-04
 0.10543002E+03  0.46005E-04
 0.10548001E+03  0.38373E-04
 0.10553001E+03  0.17929E-04
 0.10558001E+03 -0.14416E-05
 0.10563001E+03 -0.14311E-04
 0.10568002E+03 -0.16209E-05
 0.10573001E+03  0.20701E-04
 0.10578001E+03  0.31801E-04
 0.10583001E+03  0.37489E-04
 0.10588001E+03  0.31084E-04
 0.10593002E+03  0.23582E-04
 0.10598001E+03  0.32141E-04
 0.10603001E+03  0.30536E-04
 0.10608001E+03  0.24071E-04
 0.10613001E+03  0.17891E-04
 0.10618002E+03  0.44224E-05
 0.10623001E+03  0.10706E-04
 0.10628001E+03  0.36642E-04
 0.10633001E+03  0.54522E-04
 0.10638001E+03  0.72724E-04
 0.10643002E+03  0.84025E-04
 0.10648001E+03  0.78520E-04
 0.10653001E+03  0.76932E-04
 0.10658001E+03  0.67495E-04
 0.10663001E+03  0.42947E-04
 0.10668002E+03  0.13688E-04
 0.10673001E+03 -0.68661E-05
 0.10678001E+03 -0.21499E-04
 0.10683001E+03 -0.35916E-04
 0.10688001E+03 -0.49952E-04
 0.10693002E+03 -0.75419E-04
 0.10698001E+03 -0.96507E-04
 0.10703001E+03 -0.10590E-03
 0.10708001E+03 -0.10965E-03
 0.10713001E+03 -0.10146E-03
 0.10718002E+03 -0.89686E-04
 0.10723001E+03 -0.83960E-04
 0.10728001E+03 -0.74248E-04
 0.10733001E+03 -0.59370E-04
 0.10738001E+03 -0.52951E-04
 0.10743002E+03 -0.57972E-04
 0.10748001E+03 -0.74580E-04
 0.10753001E+03 -0.90510E-04
 0.10758001E+03 -0.87651E-04
 0.10763001E+03 -0.70645E-04
 0.10768002E+03 -0.47876E-04
 0.10773001E+03 -0.14140E-04
 0.10778001E+03  0.26996E-04
 0.10783001E+03  0.62441E-04
 0.10788001E+03  0.92272E-04
 0.10793002E+03  0.11026E-03
 0.10798001E+03  0.11146E-03
 0.10803001E+03  0.10230E-03
 0.10808001E+03  0.92691E-04
 0.10813001E+03  0.86798E-04
 0.10818002E+03  0.69476E-04
 0.10823001E+03  0.41609E-04
 0.10828001E+03  0.61706E-05
 0.10833001E+03 -0.32059E-04
 0.10838001E+03 -0.54549E-04
 0.10843002E+03 -0.67356E-04
 0.10848001E+03 -0.68784E-04
 0.10853001E+03 -0.56445E-04
 0.10858001E+03 -0.45666E-04
 0.10863001E+03 -0.22621E-04
 0.10868002E+03  0.11904E-04
 0.10873001E+03  0.35377E-04
 0.10878001E+03  0.55919E-04
 0.10883001E+03  0.78604E-04
 0.10888001E+03  0.88343E-04
 0.10893002E+03  0.82304E-04
 0.10898001E+03  0.75165E-04
 0.10903001E+03  0.69654E-04
 0.10908001E+03  0.67510E-04
 0.10913001E+03  0.66496E-04
 0.10918002E+03  0.51870E-04
 0.10923001E+03  0.24443E-04
 0.10928001E+03 -0.16865E-04
 0.10933001E+03 -0.51800E-04
 0.10938001E+03 -0.60867E-04
 0.10943002E+03 -0.56024E-04
 0.10948001E+03 -0.45847E-04
 0.10953001E+03 -0.40906E-04
 0.10958001E+03 -0.37989E-04
 0.10963001E+03 -0.30723E-04
 0.10968002E+03 -0.21408E-04
 0.10973001E+03 -0.87560E-05
 0.10978001E+03  0.11322E-04
 0.10983001E+03  0.30214E-04
 0.10988001E+03  0.40157E-04
 0.10993002E+03  0.42411E-04
 0.10998001E+03  0.31085E-04
 0.11003001E+03  0.10387E-04
 0.11008001E+03 -0.84965E-05
 0.11013001E+03 -0.13329E-04
 0.11018002E+03 -0.11427E-04
 0.11023001E+03 -0.15962E-04
 0.11028001E+03 -0.22674E-04
 0.11033001E+03 -0.27460E-04
 0.11038001E+03 -0.30026E-04
 0.11043002E+03 -0.37300E-04
 0.11048001E+03 -0.44915E-04
 0.11053001E+03 -0.37102E-04
 0.11058001E+03 -0.19523E-04
 0.11063001E+03  0.30932E-05
 0.11068002E+03  0.28444E-04
 0.11073001E+03  0.36476E-04
 0.11078001E+03  0.25422E-04
 0.11083001E+03  0.35607E-05
 0.11088001E+03 -0.17978E-04
 0.11093002E+03 -0.28415E-04
 0.11098001E+03 -0.35165E-04
 0.11103001E+03 -0.40409E-04
 0.11108001E+03 -0.40403E-04
 0.11113001E+03 -0.40401E-04
 0.11118002E+03 -0.50373E-04
 0.11123001E+03 -0.68244E-04
 0.11128001E+03 -0.81470E-04
 0.11133001E+03 -0.84361E-04
 0.11138001E+03 -0.84318E-04
 0.11143002E+03 -0.81231E-04
 0.11148001E+03 -0.76712E-04
 0.11153001E+03 -0.68995E-04
 0.11158001E+03 -0.45323E-04
 0.11163001E+03 -0.13821E-04
 0.11168002E+03  0.25927E-04
 0.11173001E+03  0.69123E-04
 0.11178001E+03  0.10524E-03
 0.11183001E+03  0.13728E-03
 0.11188001E+03  0.15990E-03
 0.11193002E+03  0.17292E-03
 0.11198001E+03  0.17438E-03
 0.11203001E+03  0.16121E-03
 0.11208001E+03  0.14027E-03
 0.11213001E+03  0.12271E-03
 0.11218002E+03  0.11560E-03
 0.11223001E+03  0.11730E-03
 0.11228001E+03  0.11442E-03
 0.11233001E+03  0.89067E-04
 0.11238001E+03  0.43596E-04
 0.11243002E+03 -0.58171E-05
 0.11248001E+03 -0.55550E-04
 0.11253001E+03 -0.11121E-03
 0.11258001E+03 -0.15617E-03
 0.11263001E+03 -0.17034E-03
 0.11268002E+03 -0.16423E-03
 0.11273001E+03 -0.14543E-03
 0.11278001E+03 -0.11359E-03
 0.11283001E+03 -0.76272E-04
 0.11288001E+03 -0.38393E-04
 0.11293002E+03 -0.27524E-05
 0.11298001E+03  0.21165E-04
 0.11303001E+03  0.22323E-04
 0.11308001E+03  0.14739E-04
 0.11313001E+03  0.13919E-04
 0.11318002E+03  0.12630E-04
 0.11323001E+03  0.10324E-04
 0.11328001E+03  0.10045E-04
 0.11333001E+03  0.14519E-04
 0.11338001E+03  0.23538E-04
 0.11343002E+03  0.21428E-04
 0.11348001E+03  0.64560E-05
 0.11353001E+03 -0.57933E-05
 0.11358001E+03 -0.16405E-04
 0.11363001E+03 -0.28487E-04
 0.11368002E+03 -0.31022E-04
 0.11373001E+03 -0.29998E-04
 0.11378001E+03 -0.31038E-04
 0.11383001E+03 -0.33762E-04
 0.11388001E+03 -0.43944E-04
 0.11393002E+03 -0.56650E-04
 0.11398001E+03 -0.71722E-04
 0.11403001E+03 -0.80822E-04
 0.11408001E+03 -0.77149E-04
 0.11413001E+03 -0.64679E-04
 0.11418002E+03 -0.47243E-04
 0.11423001E+03 -0.29040E-04
 0.11428001E+03 -0.23485E-05
 0.11433001E+03  0.34157E-04
 0.11438001E+03  0.71301E-04
 0.11443002E+03  0.95236E-04
 0.11448001E+03  0.10730E-03
 0.11453001E+03  0.11747E-03
 0.11458001E+03  0.12344E-03
 0.11463001E+03  0.12352E-03
 0.11468002E+03  0.11469E-03
 0.11473001E+03  0.98472E-04
 0.11478001E+03  0.73945E-04
 0.11483001E+03  0.40537E-04
 0.11488001E+03  0.11468E-04
 0.11493002E+03 -0.33341E-05
 0.11498001E+03 -0.16024E-04
 0.11503001E+03 -0.27436E-04
 0.11508001E+03 -0.31322E-04
 0.11513001E+03 -0.46419E-04
 0.11518002E+03 -0.71125E-04
 0.11523001E+03 -0.96657E-04
 0.11528001E+03 -0.11019E-03
 0.11533001E+03 -0.98998E-04
 0.11538001E+03 -0.70773E-04
 0.11543002E+03 -0.31735E-04
 0.11548001E+03 -0.16003E-05
 0.11553001E+03  0.14290E-04
 0.11558001E+03  0.23130E-04
 0.11563001E+03  0.35966E-04
 0.11568002E+03  0.57232E-04
 0.11573001E+03  0.63363E-04
 0.11578001E+03  0.50257E-04
 0.11583001E+03  0.30141E-04
 0.11588001E+03  0.10030E-04
 0.11593002E+03 -0.35476E-05
 0.11598001E+03 -0.53126E-05
 0.11603001E+03  0.86889E-07
 0.11608001E+03  0.96617E-06
 0.11613001E+03 -0.31721E-05
 0.11618002E+03 -0.42998E-05
 0.11623001E+03  0.34409E-05
 0.11628001E+03  0.11132E-04
 0.11633001E+03  0.66896E-05
 0.11638001E+03 -0.33611E-05
 0.11643002E+03 -0.13764E-04
 0.11648001E+03 -0.26639E-04
 0.11653001E+03 -0.30677E-04
 0.11658001E+03 -0.22016E-04
 0.11663001E+03 -0.13860E-04
 0.11668002E+03 -0.60443E-05
 0.11673001E+03  0.46373E-05
 0.11678001E+03  0.16019E-04
 0.11683001E+03  0.32888E-04
 0.11688001E+03  0.54147E-04
 0.11693002E+03  0.76313E-04
 0.11698001E+03  0.91529E-04
 0.11703001E+03  0.86171E-04
 0.11708001E+03  0.61936E-04
 0.11713001E+03  0.30130E-04
 0.11718002E+03 -0.10387E-04
 0.11723001E+03 -0.56527E-04
 0.11728001E+03 -0.95294E-04
 0.11733001E+03 -0.12561E-03
 0.11738001E+03 -0.13787E-03
 0.11743002E+03 -0.12724E-03
 0.11748001E+03 -0.10576E-03
 0.11753001E+03 -0.77436E-04
 0.11758001E+03 -0.49789E-04
 0.11763001E+03 -0.25455E-04
 0.11768002E+03 -0.45660E-05
 0.11773001E+03  0.80238E-05
 0.11778001E+03  0.14768E-04
 0.11783001E+03  0.15133E-04
 0.11788001E+03  0.10310E-04
 0.11793002E+03  0.13723E-05
 0.11798001E+03 -0.92871E-05
 0.11803001E+03 -0.15540E-04
 0.11808001E+03 -0.10844E-04
 0.11813001E+03  0.11442E-04
 0.11818002E+03  0.42992E-04
 0.11823001E+03  0.70483E-04
 0.11828001E+03  0.85368E-04
 0.11833001E+03  0.81388E-04
 0.11838001E+03  0.60893E-04
 0.11843002E+03  0.36977E-04
 0.11848001E+03  0.20355E-04
 0.11853001E+03  0.13249E-04
 0.11858001E+03  0.93130E-05
 0.11863001E+03 -0.17840E-05
 0.11868002E+03 -0.14592E-04
 0.11873001E+03 -0.21687E-04
 0.11878001E+03 -0.21640E-04
 0.11883001E+03 -0.14705E-04
 0.11888001E+03 -0.99420E-05
 0.11893002E+03 -0.24271E-05
 0.11898001E+03  0.15914E-04
 0.11903001E+03  0.34263E-04
 0.11908001E+03  0.46007E-04
 0.11913001E+03  0.45152E-04
 0.11918002E+03  0.24343E-04
 0.11923001E+03 -0.85931E-05
 0.11928001E+03 -0.40364E-04
 0.11933001E+03 -0.64082E-04
 0.11938001E+03 -0.74701E-04
 0.11943002E+03 -0.70369E-04
 0.11948001E+03 -0.54455E-04
 0.11953001E+03 -0.29744E-04
 0.11958001E+03 -0.17004E-05
 0.11963001E+03  0.22285E-04
 0.11968002E+03  0.37116E-04
 0.11973001E+03  0.48720E-04
 0.11978001E+03  0.55525E-04
 0.11983001E+03  0.50672E-04
 0.11988001E+03  0.42650E-04
 0.11993002E+03  0.31324E-04
 0.11998001E+03  0.22723E-04
 0.12003001E+03  0.24545E-04
 0.12008001E+03  0.26891E-04
 0.12013001E+03  0.25098E-04
 0.12018002E+03  0.20738E-04
 0.12023001E+03  0.17935E-04
 0.12028001E+03  0.12280E-04
 0.12033001E+03 -0.56686E-05
 0.12038001E+03 -0.14720E-04
 0.12043002E+03 -0.15136E-04
 0.12048001E+03 -0.28796E-04
 0.12053001E+03 -0.28593E-04
 0.12058001E+03 -0.22371E-04
 0.12063001E+03 -0.28429E-04
 0.12068002E+03 -0.22524E-04
 0.12073001E+03 -0.11481E-04
 0.12078001E+03  0.58982E-06
 0.12083001E+03  0.20042E-04
 0.12088001E+03  0.33347E-04
 0.12093002E+03  0.35213E-04
 0.12098001E+03  0.28158E-04
 0.12103001E+03  0.89089E-05
 0.12108001E+03 -0.18894E-04
 0.12113001E+03 -0.50068E-04
 0.12118002E+03 -0.75867E-04
 0.12123001E+03 -0.81222E-04
 0.12128001E+03 -0.71147E-04
 0.12133001E+03 -0.57325E-04
 0.12138001E+03 -0.40203E-04
 0.12143002E+03 -0.28833E-04
 0.12148001E+03 -0.27242E-04
 0.12153001E+03 -0.22797E-04
 0.12158001E+03 -0.14993E-04
 0.12163001E+03 -0.45556E-05
 0.12168002E+03  0.73372E-05
 0.12173001E+03  0.12934E-04
 0.12178001E+03  0.12268E-04
 0.12183001E+03  0.92402E-05
 0.12188001E+03  0.10729E-04
 0.12193002E+03  0.16074E-04
 0.12198001E+03  0.26707E-04
 0.12203001E+03  0.43656E-04
 0.12208001E+03  0.54853E-04
 0.12213001E+03  0.57915E-04
 0.12218002E+03  0.53198E-04
 0.12223001E+03  0.40264E-04
 0.12228001E+03  0.25768E-04
 0.12233001E+03  0.85423E-05
 0.12238001E+03 -0.84497E-05
 0.12243002E+03 -0.19383E-04
 0.12248001E+03 -0.27282E-04
 0.12253001E+03 -0.30279E-04
 0.12258001E+03 -0.27240E-04
 0.12263001E+03 -0.21776E-04
 0.12268002E+03 -0.15107E-04
 0.12273001E+03 -0.17205E-05
 0.12278001E+03  0.14952E-04
 0.12283001E+03  0.23003E-04
 0.12288001E+03  0.27461E-04
 0.12293002E+03  0.27688E-04
 0.12298001E+03  0.20050E-04
 0.12303001E+03  0.12738E-04
 0.12308001E+03  0.20020E-05
 0.12313001E+03 -0.10144E-04
 0.12318002E+03 -0.12565E-04
 0.12323001E+03 -0.12564E-04
 0.12328001E+03 -0.12665E-04
 0.12333001E+03 -0.74612E-05
 0.12338001E+03 -0.19551E-05
 0.12343002E+03  0.52505E-05
 0.12348001E+03  0.16506E-04
 0.12353001E+03  0.29301E-04
 0.12358001E+03  0.38094E-04
 0.12363001E+03  0.35656E-04
 0.12368002E+03  0.27468E-04
 0.12373001E+03  0.19398E-04
 0.12378001E+03  0.76362E-05
 0.12383001E+03 -0.27285E-05
 0.12388001E+03 -0.97086E-05
 0.12393002E+03 -0.24157E-04
 0.12398001E+03 -0.42971E-04
 0.12403001E+03 -0.57554E-04
 0.12408001E+03 -0.64632E-04
 0.12413001E+03 -0.64511E-04
 0.12418002E+03 -0.58079E-04
 0.12423001E+03 -0.45456E-04
 0.12428001E+03 -0.31825E-04
 0.12433001E+03 -0.13460E-04
 0.12438001E+03  0.81225E-05
 0.12443002E+03  0.23346E-04
 0.12448001E+03  0.30567E-04
 0.12453001E+03  0.28226E-04
 0.12458001E+03  0.15419E-04
 0.12463001E+03 -0.33962E-05
 0.12468002E+03 -0.25171E-04
 0.12473001E+03 -0.42965E-04
 0.12478001E+03 -0.51633E-04
 0.12483001E+03 -0.52749E-04
 0.12488001E+03 -0.35979E-04
 0.12493002E+03 -0.57844E-05
 0.12498001E+03  0.24919E-04
 0.12503001E+03  0.48857E-04
 0.12508001E+03  0.62040E-04
 0.12513001E+03  0.70919E-04
 0.12518002E+03  0.72041E-04
 0.12523001E+03  0.73128E-04
 0.12528001E+03  0.70160E-04
 0.12533001E+03  0.59106E-04
 0.12538001E+03  0.58339E-04
 0.12543002E+03  0.50411E-04
 0.12548001E+03  0.30397E-04
 0.12553001E+03  0.12505E-04
 0.12558001E+03 -0.12850E-04
 0.12563001E+03 -0.39029E-04
 0.12568002E+03 -0.47242E-04
 0.12573001E+03 -0.44965E-04
 0.12578001E+03 -0.40287E-04
 0.12583001E+03 -0.25910E-04
 0.12588001E+03 -0.12753E-04
 0.12593002E+03 -0.23859E-05
 0.12598001E+03  0.16147E-04
 0.12603001E+03  0.36002E-04
 0.12608001E+03  0.48981E-04
 0.12613001E+03  0.55832E-04
 0.12618002E+03  0.55475E-04
 0.12623001E+03  0.47443E-04
 0.12628001E+03  0.39460E-04
 0.12633001E+03  0.30546E-04
 0.12638001E+03  0.19445E-04
 0.12643002E+03  0.11520E-04
 0.12648001E+03  0.43402E-05
 0.12653001E+03 -0.40211E-05
 0.12658001E+03 -0.15094E-04
 0.12663001E+03 -0.33666E-04
 0.12668002E+03 -0.45400E-04
 0.12673001E+03 -0.43131E-04
 0.12678001E+03 -0.41083E-04
 0.12683001E+03 -0.37395E-04
 0.12688001E+03 -0.32243E-04
 0.12693002E+03 -0.28843E-04
 0.12698001E+03 -0.25315E-04
 0.12703001E+03 -0.25668E-04
 0.12708001E+03 -0.28627E-04
 0.12713001E+03 -0.32726E-04
 0.12718002E+03 -0.37886E-04
 0.12723001E+03 -0.39668E-04
 0.12728001E+03 -0.36412E-04
 0.12733001E+03 -0.32664E-04
 0.12738001E+03 -0.27549E-04
 0.12743002E+03 -0.24021E-04
 0.12748001E+03 -0.25986E-04
 0.12753001E+03 -0.23587E-04
 0.12758001E+03 -0.17945E-04
 0.12763001E+03 -0.11111E-04
 0.12768002E+03 -0.53349E-05
 0.12773001E+03 -0.86342E-05
 0.12778001E+03 -0.15573E-04
 0.12783001E+03 -0.26818E-04
 0.12788001E+03 -0.44544E-04
 0.12793002E+03 -0.59851E-04
 0.12798001E+03 -0.66037E-04
 0.12803001E+03 -0.61866E-04
 0.12808002E+03 -0.45832E-04
 0.12813002E+03 -0.24047E-04
 0.12818001E+03 -0.63627E-05
 0.12823001E+03  0.99638E-05
 0.12828001E+03  0.26871E-04
 0.12833002E+03  0.43612E-04
 0.12838002E+03  0.59205E-04
 0.12843001E+03  0.69310E-04
 0.12848001E+03  0.72343E-04
 0.12853001E+03  0.66902E-04
 0.12858002E+03  0.55296E-04
 0.12863002E+03  0.44077E-04
 0.12868001E+03  0.36513E-04
 0.12873001E+03  0.35822E-04
 0.12878001E+03  0.42280E-04
 0.12883002E+03  0.52363E-04
 0.12888002E+03  0.63283E-04
 0.12893001E+03  0.70860E-04
 0.12898001E+03  0.70299E-04
 0.12903001E+03  0.56988E-04
 0.12908002E+03  0.36029E-04
 0.12913002E+03  0.14274E-04
 0.12918001E+03 -0.40741E-05
 0.12923001E+03 -0.12130E-04
 0.12928001E+03 -0.14493E-04
 0.12933002E+03 -0.12813E-04
 0.12938002E+03 -0.64067E-05
 0.12943001E+03  0.71076E-06
 0.12948001E+03  0.10747E-04
 0.12953001E+03  0.18387E-04
 0.12958002E+03  0.16560E-04
 0.12963002E+03  0.58939E-05
 0.12968001E+03 -0.10613E-04
 0.12973001E+03 -0.27848E-04
 0.12978001E+03 -0.40900E-04
 0.12983002E+03 -0.46175E-04
 0.12988002E+03 -0.45596E-04
 0.12993001E+03 -0.42300E-04
 0.12998001E+03 -0.35505E-04
 0.13003001E+03 -0.24023E-04
 0.13008002E+03 -0.84670E-05
 0.13013002E+03  0.10097E-04
 0.13018001E+03  0.30454E-04
 0.13023001E+03  0.46474E-04
 0.13028001E+03  0.51947E-04
 0.13033002E+03  0.50064E-04
 0.13038002E+03  0.48434E-04
 0.13043001E+03  0.47677E-04
 0.13048001E+03  0.43540E-04
 0.13053001E+03  0.28448E-04
 0.13058002E+03  0.94071E-06
 0.13063002E+03 -0.30321E-04
 0.13068001E+03 -0.57006E-04
 0.13073001E+03 -0.74618E-04
 0.13078001E+03 -0.86150E-04
 0.13083002E+03 -0.94763E-04
 0.13088002E+03 -0.10305E-03
 0.13093001E+03 -0.11026E-03
 0.13098001E+03 -0.11137E-03
 0.13103001E+03 -0.10480E-03
 0.13108002E+03 -0.91304E-04
 0.13113002E+03 -0.71994E-04
 0.13118001E+03 -0.44997E-04
 0.13123001E+03 -0.12872E-04
 0.13128001E+03  0.21054E-04
 0.13133002E+03  0.56241E-04
 0.13138002E+03  0.83334E-04
 0.13143001E+03  0.96387E-04
 0.13148001E+03  0.97842E-04
 0.13153001E+03  0.90888E-04
 0.13158002E+03  0.81802E-04
 0.13163002E+03  0.70152E-04
 0.13168001E+03  0.51241E-04
 0.13173001E+03  0.28315E-04
 0.13178001E+03  0.97961E-05
 0.13183002E+03 -0.10681E-06
 0.13188002E+03 -0.38516E-05
 0.13193001E+03 -0.45268E-05
 0.13198001E+03 -0.58251E-05
 0.13203001E+03 -0.10182E-04
 0.13208002E+03 -0.15875E-04
 0.13213002E+03 -0.23696E-04
 0.13218001E+03 -0.30904E-04
 0.13223001E+03 -0.32178E-04
 0.13228001E+03 -0.34178E-04
 0.13233002E+03 -0.31653E-04
 0.13238002E+03 -0.20249E-04
 0.13243001E+03 -0.12713E-04
 0.13248001E+03 -0.71794E-05
 0.13253001E+03 -0.37114E-05
 0.13258002E+03 -0.30823E-05
 0.13263002E+03 -0.11054E-05
 0.13268001E+03  0.18528E-05
 0.13273001E+03  0.53046E-05
 0.13278001E+03  0.10895E-04
 0.13283002E+03  0.18104E-04
 0.13288002E+03  0.18832E-04
 0.13293001E+03  0.28099E-04
 0.13298001E+03  0.37842E-04
 0.13303001E+03  0.37947E-04
 0.13308002E+03  0.51529E-04
 0.13313002E+03  0.56440E-04
 0.13318001E+03  0.50266E-04
 0.13323001E+03  0.50539E-04
 0.13328001E+03  0.39465E-04
 0.13333002E+03  0.25479E-04
 0.13338002E+03  0.21361E-04
 0.13343001E+03  0.11408E-04
 0.13348001E+03 -0.63023E-05
 0.13353001E+03 -0.22574E-04
 0.13358002E+03 -0.41055E-04
 0.13363002E+03 -0.53637E-04
 0.13368001E+03 -0.51684E-04
 0.13373001E+03 -0.41891E-04
 0.13378001E+03 -0.29762E-04
 0.13383002E+03 -0.21801E-04
 0.13388002E+03 -0.16156E-04
 0.13393001E+03 -0.83734E-05
 0.13398001E+03  0.30003E-05
 0.13403001E+03  0.18472E-04
 0.13408002E+03  0.31172E-04
 0.13413002E+03  0.35468E-04
 0.13418001E+03  0.28908E-04
 0.13423001E+03  0.17398E-04
 0.13428001E+03  0.83346E-05
 0.13433002E+03  0.29915E-06
 0.13438002E+03 -0.96785E-05
 0.13443001E+03 -0.21704E-04
 0.13448001E+03 -0.36709E-04
 0.13453001E+03 -0.51649E-04
 0.13458002E+03 -0.64179E-04
 0.13463002E+03 -0.73948E-04
 0.13468001E+03 -0.73668E-04
 0.13473001E+03 -0.65133E-04
 0.13478001E+03 -0.47023E-04
 0.13483002E+03 -0.23048E-04
 0.13488002E+03 -0.52041E-05
 0.13493001E+03  0.11176E-04
 0.13498001E+03  0.23296E-04
 0.13503001E+03  0.26787E-04
 0.13508002E+03  0.26245E-04
 0.13513002E+03  0.20561E-04
 0.13518001E+03  0.10034E-04
 0.13523001E+03  0.91512E-06
 0.13528001E+03 -0.35250E-05
 0.13533002E+03 -0.64982E-05
 0.13538002E+03 -0.55801E-05
 0.13543001E+03 -0.59305E-06
 0.13548001E+03  0.29617E-05
 0.13553001E+03  0.71356E-05
 0.13558002E+03  0.16282E-04
 0.13563002E+03  0.31745E-04
 0.13568001E+03  0.50128E-04
 0.13573001E+03  0.65791E-04
 0.13578001E+03  0.76439E-04
 0.13583002E+03  0.81154E-04
 0.13588002E+03  0.80554E-04
 0.13593001E+03  0.79200E-04
 0.13598001E+03  0.76897E-04
 0.13603001E+03  0.71544E-04
 0.13608002E+03  0.63386E-04
 0.13613002E+03  0.50008E-04
 0.13618001E+03  0.32783E-04
 0.13623001E+03  0.13962E-04
 0.13628001E+03 -0.61706E-05
 0.13633002E+03 -0.26917E-04
 0.13638002E+03 -0.44659E-04
 0.13643001E+03 -0.54246E-04
 0.13648001E+03 -0.55230E-04
 0.13653001E+03 -0.49371E-04
 0.13658002E+03 -0.42019E-04
 0.13663002E+03 -0.41103E-04
 0.13668001E+03 -0.48310E-04
 0.13673001E+03 -0.61884E-04
 0.13678001E+03 -0.79602E-04
 0.13683002E+03 -0.96998E-04
 0.13688002E+03 -0.10908E-03
 0.13693001E+03 -0.11313E-03
 0.13698001E+03 -0.11034E-03
 0.13703001E+03 -0.10167E-03
 0.13708002E+03 -0.87164E-04
 0.13713002E+03 -0.67589E-04
 0.13718001E+03 -0.46839E-04
 0.13723001E+03 -0.24051E-04
 0.13728001E+03  0.41595E-06
 0.13733002E+03  0.22048E-04
 0.13738002E+03  0.41848E-04
 0.13743001E+03  0.55785E-04
 0.13748001E+03  0.62064E-04
 0.13753001E+03  0.62938E-04
 0.13758002E+03  0.61903E-04
 0.13763002E+03  0.60463E-04
 0.13768001E+03  0.55283E-04
 0.13773001E+03  0.46505E-04
 0.13778001E+03  0.34551E-04
 0.13783002E+03  0.23820E-04
 0.13788002E+03  0.15351E-04
 0.13793001E+03  0.94911E-05
 0.13798001E+03  0.90426E-05
 0.13803001E+03  0.94236E-05
 0.13808002E+03  0.12750E-04
 0.13813002E+03  0.22082E-04
 0.13818001E+03  0.32682E-04
 0.13823001E+03  0.41052E-04
 0.13828001E+03  0.47834E-04
 0.13833002E+03  0.52773E-04
 0.13838002E+03  0.55099E-04
 0.13843001E+03  0.58932E-04
 0.13848001E+03  0.59922E-04
 0.13853001E+03  0.52709E-04
 0.13858002E+03  0.38394E-04
 0.13863002E+03  0.17985E-04
 0.13868001E+03 -0.19199E-05
 0.13873001E+03 -0.17989E-04
 0.13878001E+03 -0.28001E-04
 0.13883002E+03 -0.31332E-04
 0.13888002E+03 -0.33459E-04
 0.13893001E+03 -0.37942E-04
 0.13898001E+03 -0.46172E-04
 0.13903001E+03 -0.51905E-04
 0.13908002E+03 -0.53622E-04
 0.13913002E+03 -0.50969E-04
 0.13918001E+03 -0.46120E-04
 0.13923001E+03 -0.39617E-04
 0.13928001E+03 -0.28380E-04
 0.13933002E+03 -0.19418E-04
 0.13938002E+03 -0.88189E-05
 0.13943001E+03 -0.14027E-05
 0.13948001E+03  0.13695E-05
 0.13953001E+03  0.54805E-05
 0.13958002E+03  0.21465E-04
 0.13963002E+03  0.43673E-04
 0.13968001E+03  0.43621E-04
 0.13973001E+03  0.40446E-04
 0.13978001E+03  0.37262E-04
 0.13983002E+03  0.18702E-04
 0.13988002E+03  0.12991E-04
 0.13993001E+03  0.12432E-04
 0.13998001E+03 -0.14400E-04
 0.14003001E+03 -0.20398E-04
 0.14008002E+03  0.11280E-04
 0.14013002E+03 -0.71993E-05
 0.14018001E+03 -0.80183E-04
 0.14023001E+03 -0.73571E-04
 0.14028001E+03 -0.18231E-04
 0.14033002E+03 -0.38381E-04
 0.14038002E+03 -0.18767E-04
 0.14043001E+03 -0.89181E-05
 0.14048001E+03 -0.71736E-04
 0.14053001E+03 -0.30304E-04
 0.14058002E+03  0.19152E-04
 0.14063002E+03 -0.59602E-05
 0.14068001E+03 -0.44649E-05
 0.14073001E+03  0.21951E-04
 0.14078001E+03  0.22389E-04
 0.14083002E+03  0.12547E-04
 0.14088002E+03  0.19254E-04
 0.14093001E+03  0.20062E-04
 0.14098001E+03  0.25898E-04
 0.14103001E+03  0.36708E-04
 0.14108002E+03  0.63793E-04
 0.14113002E+03  0.79789E-04
 0.14118001E+03  0.68530E-04
 0.14123001E+03  0.67970E-04
 0.14128001E+03  0.58746E-04
 0.14133002E+03  0.36499E-04
 0.14138002E+03  0.17137E-04
 0.14143001E+03  0.42191E-05
 0.14148001E+03 -0.14396E-04
 0.14153001E+03 -0.30849E-04
 0.14158002E+03 -0.35413E-04
 0.14163002E+03 -0.35460E-04
 0.14168001E+03 -0.33367E-04
 0.14173001E+03 -0.40989E-04
 0.14178001E+03 -0.48321E-04
 0.14183002E+03 -0.47279E-04
 0.14188002E+03 -0.46990E-04
 0.14193001E+03 -0.42920E-04
 0.14198001E+03 -0.34846E-04
 0.14203001E+03 -0.30223E-04
 0.14208002E+03 -0.15686E-04
 0.14213002E+03 -0.53429E-05
 0.14218001E+03 -0.54706E-05
 0.14223001E+03  0.62882E-05
 0.14228001E+03  0.87034E-05
 0.14233002E+03  0.16607E-04
 0.14238002E+03  0.37781E-04
 0.14243001E+03  0.37635E-04
 0.14248001E+03  0.37978E-04
 0.14253001E+03  0.46705E-04
 0.14258002E+03  0.31556E-04
 0.14263002E+03  0.20234E-04
 0.14268001E+03  0.18972E-04
 0.14273001E+03  0.85257E-05
 0.14278001E+03  0.20498E-04
 0.14283002E+03  0.26020E-04
 0.14288002E+03  0.14457E-04
 0.14293001E+03  0.10652E-04
 0.14298001E+03  0.51852E-05
 0.14303001E+03  0.58024E-05
 0.14308002E+03  0.63562E-05
 0.14313002E+03 -0.59876E-05
 0.14318001E+03 -0.15419E-04
 0.14323001E+03 -0.22576E-04
 0.14328001E+03 -0.41413E-04
 0.14333002E+03 -0.53426E-04
 0.14338002E+03 -0.60378E-04
 0.14343001E+03 -0.67512E-04
 0.14348001E+03 -0.69304E-04
 0.14353001E+03 -0.62348E-04
 0.14358002E+03 -0.47342E-04
 0.14363002E+03 -0.35676E-04
 0.14368001E+03 -0.18333E-04
 0.14373001E+03 -0.61730E-05
 0.14378001E+03 -0.46769E-05
 0.14383002E+03 -0.78631E-06
 0.14388002E+03 -0.20282E-05
 0.14393001E+03 -0.37055E-05
 0.14398001E+03 -0.34912E-05
 0.14403001E+03 -0.42915E-05
 0.14408002E+03 -0.14919E-05
 0.14413002E+03 -0.14832E-05
 0.14418001E+03  0.19728E-05
 0.14423001E+03  0.79289E-05
 0.14428001E+03  0.79300E-05
 0.14433002E+03  0.12755E-04
 0.14438002E+03  0.19727E-04
 0.14443001E+03  0.23443E-04
 0.14448001E+03  0.26954E-04
 0.14453001E+03  0.28339E-04
 0.14458002E+03  0.26449E-04
 0.14463002E+03  0.25817E-04
 0.14468001E+03  0.32061E-04
 0.14473001E+03  0.37277E-04
 0.14478001E+03  0.38733E-04
 0.14483002E+03  0.44631E-04
 0.14488002E+03  0.49373E-04
 0.14493001E+03  0.52163E-04
 0.14498001E+03  0.52111E-04
 0.14503001E+03  0.42746E-04
 0.14508002E+03  0.29154E-04
 0.14513002E+03  0.16838E-04
 0.14518001E+03  0.78322E-05
 0.14523001E+03  0.13196E-05
 0.14528001E+03  0.13735E-05
 0.14533002E+03  0.69478E-05
 0.14538002E+03  0.84622E-05
 0.14543001E+03 -0.18609E-06
 0.14548001E+03 -0.41149E-05
 0.14553001E+03  0.81316E-06
 0.14558002E+03 -0.71437E-05
 0.14563002E+03 -0.11297E-04
 0.14568001E+03 -0.12395E-04
 0.14573001E+03 -0.23770E-04
 0.14578001E+03 -0.26117E-04
 0.14583002E+03 -0.31921E-04
 0.14588002E+03 -0.38870E-04
 0.14593001E+03 -0.30575E-04
 0.14598001E+03 -0.20965E-04
 0.14603001E+03 -0.98042E-05
 0.14608002E+03 -0.94181E-06
 0.14613002E+03  0.46821E-05
 0.14618001E+03  0.16726E-04
 0.14623001E+03  0.17233E-04
 0.14628001E+03 -0.24579E-06
 0.14633002E+03 -0.10843E-04
 0.14638002E+03 -0.13167E-04
 0.14643001E+03 -0.15582E-04
 0.14648001E+03 -0.10529E-04
 0.14653001E+03 -0.10304E-04
 0.14658002E+03 -0.12608E-04
 0.14663002E+03 -0.95231E-05
 0.14668001E+03 -0.12651E-04
 0.14673001E+03 -0.19183E-04
 0.14678001E+03 -0.19225E-04
 0.14683002E+03 -0.21156E-04
 0.14688002E+03 -0.27006E-04
 0.14693001E+03 -0.25147E-04
 0.14698001E+03 -0.21184E-04
 0.14703001E+03 -0.11390E-04
 0.14708002E+03  0.42936E-05
 0.14713002E+03  0.16576E-04
 0.14718001E+03  0.17726E-04
 0.14723001E+03  0.12630E-04
 0.14728001E+03  0.12983E-04
 0.14733002E+03  0.15691E-04
 0.14738002E+03  0.11551E-04
 0.14743001E+03  0.25171E-05
 0.14748001E+03  0.59960E-06
 0.14753001E+03 -0.28948E-05
 0.14758002E+03 -0.11433E-05
 0.14763002E+03  0.11486E-04
 0.14768001E+03  0.18294E-04
 0.14773001E+03  0.92001E-05
 0.14778001E+03 -0.11929E-04
 0.14783002E+03 -0.29874E-04
 0.14788002E+03 -0.29072E-04
 0.14793001E+03 -0.14671E-04
 0.14798001E+03 -0.13586E-04
 0.14803001E+03 -0.12961E-04
 0.14808002E+03 -0.47323E-05
 0.14813002E+03  0.22445E-05
 0.14818001E+03  0.21994E-04
 0.14823001E+03  0.45293E-04
 0.14828001E+03  0.51956E-04
 0.14833002E+03  0.41417E-04
 0.14838002E+03  0.28967E-04
 0.14843001E+03  0.22496E-04
 0.14848001E+03  0.24014E-04
 0.14853001E+03  0.22253E-04
 0.14858002E+03  0.12280E-04
 0.14863002E+03  0.43989E-05
 0.14868001E+03 -0.44153E-05
 0.14873001E+03 -0.56835E-05
 0.14878001E+03 -0.10099E-04
 0.14883002E+03 -0.19161E-04
 0.14888002E+03 -0.19593E-04
 0.14893001E+03 -0.21382E-04
 0.14898001E+03 -0.17317E-04
 0.14903001E+03 -0.31617E-05
 0.14908002E+03  0.54093E-05
 0.14913002E+03  0.41171E-05
 0.14918001E+03 -0.28796E-06
 0.14923001E+03 -0.35986E-05
 0.14928001E+03  0.14897E-05
 0.14933002E+03  0.49546E-05
 0.14938002E+03 -0.30457E-06
 0.14943001E+03 -0.10807E-04
 0.14948001E+03 -0.23718E-04
 0.14953001E+03 -0.31491E-04
 0.14958002E+03 -0.36761E-04
 0.14963002E+03 -0.37391E-04
 0.14968001E+03 -0.42144E-04
 0.14973001E+03 -0.53900E-04
 0.14978001E+03 -0.63096E-04
 0.14983002E+03 -0.71007E-04
 0.14988002E+03 -0.77871E-04
 0.14993001E+03 -0.74950E-04
 0.14998001E+03 -0.56325E-04
