 0.00000000E+00 -0.12146E-06
 0.50000001E-01 -0.41997E-06
 0.10000000E+00 -0.10690E-05
 0.15000001E+00 -0.93481E-06
 0.20000000E+00 -0.40575E-06
 0.25000000E+00 -0.60793E-06
 0.30000001E+00 -0.65567E-06
 0.34999999E+00 -0.16263E-06
 0.40000001E+00 -0.91759E-07
 0.45000002E+00 -0.86635E-06
 0.50000000E+00 -0.10288E-05
 0.55000001E+00 -0.20123E-06
 0.60000002E+00 -0.30734E-06
 0.65000004E+00 -0.49964E-06
 0.69999999E+00  0.21784E-06
 0.75000000E+00  0.56249E-06
 0.80000001E+00  0.30681E-06
 0.85000002E+00  0.50516E-06
 0.90000004E+00  0.84256E-06
 0.94999999E+00  0.27842E-06
 0.10000000E+01 -0.13799E-08
 0.10500001E+01  0.18589E-06
 0.11000000E+01 -0.80637E-07
 0.11500000E+01 -0.19927E-06
 0.12000000E+01  0.30966E-06
 0.12500000E+01  0.84158E-06
 0.13000001E+01  0.76125E-06
 0.13500000E+01  0.49964E-06
 0.14000000E+01  0.68888E-06
 0.14500000E+01  0.49650E-06
 0.15000000E+01 -0.15940E-06
 0.15500001E+01 -0.22229E-06
 0.16000000E+01 -0.29314E-06
 0.16500000E+01 -0.44105E-06
 0.17000000E+01 -0.36300E-06
 0.17500000E+01 -0.25705E-06
 0.18000001E+01 -0.31357E-06
 0.18500000E+01 -0.51175E-06
 0.19000000E+01 -0.36861E-06
 0.19500000E+01 -0.59216E-06
 0.20000000E+01 -0.96802E-06
 0.20500000E+01 -0.45665E-06
 0.21000001E+01 -0.15182E-06
 0.21500001E+01 -0.49149E-06
 0.22000000E+01 -0.28798E-06
 0.22500000E+01  0.74448E-07
 0.23000000E+01  0.13223E-07
 0.23500001E+01  0.20712E-06
 0.24000001E+01  0.58979E-06
 0.24500000E+01  0.65799E-06
 0.25000000E+01  0.65015E-06
 0.25500000E+01  0.61835E-06
 0.26000001E+01  0.29242E-06
 0.26500001E+01  0.70078E-07
 0.27000000E+01  0.10642E-06
 0.27500000E+01 -0.48348E-08
 0.28000000E+01 -0.19546E-06
 0.28500001E+01  0.10023E-06
 0.29000001E+01  0.77955E-06
 0.29500000E+01  0.61415E-06
 0.30000000E+01  0.25760E-06
 0.30500000E+01  0.48687E-06
 0.31000001E+01  0.19891E-06
 0.31500001E+01 -0.17487E-06
 0.32000000E+01 -0.26304E-07
 0.32500000E+01  0.55099E-06
 0.33000000E+01  0.79042E-06
 0.33500001E+01  0.50369E-06
 0.34000001E+01  0.51992E-06
 0.34500000E+01  0.10191E-08
 0.35000000E+01 -0.76466E-06
 0.35500000E+01 -0.63548E-06
 0.36000001E+01 -0.19098E-06
 0.36500001E+01 -0.19734E-06
 0.37000000E+01 -0.37899E-07
 0.37500000E+01  0.40346E-06
 0.38000000E+01 -0.46008E-07
 0.38500001E+01 -0.62590E-06
 0.39000001E+01 -0.63821E-06
 0.39500000E+01 -0.89397E-06
 0.40000000E+01 -0.11479E-05
 0.40500002E+01 -0.93715E-06
 0.40999999E+01 -0.40723E-06
 0.41500001E+01 -0.12247E-06
 0.42000003E+01 -0.39463E-06
 0.42500000E+01 -0.13905E-06
 0.43000002E+01  0.34765E-07
 0.43499999E+01 -0.55794E-06
 0.44000001E+01 -0.36880E-06
 0.44500003E+01  0.29513E-06
 0.45000000E+01  0.71123E-06
 0.45500002E+01  0.82040E-06
 0.45999999E+01  0.67813E-06
 0.46500001E+01  0.39492E-06
 0.47000003E+01 -0.27160E-06
 0.47500000E+01 -0.42777E-06
 0.48000002E+01  0.10982E-06
 0.48499999E+01  0.21792E-06
 0.49000001E+01  0.73712E-07
 0.49500003E+01  0.48702E-06
 0.50000000E+01  0.51822E-06
 0.50500002E+01 -0.90231E-07
 0.50999999E+01 -0.15243E-06
 0.51500001E+01  0.20817E-06
 0.52000003E+01  0.18340E-06
 0.52500000E+01 -0.21637E-06
 0.53000002E+01 -0.10786E-06
 0.53499999E+01 -0.23246E-07
 0.54000001E+01 -0.46101E-06
 0.54500003E+01 -0.65255E-06
 0.55000000E+01 -0.38691E-06
 0.55500002E+01 -0.77261E-07
 0.55999999E+01 -0.24798E-06
 0.56500001E+01  0.86918E-08
 0.57000003E+01  0.43356E-06
 0.57500000E+01  0.16332E-06
 0.58000002E+01  0.30021E-06
 0.58499999E+01  0.78650E-06
 0.59000001E+01  0.64696E-06
 0.59500003E+01  0.43408E-07
 0.60000000E+01  0.41278E-06
 0.60500002E+01  0.98185E-06
 0.60999999E+01  0.42908E-06
 0.61500001E+01  0.43598E-06
 0.62000003E+01  0.50721E-06
 0.62500000E+01 -0.11025E-07
 0.63000002E+01 -0.51818E-06
 0.63499999E+01 -0.10297E-06
 0.64000001E+01  0.32817E-06
 0.64500003E+01 -0.17193E-05
 0.65000000E+01 -0.19588E-05
 0.65500002E+01  0.11243E-05
 0.65999999E+01  0.15575E-05
 0.66500001E+01 -0.74391E-06
 0.67000003E+01 -0.86307E-06
 0.67500000E+01  0.62046E-06
 0.68000002E+01  0.32042E-06
 0.68499999E+01 -0.35346E-06
 0.69000001E+01 -0.67198E-06
 0.69500003E+01 -0.12984E-05
 0.70000000E+01  0.81245E-08
 0.70500002E+01  0.21234E-05
 0.70999999E+01  0.71523E-06
 0.71500001E+01 -0.19269E-05
 0.72000003E+01 -0.23341E-06
 0.72500000E+01  0.16594E-05
 0.73000002E+01 -0.35442E-06
 0.73499999E+01 -0.16048E-05
 0.74000001E+01 -0.69272E-07
 0.74500003E+01  0.83073E-06
 0.75000000E+01 -0.45618E-06
 0.75500002E+01 -0.71789E-06
 0.75999999E+01  0.55345E-07
 0.76500001E+01 -0.82016E-07
 0.77000003E+01  0.32529E-06
 0.77500000E+01  0.53110E-06
 0.78000002E+01  0.17849E-08
 0.78499999E+01 -0.79429E-07
 0.79000001E+01 -0.13659E-06
 0.79500003E+01 -0.22211E-06
 0.80000000E+01 -0.92359E-06
 0.80500002E+01 -0.10536E-05
 0.81000004E+01  0.50700E-06
 0.81500006E+01  0.60411E-06
 0.81999998E+01 -0.97077E-06
 0.82500000E+01 -0.43259E-06
 0.83000002E+01  0.77729E-06
 0.83500004E+01  0.17585E-06
 0.84000006E+01 -0.43277E-06
 0.84499998E+01 -0.30336E-06
 0.85000000E+01  0.90002E-06
 0.85500002E+01  0.63843E-06
 0.86000004E+01  0.18498E-08
 0.86500006E+01  0.71744E-06
 0.86999998E+01 -0.40242E-06
 0.87500000E+01 -0.95084E-06
 0.88000002E+01  0.46761E-07
 0.88500004E+01  0.69300E-06
 0.89000006E+01  0.32240E-06
 0.89499998E+01  0.82999E-07
 0.90000000E+01 -0.97575E-07
 0.90500002E+01 -0.87639E-06
 0.91000004E+01  0.11003E-06
 0.91500006E+01  0.93624E-06
 0.91999998E+01  0.76971E-06
 0.92500000E+01 -0.11203E-07
 0.93000002E+01 -0.14581E-06
 0.93500004E+01  0.15973E-05
 0.94000006E+01  0.10900E-05
 0.94499998E+01 -0.11980E-06
 0.95000000E+01  0.12208E-06
 0.95500002E+01 -0.53373E-07
 0.96000004E+01 -0.89056E-07
 0.96500006E+01  0.35602E-06
 0.96999998E+01  0.71725E-06
 0.97500000E+01 -0.18433E-06
 0.98000002E+01 -0.85468E-06
 0.98500004E+01  0.82451E-07
 0.99000006E+01  0.17914E-06
 0.99499998E+01 -0.54210E-06
 0.10000000E+02  0.31946E-06
 0.10050000E+02  0.10704E-05
 0.10100000E+02 -0.31864E-06
 0.10150001E+02 -0.10808E-05
 0.10200000E+02 -0.35623E-06
 0.10250000E+02 -0.17605E-06
 0.10300000E+02 -0.28694E-06
 0.10350000E+02  0.86885E-08
 0.10400001E+02 -0.79530E-06
 0.10450000E+02 -0.12763E-05
 0.10500000E+02  0.10203E-05
 0.10550000E+02  0.20307E-05
 0.10600000E+02 -0.11467E-05
 0.10650001E+02 -0.51291E-05
 0.10700000E+02 -0.37655E-05
 0.10750000E+02  0.13615E-05
 0.10800000E+02  0.36378E-05
 0.10850000E+02  0.35338E-05
 0.10900001E+02  0.26817E-05
 0.10950000E+02  0.11903E-05
 0.11000000E+02 -0.49599E-05
 0.11050000E+02 -0.72202E-05
 0.11100000E+02 -0.21035E-06
 0.11150001E+02  0.23318E-05
 0.11200000E+02  0.82551E-06
 0.11250000E+02 -0.77461E-06
 0.11300000E+02 -0.12842E-05
 0.11350000E+02 -0.89554E-06
 0.11400001E+02 -0.74493E-06
 0.11450000E+02  0.22171E-05
 0.11500000E+02  0.35975E-05
 0.11550000E+02  0.12444E-05
 0.11600000E+02 -0.17662E-05
 0.11650001E+02 -0.41993E-05
 0.11700000E+02 -0.12879E-05
 0.11750000E+02  0.53851E-05
 0.11800000E+02  0.67092E-05
 0.11850000E+02  0.28531E-05
 0.11900001E+02 -0.23136E-05
 0.11950000E+02 -0.45720E-05
 0.12000000E+02 -0.46781E-05
 0.12050000E+02 -0.27600E-05
 0.12100000E+02  0.40242E-05
 0.12150001E+02  0.69382E-05
 0.12200000E+02  0.38135E-05
 0.12250000E+02 -0.88877E-06
 0.12300000E+02 -0.32043E-05
 0.12350000E+02 -0.31056E-05
 0.12400001E+02 -0.24554E-05
 0.12450000E+02  0.22016E-05
 0.12500000E+02  0.49390E-05
 0.12550000E+02  0.33523E-05
 0.12600000E+02  0.21030E-07
 0.12650001E+02 -0.23145E-05
 0.12700000E+02 -0.27889E-05
 0.12750000E+02 -0.36990E-05
 0.12800000E+02 -0.91660E-07
 0.12850000E+02  0.41922E-05
 0.12900001E+02  0.37540E-05
 0.12950000E+02 -0.80981E-07
 0.13000000E+02 -0.37624E-05
 0.13050000E+02 -0.41817E-05
 0.13100000E+02 -0.30836E-05
 0.13150001E+02  0.98197E-06
 0.13200000E+02  0.43303E-05
 0.13250000E+02  0.28903E-05
 0.13300000E+02 -0.67894E-06
 0.13350000E+02 -0.23254E-05
 0.13400001E+02 -0.16735E-05
 0.13450000E+02 -0.19419E-05
 0.13500000E+02 -0.83153E-06
 0.13550000E+02  0.17232E-05
 0.13600000E+02  0.26720E-05
 0.13650001E+02  0.14009E-05
 0.13700000E+02  0.31412E-07
 0.13750000E+02 -0.39754E-06
 0.13800000E+02 -0.13510E-05
 0.13850000E+02 -0.12926E-05
 0.13900001E+02 -0.31883E-06
 0.13950000E+02 -0.14475E-06
 0.14000000E+02  0.24965E-06
 0.14050000E+02  0.33998E-06
 0.14100000E+02 -0.11887E-05
 0.14150001E+02 -0.20623E-05
 0.14200000E+02 -0.95473E-06
 0.14250000E+02 -0.73386E-08
 0.14300000E+02 -0.59825E-06
 0.14350000E+02 -0.81969E-06
 0.14400001E+02  0.54765E-06
 0.14450000E+02  0.27910E-05
 0.14500000E+02  0.29338E-05
 0.14550000E+02  0.92861E-06
 0.14600000E+02 -0.56566E-06
 0.14650001E+02 -0.20819E-05
 0.14700000E+02 -0.14793E-05
 0.14750000E+02  0.34482E-06
 0.14800000E+02  0.16016E-05
 0.14850000E+02  0.20040E-05
 0.14900001E+02  0.49210E-06
 0.14950000E+02 -0.79332E-06
 0.15000000E+02 -0.12205E-05
 0.15050000E+02 -0.58427E-06
 0.15100000E+02  0.56574E-06
 0.15150001E+02  0.11993E-05
 0.15200000E+02  0.12190E-05
 0.15250000E+02  0.11198E-05
 0.15300000E+02  0.58047E-06
 0.15350000E+02 -0.13358E-05
 0.15400001E+02 -0.24193E-05
 0.15450000E+02 -0.19829E-05
 0.15500000E+02 -0.22246E-06
 0.15550000E+02  0.16921E-05
 0.15600000E+02  0.16893E-05
 0.15650001E+02  0.17466E-05
 0.15700000E+02  0.68191E-06
 0.15750000E+02 -0.21675E-05
 0.15800000E+02 -0.30736E-05
 0.15850000E+02 -0.17696E-05
 0.15900001E+02  0.62317E-06
 0.15950000E+02  0.28485E-05
 0.16000000E+02  0.25283E-05
 0.16050001E+02  0.25119E-06
 0.16100000E+02 -0.49495E-06
 0.16150000E+02  0.51524E-07
 0.16200001E+02  0.61681E-06
 0.16250000E+02 -0.18019E-06
 0.16300001E+02  0.14031E-05
 0.16350000E+02  0.47703E-05
 0.16400000E+02 -0.25524E-05
 0.16450001E+02 -0.67370E-05
 0.16500000E+02  0.23987E-05
 0.16550001E+02  0.42082E-05
 0.16600000E+02 -0.39084E-06
 0.16650000E+02 -0.73896E-06
 0.16700001E+02 -0.23252E-07
 0.16750000E+02 -0.12490E-05
 0.16800001E+02 -0.23434E-05
 0.16850000E+02 -0.26538E-06
 0.16900000E+02 -0.44646E-06
 0.16950001E+02 -0.28435E-05
 0.17000000E+02 -0.79310E-06
 0.17050001E+02  0.12552E-05
 0.17100000E+02  0.34859E-06
 0.17150000E+02 -0.50830E-07
 0.17200001E+02 -0.13404E-05
 0.17250000E+02 -0.21196E-05
 0.17300001E+02 -0.82221E-06
 0.17350000E+02  0.56810E-07
 0.17400000E+02 -0.12612E-06
 0.17450001E+02 -0.11167E-05
 0.17500000E+02 -0.15045E-05
 0.17550001E+02 -0.41923E-06
 0.17600000E+02  0.23459E-05
 0.17650000E+02  0.27203E-05
 0.17700001E+02 -0.15910E-06
 0.17750000E+02 -0.72648E-06
 0.17800001E+02  0.10538E-07
 0.17850000E+02  0.54857E-06
 0.17900000E+02  0.13727E-05
 0.17950001E+02  0.14512E-05
 0.18000000E+02  0.99412E-06
 0.18050001E+02  0.22831E-07
 0.18100000E+02 -0.26588E-06
 0.18150000E+02  0.80252E-06
 0.18200001E+02  0.14475E-05
 0.18250000E+02  0.10307E-05
 0.18300001E+02  0.67037E-07
 0.18350000E+02 -0.49529E-06
 0.18400000E+02  0.18904E-07
 0.18450001E+02  0.33698E-06
 0.18500000E+02  0.30769E-06
 0.18550001E+02  0.98722E-06
 0.18600000E+02  0.73272E-06
 0.18650000E+02  0.68918E-07
 0.18700001E+02  0.68656E-06
 0.18750000E+02  0.42925E-06
 0.18800001E+02 -0.83317E-06
 0.18850000E+02 -0.10973E-05
 0.18900000E+02 -0.38545E-06
 0.18950001E+02 -0.55226E-06
 0.19000000E+02 -0.10922E-05
 0.19050001E+02 -0.20515E-06
 0.19100000E+02  0.18041E-06
 0.19150000E+02 -0.55679E-06
 0.19200001E+02 -0.30511E-06
 0.19250000E+02  0.81516E-06
 0.19300001E+02  0.74385E-06
 0.19350000E+02 -0.68804E-06
 0.19400000E+02 -0.76571E-06
 0.19450001E+02 -0.21683E-06
 0.19500000E+02 -0.11687E-05
 0.19550001E+02 -0.61348E-06
 0.19600000E+02  0.94773E-06
 0.19650000E+02  0.24223E-06
 0.19700001E+02 -0.81143E-06
 0.19750000E+02 -0.38711E-06
 0.19800001E+02  0.18217E-06
 0.19850000E+02 -0.70338E-06
 0.19900000E+02 -0.87877E-06
 0.19950001E+02  0.49231E-06
 0.20000000E+02 -0.54136E-07
 0.20050001E+02 -0.92088E-06
 0.20100000E+02  0.29149E-06
 0.20150000E+02  0.92343E-06
 0.20200001E+02  0.28701E-07
 0.20250000E+02 -0.54813E-07
 0.20300001E+02  0.99585E-06
 0.20350000E+02  0.79283E-06
 0.20400000E+02  0.78304E-07
 0.20450001E+02  0.77213E-06
 0.20500000E+02  0.73883E-06
 0.20550001E+02 -0.82358E-06
 0.20600000E+02 -0.10568E-05
 0.20650000E+02  0.10148E-07
 0.20700001E+02 -0.73970E-06
 0.20750000E+02 -0.20535E-05
 0.20800001E+02 -0.10089E-05
 0.20850000E+02 -0.63339E-06
 0.20900000E+02 -0.17305E-05
 0.20950001E+02 -0.61222E-06
 0.21000000E+02  0.13698E-05
 0.21050001E+02  0.78065E-06
 0.21100000E+02 -0.71138E-06
 0.21150000E+02  0.12515E-06
 0.21200001E+02  0.94693E-06
 0.21250000E+02 -0.22127E-06
 0.21300001E+02 -0.29843E-06
 0.21350000E+02  0.11081E-05
 0.21400000E+02  0.90920E-06
 0.21450001E+02 -0.25376E-06
 0.21500000E+02  0.44773E-06
 0.21550001E+02  0.73691E-06
 0.21600000E+02 -0.30283E-06
 0.21650000E+02  0.33269E-06
 0.21700001E+02  0.15002E-05
 0.21750000E+02  0.86703E-06
 0.21800001E+02 -0.86075E-07
 0.21850000E+02  0.45139E-06
 0.21900000E+02  0.11506E-05
 0.21950001E+02  0.72761E-06
 0.22000000E+02  0.76701E-06
 0.22050001E+02  0.13086E-05
 0.22100000E+02  0.19892E-06
 0.22150000E+02 -0.73750E-06
 0.22200001E+02 -0.16066E-07
 0.22250000E+02 -0.27070E-08
 0.22300001E+02 -0.85698E-06
 0.22350000E+02 -0.44751E-06
 0.22400000E+02  0.11902E-05
 0.22450001E+02  0.15059E-05
 0.22500000E+02  0.65689E-06
 0.22550001E+02  0.80810E-06
 0.22600000E+02  0.80324E-06
 0.22650000E+02 -0.73465E-06
 0.22700001E+02 -0.13781E-05
 0.22750000E+02 -0.15763E-06
 0.22800001E+02 -0.12216E-06
 0.22850000E+02 -0.11780E-05
 0.22900000E+02 -0.60464E-06
 0.22950001E+02 -0.21765E-06
 0.23000000E+02 -0.14362E-05
 0.23050001E+02 -0.16556E-05
 0.23100000E+02 -0.48450E-06
 0.23150000E+02 -0.42901E-06
 0.23200001E+02 -0.14206E-05
 0.23250000E+02 -0.81204E-06
 0.23300001E+02  0.10556E-06
 0.23350000E+02 -0.10749E-05
 0.23400000E+02 -0.14070E-05
 0.23450001E+02  0.49915E-06
 0.23500000E+02  0.59958E-06
 0.23550001E+02 -0.60748E-06
 0.23600000E+02  0.52822E-06
 0.23650000E+02  0.13975E-05
 0.23700001E+02 -0.43968E-06
 0.23750000E+02 -0.10658E-05
 0.23800001E+02  0.73897E-06
 0.23850000E+02  0.46741E-06
 0.23900000E+02 -0.13749E-05
 0.23950001E+02 -0.40810E-06
 0.24000000E+02  0.12720E-05
 0.24050001E+02 -0.55348E-07
 0.24100000E+02 -0.68709E-06
 0.24150000E+02  0.93472E-06
 0.24200001E+02 -0.93646E-07
 0.24250000E+02 -0.22821E-05
 0.24300001E+02 -0.69424E-06
 0.24350000E+02  0.13002E-05
 0.24400000E+02 -0.11093E-07
 0.24450001E+02 -0.33442E-06
 0.24500000E+02  0.15689E-05
 0.24550001E+02  0.80632E-06
 0.24600000E+02 -0.12331E-05
 0.24650000E+02  0.51764E-06
 0.24700001E+02  0.23932E-05
 0.24750000E+02  0.63007E-06
 0.24800001E+02  0.18571E-06
 0.24850000E+02  0.24355E-05
 0.24900000E+02  0.18777E-05
 0.24950001E+02 -0.58990E-06
 0.25000000E+02  0.34819E-06
 0.25050001E+02  0.14998E-05
 0.25100000E+02 -0.80352E-06
 0.25150000E+02 -0.13939E-05
 0.25200001E+02  0.79751E-06
 0.25250000E+02  0.79989E-08
 0.25300001E+02 -0.18585E-05
 0.25350000E+02 -0.37076E-07
 0.25400000E+02  0.11532E-05
 0.25450001E+02 -0.10517E-05
 0.25500000E+02 -0.83847E-06
 0.25550001E+02  0.14545E-05
 0.25600000E+02 -0.76187E-07
 0.25650000E+02 -0.15572E-05
 0.25700001E+02  0.78774E-06
 0.25750000E+02  0.12380E-05
 0.25800001E+02 -0.80412E-06
 0.25850000E+02  0.80380E-07
 0.25900000E+02  0.16494E-05
 0.25950001E+02 -0.10166E-06
 0.26000000E+02 -0.10816E-05
 0.26050001E+02  0.61210E-06
 0.26100000E+02  0.26550E-06
 0.26150000E+02 -0.14255E-05
 0.26200001E+02 -0.39948E-06
 0.26250000E+02  0.87364E-06
 0.26300001E+02 -0.15196E-06
 0.26350000E+02 -0.58622E-06
 0.26400000E+02  0.71117E-06
 0.26450001E+02  0.22336E-06
 0.26500000E+02 -0.13791E-05
 0.26550001E+02 -0.81691E-06
 0.26600000E+02 -0.44418E-06
 0.26650000E+02 -0.14309E-05
 0.26700001E+02 -0.12678E-05
 0.26750000E+02  0.15813E-06
 0.26800001E+02  0.47186E-06
 0.26850000E+02 -0.87864E-07
 0.26900000E+02  0.76569E-06
 0.26950001E+02  0.78316E-06
 0.27000000E+02 -0.13905E-05
 0.27050001E+02 -0.13847E-05
 0.27100000E+02  0.70840E-06
 0.27150000E+02  0.58987E-06
 0.27200001E+02 -0.16492E-06
 0.27250000E+02  0.13895E-05
 0.27300001E+02  0.19629E-05
 0.27350000E+02 -0.61219E-06
 0.27400000E+02 -0.13019E-05
 0.27450001E+02  0.45184E-06
 0.27500000E+02  0.66215E-07
 0.27550001E+02 -0.46393E-06
 0.27600000E+02  0.13515E-05
 0.27650000E+02  0.24289E-05
 0.27700001E+02  0.15818E-05
 0.27750000E+02  0.25591E-06
 0.27800001E+02  0.92731E-07
 0.27850000E+02 -0.13343E-05
 0.27900000E+02 -0.44451E-05
 0.27950001E+02 -0.19206E-05
 0.28000000E+02  0.31433E-05
 0.28050001E+02  0.45576E-05
 0.28100000E+02  0.20396E-05
 0.28150000E+02 -0.64921E-05
 0.28200001E+02 -0.17621E-04
 0.28250000E+02 -0.12843E-04
 0.28300001E+02 -0.38343E-05
 0.28350000E+02  0.10180E-05
 0.28400000E+02  0.23463E-04
 0.28450001E+02  0.22693E-04
 0.28500000E+02  0.24808E-05
 0.28550001E+02 -0.81280E-05
 0.28600000E+02 -0.16388E-04
 0.28650000E+02  0.20356E-05
 0.28700001E+02 -0.28766E-05
 0.28750000E+02 -0.25243E-04
 0.28800001E+02 -0.29760E-05
 0.28850000E+02  0.24001E-04
 0.28900000E+02  0.23398E-04
 0.28950001E+02  0.66286E-05
 0.29000000E+02 -0.16659E-06
 0.29050001E+02 -0.16929E-06
 0.29100000E+02  0.13371E-04
 0.29150000E+02  0.16306E-04
 0.29200001E+02 -0.16774E-04
 0.29250000E+02 -0.37099E-04
 0.29300001E+02 -0.23677E-04
 0.29350000E+02  0.32319E-04
 0.29400000E+02  0.45295E-04
 0.29450001E+02 -0.13558E-04
 0.29500000E+02 -0.37040E-04
 0.29550001E+02 -0.20911E-04
 0.29600000E+02 -0.35643E-05
 0.29650000E+02  0.10200E-04
 0.29700001E+02  0.24056E-04
 0.29750000E+02  0.11344E-04
 0.29800001E+02 -0.37167E-05
 0.29850000E+02 -0.83229E-05
 0.29900000E+02 -0.30415E-04
 0.29950001E+02 -0.80683E-05
 0.30000000E+02  0.16295E-04
 0.30050001E+02  0.22168E-04
 0.30100000E+02  0.51714E-04
 0.30150000E+02  0.27557E-04
 0.30200001E+02 -0.16097E-04
 0.30250000E+02 -0.20661E-04
 0.30300001E+02 -0.27386E-04
 0.30350000E+02 -0.36330E-04
 0.30400000E+02 -0.40443E-04
 0.30450001E+02 -0.40255E-04
 0.30500000E+02 -0.31250E-04
 0.30550001E+02 -0.52380E-05
 0.30600000E+02  0.33686E-04
 0.30650000E+02  0.53805E-04
 0.30700001E+02  0.45963E-04
 0.30750000E+02  0.40599E-04
 0.30800001E+02  0.50194E-04
 0.30850000E+02  0.35322E-04
 0.30900000E+02 -0.24468E-05
 0.30950001E+02 -0.21052E-04
 0.31000000E+02 -0.24958E-04
 0.31050001E+02 -0.25601E-04
 0.31100000E+02 -0.38234E-04
 0.31150000E+02 -0.54236E-04
 0.31200001E+02 -0.27208E-04
 0.31250000E+02  0.31205E-04
 0.31300001E+02  0.65325E-04
 0.31350000E+02  0.34561E-04
 0.31400000E+02 -0.32823E-04
 0.31450001E+02 -0.76163E-04
 0.31500000E+02 -0.59601E-04
 0.31550001E+02 -0.69922E-05
 0.31600000E+02  0.88230E-05
 0.31650000E+02  0.14344E-04
 0.31700001E+02  0.42780E-04
 0.31750000E+02  0.56535E-04
 0.31800001E+02  0.50268E-04
 0.31850000E+02  0.15116E-04
 0.31900000E+02 -0.31023E-04
 0.31950001E+02 -0.23959E-04
 0.32000000E+02  0.15387E-04
 0.32049999E+02  0.13344E-05
 0.32100002E+02 -0.23452E-04
 0.32150002E+02  0.11889E-04
 0.32200001E+02  0.38567E-04
 0.32250000E+02  0.99655E-05
 0.32299999E+02 -0.48823E-04
 0.32350002E+02 -0.82065E-04
 0.32400002E+02 -0.50925E-04
 0.32450001E+02 -0.73656E-05
 0.32500000E+02  0.18511E-04
 0.32549999E+02  0.53215E-04
 0.32600002E+02  0.61536E-04
 0.32650002E+02  0.18994E-04
 0.32700001E+02 -0.42003E-05
 0.32750000E+02  0.13307E-04
 0.32799999E+02  0.87722E-05
 0.32850002E+02 -0.30774E-04
 0.32900002E+02 -0.33735E-04
 0.32950001E+02  0.13794E-04
 0.33000000E+02  0.47347E-04
 0.33049999E+02  0.30703E-04
 0.33100002E+02 -0.16034E-04
 0.33150002E+02 -0.50302E-04
 0.33200001E+02 -0.55524E-04
 0.33250000E+02 -0.32249E-04
 0.33299999E+02  0.42401E-05
 0.33350002E+02  0.29938E-04
 0.33400002E+02  0.20158E-04
 0.33450001E+02  0.74073E-05
 0.33500000E+02  0.35605E-04
 0.33549999E+02  0.47327E-04
 0.33600002E+02  0.29731E-05
 0.33650002E+02 -0.47565E-04
 0.33700001E+02 -0.61478E-04
 0.33750000E+02 -0.32561E-04
 0.33799999E+02  0.15444E-04
 0.33850002E+02  0.27318E-04
 0.33900002E+02  0.99515E-05
 0.33950001E+02  0.22906E-04
 0.34000000E+02  0.43084E-04
 0.34049999E+02  0.36786E-04
 0.34100002E+02  0.19482E-04
 0.34150002E+02 -0.26862E-04
 0.34200001E+02 -0.85578E-04
 0.34250000E+02 -0.10098E-03
 0.34299999E+02 -0.77922E-04
 0.34350002E+02 -0.19228E-04
 0.34400002E+02  0.57328E-04
 0.34450001E+02  0.75421E-04
 0.34500000E+02  0.49232E-04
 0.34549999E+02  0.59882E-04
 0.34600002E+02  0.63962E-04
 0.34650002E+02  0.82153E-05
 0.34700001E+02 -0.45827E-04
 0.34750000E+02 -0.63277E-04
 0.34799999E+02 -0.31400E-04
 0.34850002E+02  0.26645E-04
 0.34900002E+02  0.52860E-04
 0.34950001E+02  0.58998E-04
 0.35000000E+02  0.29963E-04
 0.35049999E+02 -0.27273E-04
 0.35100002E+02 -0.75368E-04
 0.35150002E+02 -0.10225E-03
 0.35200001E+02 -0.69852E-04
 0.35250000E+02 -0.82118E-05
 0.35299999E+02  0.44372E-04
 0.35350002E+02  0.86125E-04
 0.35400002E+02  0.88747E-04
 0.35450001E+02  0.28996E-04
 0.35500000E+02 -0.42283E-04
 0.35549999E+02 -0.74914E-04
 0.35600002E+02 -0.87827E-04
 0.35650002E+02 -0.54448E-04
 0.35700001E+02  0.20636E-04
 0.35750000E+02  0.81810E-04
 0.35799999E+02  0.11158E-03
 0.35850002E+02  0.95786E-04
 0.35900002E+02  0.29330E-04
 0.35950001E+02 -0.54365E-04
 0.36000000E+02 -0.10886E-03
 0.36049999E+02 -0.10902E-03
 0.36100002E+02 -0.49099E-04
 0.36150002E+02  0.16487E-04
 0.36200001E+02  0.33937E-04
 0.36250000E+02  0.37419E-04
 0.36299999E+02  0.44245E-04
 0.36350002E+02  0.51946E-04
 0.36400002E+02  0.50676E-04
 0.36450001E+02  0.33447E-05
 0.36500000E+02 -0.44177E-04
 0.36549999E+02 -0.50791E-04
 0.36600002E+02 -0.40352E-04
 0.36650002E+02 -0.25309E-04
 0.36700001E+02  0.44296E-05
 0.36750000E+02  0.50642E-04
 0.36799999E+02  0.71458E-04
 0.36850002E+02  0.45080E-04
 0.36900002E+02 -0.15822E-04
 0.36950001E+02 -0.55747E-04
 0.37000000E+02 -0.55390E-04
 0.37049999E+02 -0.57169E-04
 0.37100002E+02 -0.35817E-04
 0.37150002E+02  0.14027E-05
 0.37200001E+02  0.77992E-05
 0.37250000E+02  0.73494E-05
 0.37299999E+02  0.20446E-04
 0.37350002E+02  0.45176E-04
 0.37400002E+02  0.63774E-04
 0.37450001E+02  0.58756E-04
 0.37500000E+02  0.44700E-04
 0.37549999E+02  0.13075E-04
 0.37600002E+02 -0.32274E-04
 0.37650002E+02 -0.60465E-04
 0.37700001E+02 -0.54765E-04
 0.37750000E+02 -0.19205E-04
 0.37799999E+02 -0.76441E-05
 0.37850002E+02 -0.30379E-04
 0.37900002E+02 -0.39448E-04
 0.37950001E+02 -0.33210E-04
 0.38000000E+02 -0.21641E-04
 0.38049999E+02 -0.25993E-05
 0.38100002E+02  0.22549E-04
 0.38150002E+02  0.56276E-04
 0.38200001E+02  0.78203E-04
 0.38250000E+02  0.68085E-04
 0.38299999E+02  0.42361E-04
 0.38350002E+02  0.17825E-04
 0.38400002E+02 -0.64596E-05
 0.38450001E+02 -0.29441E-04
 0.38500000E+02 -0.46486E-04
 0.38549999E+02 -0.54267E-04
 0.38600002E+02 -0.40551E-04
 0.38650002E+02 -0.12499E-05
 0.38700001E+02  0.23687E-04
 0.38750000E+02  0.74024E-05
 0.38799999E+02 -0.12987E-04
 0.38850002E+02 -0.17592E-04
 0.38900002E+02 -0.16350E-04
 0.38950001E+02 -0.86968E-05
 0.39000000E+02  0.39289E-05
 0.39049999E+02  0.22279E-04
 0.39100002E+02  0.36671E-04
 0.39150002E+02  0.42221E-04
 0.39200001E+02  0.34910E-04
 0.39250000E+02  0.10654E-04
 0.39299999E+02 -0.22581E-04
 0.39350002E+02 -0.53849E-04
 0.39400002E+02 -0.48562E-04
 0.39450001E+02 -0.22774E-04
 0.39500000E+02 -0.21910E-04
 0.39549999E+02 -0.85961E-05
 0.39600002E+02  0.29123E-04
 0.39650002E+02  0.51936E-04
 0.39700001E+02  0.67558E-04
 0.39750000E+02  0.71136E-04
 0.39799999E+02  0.44637E-04
 0.39850002E+02 -0.21238E-04
 0.39900002E+02 -0.10339E-03
 0.39950001E+02 -0.12228E-03
 0.40000000E+02 -0.68273E-04
 0.40049999E+02 -0.57793E-06
 0.40100002E+02  0.32918E-04
 0.40150002E+02  0.36453E-04
 0.40200001E+02  0.55055E-04
 0.40250000E+02  0.67993E-04
 0.40299999E+02  0.31915E-04
 0.40350002E+02 -0.13564E-04
 0.40400002E+02 -0.20594E-04
 0.40450001E+02 -0.50561E-05
 0.40500000E+02 -0.61956E-05
 0.40549999E+02 -0.23803E-04
 0.40600002E+02 -0.17444E-04
 0.40650002E+02  0.10226E-04
 0.40700001E+02  0.16832E-04
 0.40750000E+02 -0.28804E-04
 0.40799999E+02 -0.71931E-04
 0.40850002E+02 -0.38713E-04
 0.40900002E+02  0.28667E-04
 0.40950001E+02  0.67938E-04
 0.41000000E+02  0.54608E-04
 0.41049999E+02  0.24515E-04
 0.41100002E+02  0.49754E-05
 0.41150002E+02 -0.24283E-04
 0.41200001E+02 -0.41085E-04
 0.41250000E+02 -0.32705E-04
 0.41299999E+02 -0.58692E-05
 0.41350002E+02  0.20029E-04
 0.41400002E+02  0.39013E-04
 0.41450001E+02  0.52786E-04
 0.41500000E+02  0.45402E-04
 0.41549999E+02  0.19773E-04
 0.41600002E+02 -0.29287E-04
 0.41650002E+02 -0.72331E-04
 0.41700001E+02 -0.82420E-04
 0.41750000E+02 -0.69751E-04
 0.41799999E+02 -0.36430E-04
 0.41850002E+02 -0.29899E-05
 0.41900002E+02  0.22564E-04
 0.41950001E+02  0.53208E-04
 0.42000000E+02  0.78131E-04
 0.42049999E+02  0.62828E-04
 0.42100002E+02  0.22346E-04
 0.42150002E+02 -0.12038E-05
 0.42200001E+02 -0.17247E-04
 0.42250000E+02 -0.34951E-04
 0.42299999E+02 -0.38389E-04
 0.42350002E+02 -0.25999E-05
 0.42400002E+02  0.39002E-04
 0.42450001E+02  0.22868E-04
 0.42500000E+02 -0.20128E-04
 0.42549999E+02 -0.37690E-04
 0.42600002E+02 -0.29559E-04
 0.42650002E+02 -0.22417E-04
 0.42700001E+02 -0.21938E-04
 0.42750000E+02  0.32625E-06
 0.42799999E+02  0.32876E-04
 0.42850002E+02  0.44666E-04
 0.42900002E+02  0.48705E-04
 0.42950001E+02  0.56128E-04
 0.43000000E+02  0.44667E-04
 0.43049999E+02  0.18127E-05
 0.43100002E+02 -0.51330E-04
 0.43150002E+02 -0.73389E-04
 0.43200001E+02 -0.54877E-04
 0.43250000E+02 -0.39666E-04
 0.43299999E+02 -0.27256E-04
 0.43350002E+02  0.16974E-04
 0.43400002E+02  0.57023E-04
 0.43450001E+02  0.47572E-04
 0.43500000E+02 -0.14121E-04
 0.43549999E+02 -0.71844E-04
 0.43600002E+02 -0.57475E-04
 0.43650002E+02  0.44913E-06
 0.43700001E+02  0.52277E-04
 0.43750000E+02  0.68958E-04
 0.43799999E+02  0.41711E-04
 0.43850002E+02  0.38423E-05
 0.43900002E+02 -0.18266E-04
 0.43950001E+02 -0.16356E-04
 0.44000000E+02 -0.86779E-05
 0.44049999E+02  0.71181E-05
 0.44100002E+02  0.48308E-04
 0.44150002E+02  0.79091E-04
 0.44200001E+02  0.63970E-04
 0.44250000E+02 -0.23421E-05
 0.44299999E+02 -0.83676E-04
 0.44350002E+02 -0.13092E-03
 0.44400002E+02 -0.14172E-03
 0.44450001E+02 -0.10866E-03
 0.44500000E+02 -0.33212E-04
 0.44549999E+02  0.51876E-04
 0.44600002E+02  0.11291E-03
 0.44650002E+02  0.11817E-03
 0.44700001E+02  0.94221E-04
 0.44750000E+02  0.69846E-04
 0.44799999E+02  0.32868E-04
 0.44850002E+02 -0.57603E-05
 0.44900002E+02 -0.30675E-04
 0.44950001E+02 -0.33512E-04
 0.45000000E+02 -0.34434E-04
 0.45049999E+02 -0.54776E-04
 0.45100002E+02 -0.56491E-04
 0.45150002E+02 -0.23101E-04
 0.45200001E+02  0.35878E-05
 0.45250000E+02  0.63138E-05
 0.45299999E+02 -0.32447E-05
 0.45350002E+02 -0.16812E-04
 0.45400002E+02 -0.19132E-04
 0.45450001E+02 -0.45232E-05
 0.45500000E+02  0.16249E-04
 0.45549999E+02  0.22860E-04
 0.45600002E+02  0.12941E-04
 0.45650002E+02  0.15329E-04
 0.45700001E+02  0.30440E-04
 0.45750000E+02  0.42641E-04
 0.45799999E+02  0.48689E-04
 0.45850002E+02  0.35067E-04
 0.45900002E+02 -0.12794E-04
 0.45950001E+02 -0.68955E-04
 0.46000000E+02 -0.63660E-04
 0.46049999E+02  0.49058E-05
 0.46100002E+02  0.57439E-04
 0.46150002E+02  0.60360E-04
 0.46200001E+02  0.31992E-04
 0.46250000E+02 -0.87842E-05
 0.46299999E+02 -0.44940E-04
 0.46350002E+02 -0.86258E-04
 0.46400002E+02 -0.12522E-03
 0.46450001E+02 -0.12542E-03
 0.46500000E+02 -0.76870E-04
 0.46549999E+02 -0.32650E-06
 0.46600002E+02  0.73083E-04
 0.46650002E+02  0.14022E-03
 0.46700001E+02  0.18444E-03
 0.46750000E+02  0.17351E-03
 0.46799999E+02  0.96396E-04
 0.46850002E+02 -0.17256E-04
 0.46900002E+02 -0.10034E-03
 0.46950001E+02 -0.12774E-03
 0.47000000E+02 -0.11902E-03
 0.47049999E+02 -0.89030E-04
 0.47100002E+02 -0.35015E-04
 0.47150002E+02  0.38265E-04
 0.47200001E+02  0.11278E-03
 0.47250000E+02  0.15812E-03
 0.47299999E+02  0.13009E-03
 0.47350002E+02  0.41651E-04
 0.47400002E+02 -0.61271E-04
 0.47450001E+02 -0.16475E-03
 0.47500000E+02 -0.25030E-03
 0.47549999E+02 -0.30215E-03
 0.47600002E+02 -0.30459E-03
 0.47650002E+02 -0.22243E-03
 0.47700001E+02 -0.33531E-04
 0.47750000E+02  0.25098E-03
 0.47799999E+02  0.55709E-03
 0.47850002E+02  0.74783E-03
 0.47900002E+02  0.72142E-03
 0.47950001E+02  0.45683E-03
 0.48000000E+02  0.12135E-04
 0.48049999E+02 -0.46982E-03
 0.48100002E+02 -0.85180E-03
 0.48150002E+02 -0.10147E-02
 0.48200001E+02 -0.85691E-03
 0.48250000E+02 -0.43256E-03
 0.48299999E+02  0.69935E-04
 0.48350002E+02  0.48693E-03
 0.48400002E+02  0.71976E-03
 0.48450001E+02  0.72307E-03
 0.48500000E+02  0.54307E-03
 0.48549999E+02  0.30524E-03
 0.48600002E+02  0.77090E-04
 0.48650002E+02 -0.11073E-03
 0.48700001E+02 -0.17818E-03
 0.48750000E+02 -0.12706E-03
 0.48799999E+02 -0.10533E-03
 0.48850002E+02 -0.21909E-03
 0.48900002E+02 -0.38278E-03
 0.48950001E+02 -0.48116E-03
 0.49000000E+02 -0.43918E-03
 0.49049999E+02 -0.19676E-03
 0.49100002E+02  0.21296E-03
 0.49150002E+02  0.63250E-03
 0.49200001E+02  0.79375E-03
 0.49250000E+02  0.62719E-03
 0.49299999E+02  0.27749E-03
 0.49350002E+02 -0.15087E-03
 0.49400002E+02 -0.54313E-03
 0.49450001E+02 -0.80919E-03
 0.49500000E+02 -0.83310E-03
 0.49549999E+02 -0.58362E-03
 0.49600002E+02 -0.18940E-03
 0.49650002E+02  0.27327E-03
 0.49700001E+02  0.72635E-03
 0.49750000E+02  0.10577E-02
 0.49799999E+02  0.10978E-02
 0.49850002E+02  0.74036E-03
 0.49900002E+02  0.84661E-04
 0.49950001E+02 -0.64169E-03
 0.50000000E+02 -0.10949E-02
 0.50049999E+02 -0.10967E-02
 0.50100002E+02 -0.78108E-03
 0.50150002E+02 -0.35874E-03
 0.50200001E+02  0.26758E-04
 0.50250000E+02  0.35745E-03
 0.50299999E+02  0.65343E-03
 0.50350002E+02  0.86469E-03
 0.50400002E+02  0.86260E-03
 0.50450001E+02  0.58964E-03
 0.50500000E+02  0.16841E-03
 0.50549999E+02 -0.28184E-03
 0.50600002E+02 -0.69713E-03
 0.50650002E+02 -0.93543E-03
 0.50700001E+02 -0.82628E-03
 0.50750000E+02 -0.39559E-03
 0.50799999E+02  0.10780E-03
 0.50850002E+02  0.45607E-03
 0.50900002E+02  0.60137E-03
 0.50950001E+02  0.56917E-03
 0.51000000E+02  0.39607E-03
 0.51049999E+02  0.18182E-03
 0.51100002E+02 -0.66451E-04
 0.51150002E+02 -0.35363E-03
 0.51200001E+02 -0.53228E-03
 0.51250000E+02 -0.53461E-03
 0.51299999E+02 -0.40570E-03
 0.51350002E+02 -0.15410E-03
 0.51400002E+02  0.17910E-03
 0.51450001E+02  0.43070E-03
 0.51500000E+02  0.46883E-03
 0.51549999E+02  0.33568E-03
 0.51600002E+02  0.15187E-03
 0.51650002E+02  0.42792E-04
 0.51700001E+02  0.33284E-04
 0.51750000E+02  0.39020E-04
 0.51799999E+02 -0.24195E-04
 0.51850002E+02 -0.15629E-03
 0.51900002E+02 -0.23354E-03
 0.51950001E+02 -0.22756E-03
 0.52000000E+02 -0.19336E-03
 0.52049999E+02 -0.13696E-03
 0.52100002E+02 -0.92775E-04
 0.52150002E+02 -0.60091E-04
 0.52200001E+02 -0.73100E-05
 0.52250000E+02  0.10539E-03
 0.52299999E+02  0.26367E-03
 0.52350002E+02  0.35952E-03
 0.52400002E+02  0.34235E-03
 0.52450001E+02  0.19292E-03
 0.52500000E+02 -0.75790E-04
 0.52549999E+02 -0.32190E-03
 0.52600002E+02 -0.36988E-03
 0.52650002E+02 -0.21115E-03
 0.52700001E+02 -0.26689E-05
 0.52750000E+02  0.15656E-03
 0.52799999E+02  0.28530E-03
 0.52850002E+02  0.35150E-03
 0.52900002E+02  0.21943E-03
 0.52950001E+02 -0.13252E-03
 0.53000000E+02 -0.47798E-03
 0.53049999E+02 -0.58521E-03
 0.53100002E+02 -0.45822E-03
 0.53150002E+02 -0.21712E-03
 0.53200001E+02  0.38066E-04
 0.53250000E+02  0.24855E-03
 0.53299999E+02  0.39677E-03
 0.53350002E+02  0.48710E-03
 0.53400002E+02  0.51406E-03
 0.53450001E+02  0.41790E-03
 0.53500000E+02  0.17964E-03
 0.53549999E+02 -0.11072E-03
 0.53600002E+02 -0.32410E-03
 0.53650002E+02 -0.39110E-03
 0.53700001E+02 -0.36875E-03
 0.53750000E+02 -0.32366E-03
 0.53799999E+02 -0.22224E-03
 0.53850002E+02 -0.66295E-04
 0.53900002E+02  0.67699E-04
 0.53950001E+02  0.13276E-03
 0.54000000E+02  0.15339E-03
 0.54049999E+02  0.19980E-03
 0.54100002E+02  0.24356E-03
 0.54150002E+02  0.21900E-03
 0.54200001E+02  0.14730E-03
 0.54250000E+02  0.32764E-04
 0.54299999E+02 -0.12498E-03
 0.54350002E+02 -0.28865E-03
 0.54400002E+02 -0.37622E-03
 0.54450001E+02 -0.32628E-03
 0.54500000E+02 -0.19712E-03
 0.54549999E+02 -0.46966E-04
 0.54600002E+02  0.11672E-03
 0.54650002E+02  0.28981E-03
 0.54700001E+02  0.42958E-03
 0.54750000E+02  0.46091E-03
 0.54799999E+02  0.34855E-03
 0.54850002E+02  0.10907E-03
 0.54900002E+02 -0.14182E-03
 0.54950001E+02 -0.28241E-03
 0.55000000E+02 -0.33185E-03
 0.55049999E+02 -0.34277E-03
 0.55100002E+02 -0.30157E-03
 0.55150002E+02 -0.15047E-03
 0.55200001E+02  0.12157E-03
 0.55250000E+02  0.37186E-03
 0.55299999E+02  0.44591E-03
 0.55350002E+02  0.35062E-03
 0.55400002E+02  0.15485E-03
 0.55450001E+02 -0.82362E-04
 0.55500000E+02 -0.28686E-03
 0.55549999E+02 -0.41572E-03
 0.55600002E+02 -0.46089E-03
 0.55650002E+02 -0.42935E-03
 0.55700001E+02 -0.31043E-03
 0.55750000E+02 -0.67395E-04
 0.55799999E+02  0.25385E-03
 0.55850002E+02  0.51686E-03
 0.55900002E+02  0.61013E-03
 0.55950001E+02  0.52006E-03
 0.56000000E+02  0.32188E-03
 0.56049999E+02  0.90115E-04
 0.56100002E+02 -0.14942E-03
 0.56150002E+02 -0.36402E-03
 0.56200001E+02 -0.47755E-03
 0.56250000E+02 -0.42684E-03
 0.56299999E+02 -0.25302E-03
 0.56350002E+02 -0.54695E-04
 0.56400002E+02  0.10318E-03
 0.56450001E+02  0.18113E-03
 0.56500000E+02  0.17415E-03
 0.56549999E+02  0.99548E-04
 0.56600002E+02  0.45116E-05
 0.56650002E+02 -0.64716E-04
 0.56700001E+02 -0.11011E-03
 0.56750000E+02 -0.92019E-04
 0.56799999E+02  0.40963E-04
 0.56850002E+02  0.27564E-03
 0.56900002E+02  0.48415E-03
 0.56950001E+02  0.46880E-03
 0.57000000E+02  0.21741E-03
 0.57049999E+02 -0.12168E-03
 0.57100002E+02 -0.41582E-03
 0.57150002E+02 -0.57194E-03
 0.57200001E+02 -0.56916E-03
 0.57250000E+02 -0.42948E-03
 0.57299999E+02 -0.17893E-03
 0.57350002E+02  0.13766E-03
 0.57400002E+02  0.43025E-03
 0.57450001E+02  0.58968E-03
 0.57500000E+02  0.57110E-03
 0.57549999E+02  0.40904E-03
 0.57600002E+02  0.16868E-03
 0.57650002E+02 -0.93842E-04
 0.57700001E+02 -0.32233E-03
 0.57750000E+02 -0.47849E-03
 0.57799999E+02 -0.56212E-03
 0.57850002E+02 -0.52142E-03
 0.57900002E+02 -0.30400E-03
 0.57950001E+02  0.11554E-04
 0.58000000E+02  0.29279E-03
 0.58049999E+02  0.45262E-03
 0.58100002E+02  0.47300E-03
 0.58150002E+02  0.37516E-03
 0.58200001E+02  0.19523E-03
 0.58250000E+02 -0.24807E-05
 0.58299999E+02 -0.15076E-03
 0.58350002E+02 -0.22535E-03
 0.58400002E+02 -0.26254E-03
 0.58450001E+02 -0.28557E-03
 0.58500000E+02 -0.27151E-03
 0.58549999E+02 -0.18989E-03
 0.58600002E+02 -0.24044E-04
 0.58650002E+02  0.18259E-03
 0.58700001E+02  0.34015E-03
 0.58750000E+02  0.38619E-03
 0.58799999E+02  0.32596E-03
 0.58850002E+02  0.21184E-03
 0.58900002E+02  0.63051E-04
 0.58950001E+02 -0.12863E-03
 0.59000000E+02 -0.31590E-03
 0.59049999E+02 -0.40021E-03
 0.59100002E+02 -0.32655E-03
 0.59150002E+02 -0.15401E-03
 0.59200001E+02  0.70925E-05
 0.59250000E+02  0.89428E-04
 0.59299999E+02  0.99015E-04
 0.59350002E+02  0.90123E-04
 0.59400002E+02  0.97640E-04
 0.59450001E+02  0.11026E-03
 0.59500000E+02  0.10978E-03
 0.59549999E+02  0.10956E-03
 0.59600002E+02  0.13323E-03
 0.59650002E+02  0.16118E-03
 0.59700001E+02  0.13844E-03
 0.59750000E+02  0.57991E-04
 0.59799999E+02 -0.37108E-04
 0.59850002E+02 -0.13316E-03
 0.59900002E+02 -0.23007E-03
 0.59950001E+02 -0.29815E-03
 0.60000000E+02 -0.30337E-03
 0.60049999E+02 -0.22988E-03
 0.60100002E+02 -0.94879E-04
 0.60150002E+02  0.50502E-04
 0.60200001E+02  0.14886E-03
 0.60250000E+02  0.16968E-03
 0.60299999E+02  0.13685E-03
 0.60350002E+02  0.98812E-04
 0.60400002E+02  0.78651E-04
 0.60450001E+02  0.69769E-04
 0.60500000E+02  0.52846E-04
 0.60549999E+02  0.35761E-04
 0.60600002E+02  0.49654E-04
 0.60650002E+02  0.79734E-04
 0.60700001E+02  0.62412E-04
 0.60750000E+02 -0.30412E-04
 0.60799999E+02 -0.14268E-03
 0.60850002E+02 -0.19324E-03
 0.60900002E+02 -0.13905E-03
 0.60950001E+02 -0.87994E-05
 0.61000000E+02  0.89256E-04
 0.61049999E+02  0.79130E-04
 0.61100002E+02 -0.78628E-05
 0.61150002E+02 -0.89482E-04
 0.61200001E+02 -0.95032E-04
 0.61250000E+02 -0.17629E-04
 0.61299999E+02  0.76510E-04
 0.61350002E+02  0.11355E-03
 0.61400002E+02  0.87898E-04
 0.61450001E+02  0.38793E-04
 0.61500000E+02 -0.12235E-04
 0.61549999E+02 -0.60498E-04
 0.61600002E+02 -0.92555E-04
 0.61650002E+02 -0.91843E-04
 0.61700001E+02 -0.80515E-04
 0.61750000E+02 -0.63570E-04
 0.61799999E+02 -0.81654E-05
 0.61850002E+02  0.79766E-04
 0.61900002E+02  0.15379E-03
 0.61950001E+02  0.15861E-03
 0.62000000E+02  0.10003E-03
 0.62049999E+02  0.22947E-04
 0.62100002E+02 -0.50710E-04
 0.62150002E+02 -0.89709E-04
 0.62200001E+02 -0.73624E-04
 0.62250000E+02 -0.13882E-04
 0.62299999E+02  0.50128E-04
 0.62350002E+02  0.75290E-04
 0.62400002E+02  0.48507E-04
 0.62450001E+02 -0.19919E-04
 0.62500000E+02 -0.91327E-04
 0.62549999E+02 -0.11887E-03
 0.62600002E+02 -0.97968E-04
 0.62650002E+02 -0.58786E-04
 0.62700001E+02 -0.93782E-05
 0.62750000E+02  0.55653E-04
 0.62799999E+02  0.11325E-03
 0.62850002E+02  0.13059E-03
 0.62900002E+02  0.10226E-03
 0.62950001E+02  0.53270E-04
 0.63000000E+02  0.23979E-05
 0.63049999E+02 -0.43450E-04
 0.63100002E+02 -0.75741E-04
 0.63150002E+02 -0.86632E-04
 0.63200001E+02 -0.73973E-04
 0.63250000E+02 -0.52133E-04
 0.63299999E+02 -0.41300E-04
 0.63350002E+02 -0.49486E-04
 0.63400002E+02 -0.60510E-04
 0.63450001E+02 -0.49902E-04
 0.63500000E+02 -0.12773E-04
 0.63549999E+02  0.31860E-04
 0.63600002E+02  0.66716E-04
 0.63650002E+02  0.95973E-04
 0.63700001E+02  0.12021E-03
 0.63750000E+02  0.12579E-03
 0.63799999E+02  0.10086E-03
 0.63850002E+02  0.47829E-04
 0.63900002E+02 -0.21292E-04
 0.63950001E+02 -0.81702E-04
 0.64000000E+02 -0.95694E-04
 0.64050003E+02 -0.53922E-04
 0.64099998E+02  0.99621E-05
 0.64150002E+02  0.47068E-04
 0.64200005E+02  0.43467E-04
 0.64250000E+02  0.31641E-04
 0.64300003E+02  0.22899E-04
 0.64349998E+02 -0.22992E-05
 0.64400002E+02 -0.57585E-04
 0.64450005E+02 -0.12914E-03
 0.64500000E+02 -0.16664E-03
 0.64550003E+02 -0.13561E-03
 0.64599998E+02 -0.48465E-04
 0.64650002E+02  0.52030E-04
 0.64700005E+02  0.12635E-03
 0.64750000E+02  0.15749E-03
 0.64800003E+02  0.13795E-03
 0.64849998E+02  0.74244E-04
 0.64900002E+02 -0.11360E-04
 0.64950005E+02 -0.84829E-04
 0.65000000E+02 -0.12198E-03
 0.65050003E+02 -0.11645E-03
 0.65099998E+02 -0.65533E-04
 0.65150002E+02  0.12575E-04
 0.65200005E+02  0.81994E-04
 0.65250000E+02  0.12354E-03
 0.65300003E+02  0.13342E-03
 0.65349998E+02  0.10418E-03
 0.65400002E+02  0.40796E-04
 0.65450005E+02 -0.38444E-04
 0.65500000E+02 -0.10942E-03
 0.65550003E+02 -0.14335E-03
 0.65599998E+02 -0.13471E-03
 0.65650002E+02 -0.95987E-04
 0.65700005E+02 -0.40888E-04
 0.65750000E+02  0.10189E-04
 0.65800003E+02  0.46555E-04
 0.65849998E+02  0.75690E-04
 0.65900002E+02  0.97502E-04
 0.65950005E+02  0.10513E-03
 0.66000000E+02  0.98189E-04
 0.66050003E+02  0.74815E-04
 0.66099998E+02  0.42683E-04
 0.66150002E+02 -0.45239E-05
 0.66200005E+02 -0.77131E-04
 0.66250000E+02 -0.14109E-03
 0.66300003E+02 -0.15515E-03
 0.66349998E+02 -0.10856E-03
 0.66400002E+02 -0.28264E-04
 0.66450005E+02  0.45831E-04
 0.66500000E+02  0.88710E-04
 0.66550003E+02  0.96795E-04
 0.66599998E+02  0.87349E-04
 0.66650002E+02  0.70588E-04
 0.66700005E+02  0.41931E-04
 0.66750000E+02 -0.58442E-05
 0.66800003E+02 -0.62856E-04
 0.66849998E+02 -0.10181E-03
 0.66900002E+02 -0.10951E-03
 0.66950005E+02 -0.90934E-04
 0.67000000E+02 -0.49965E-04
 0.67050003E+02  0.40838E-05
 0.67099998E+02  0.57050E-04
 0.67150002E+02  0.98781E-04
 0.67200005E+02  0.12073E-03
 0.67250000E+02  0.12086E-03
 0.67300003E+02  0.89946E-04
 0.67349998E+02  0.25390E-04
 0.67400002E+02 -0.43173E-04
 0.67450005E+02 -0.84430E-04
 0.67500000E+02 -0.10041E-03
 0.67550003E+02 -0.11191E-03
 0.67599998E+02 -0.11938E-03
 0.67650002E+02 -0.10761E-03
 0.67700005E+02 -0.68806E-04
 0.67750000E+02 -0.10122E-04
 0.67800003E+02  0.54566E-04
 0.67849998E+02  0.11612E-03
 0.67900002E+02  0.15655E-03
 0.67950005E+02  0.16043E-03
 0.68000000E+02  0.12981E-03
 0.68050003E+02  0.75103E-04
 0.68099998E+02  0.13282E-04
 0.68150002E+02 -0.45095E-04
 0.68200005E+02 -0.96734E-04
 0.68250000E+02 -0.13467E-03
 0.68300003E+02 -0.14717E-03
 0.68349998E+02 -0.12562E-03
 0.68400002E+02 -0.80069E-04
 0.68450005E+02 -0.25972E-04
 0.68500000E+02  0.33442E-04
 0.68550003E+02  0.93743E-04
 0.68599998E+02  0.13651E-03
 0.68650002E+02  0.13927E-03
 0.68700005E+02  0.10068E-03
 0.68750000E+02  0.44154E-04
 0.68800003E+02 -0.97491E-05
 0.68849998E+02 -0.52374E-04
 0.68900002E+02 -0.79532E-04
 0.68950005E+02 -0.87162E-04
 0.69000000E+02 -0.72033E-04
 0.69050003E+02 -0.48104E-04
 0.69099998E+02 -0.32615E-04
 0.69150002E+02 -0.24221E-04
 0.69200005E+02 -0.18611E-04
 0.69250000E+02 -0.14549E-04
 0.69300003E+02 -0.92926E-05
 0.69349998E+02  0.48752E-05
 0.69400002E+02  0.39719E-04
 0.69450005E+02  0.92030E-04
 0.69500000E+02  0.13774E-03
 0.69550003E+02  0.15206E-03
 0.69599998E+02  0.12629E-03
 0.69650002E+02  0.66149E-04
 0.69700005E+02 -0.12071E-04
 0.69750000E+02 -0.84124E-04
 0.69800003E+02 -0.13231E-03
 0.69849998E+02 -0.15406E-03
 0.69900002E+02 -0.15531E-03
 0.69950005E+02 -0.13645E-03
 0.70000000E+02 -0.91925E-04
 0.70050003E+02 -0.25427E-04
 0.70099998E+02  0.53115E-04
 0.70150002E+02  0.12292E-03
 0.70200005E+02  0.15623E-03
 0.70250000E+02  0.14092E-03
 0.70300003E+02  0.86063E-04
 0.70349998E+02  0.22940E-04
 0.70400002E+02 -0.21881E-04
 0.70450005E+02 -0.44420E-04
 0.70500000E+02 -0.48707E-04
 0.70550003E+02 -0.41756E-04
 0.70599998E+02 -0.30103E-04
 0.70650002E+02 -0.17855E-04
 0.70700005E+02 -0.56275E-05
 0.70750000E+02  0.84434E-05
 0.70800003E+02  0.23349E-04
 0.70849998E+02  0.31569E-04
 0.70900002E+02  0.23741E-04
 0.70950005E+02 -0.16385E-05
 0.71000000E+02 -0.31229E-04
 0.71050003E+02 -0.48436E-04
 0.71099998E+02 -0.49655E-04
 0.71150002E+02 -0.37321E-04
 0.71200005E+02 -0.20496E-04
 0.71250000E+02 -0.12646E-04
 0.71300003E+02 -0.16673E-04
 0.71349998E+02 -0.24459E-04
 0.71400002E+02 -0.23625E-04
 0.71450005E+02 -0.80443E-05
 0.71500000E+02  0.18640E-04
 0.71550003E+02  0.52814E-04
 0.71599998E+02  0.90686E-04
 0.71650002E+02  0.12208E-03
 0.71700005E+02  0.13096E-03
 0.71750000E+02  0.10162E-03
 0.71800003E+02  0.30956E-04
 0.71849998E+02 -0.62284E-04
 0.71900002E+02 -0.13605E-03
 0.71950005E+02 -0.15086E-03
 0.72000000E+02 -0.10902E-03
 0.72050003E+02 -0.42556E-04
 0.72099998E+02  0.25517E-04
 0.72150002E+02  0.77528E-04
 0.72200005E+02  0.98697E-04
 0.72250000E+02  0.83940E-04
 0.72300003E+02  0.40882E-04
 0.72349998E+02 -0.65779E-05
 0.72400002E+02 -0.47047E-04
 0.72450005E+02 -0.81949E-04
 0.72500000E+02 -0.10720E-03
 0.72550003E+02 -0.11472E-03
 0.72599998E+02 -0.93598E-04
 0.72650002E+02 -0.44427E-04
 0.72700005E+02  0.16777E-04
 0.72750000E+02  0.69728E-04
 0.72800003E+02  0.10113E-03
 0.72849998E+02  0.10446E-03
 0.72900002E+02  0.78334E-04
 0.72950005E+02  0.35692E-04
 0.73000000E+02 -0.54044E-05
 0.73050003E+02 -0.34060E-04
 0.73099998E+02 -0.42317E-04
 0.73150002E+02 -0.27845E-04
 0.73200005E+02  0.24272E-06
 0.73250000E+02  0.27200E-04
 0.73300003E+02  0.42600E-04
 0.73349998E+02  0.43317E-04
 0.73400002E+02  0.33033E-04
 0.73450005E+02  0.17434E-04
 0.73500000E+02  0.15783E-05
 0.73550003E+02 -0.95777E-05
 0.73599998E+02 -0.19379E-04
 0.73650002E+02 -0.31724E-04
 0.73700005E+02 -0.44901E-04
 0.73750000E+02 -0.56121E-04
 0.73800003E+02 -0.57582E-04
 0.73849998E+02 -0.45465E-04
 0.73900002E+02 -0.21951E-04
 0.73950005E+02  0.47078E-05
 0.74000000E+02  0.22298E-04
 0.74050003E+02  0.32569E-04
 0.74099998E+02  0.41512E-04
 0.74150002E+02  0.46604E-04
 0.74200005E+02  0.43371E-04
 0.74250000E+02  0.33148E-04
 0.74300003E+02  0.20502E-04
 0.74349998E+02  0.44462E-05
 0.74400002E+02 -0.14967E-04
 0.74450005E+02 -0.33414E-04
 0.74500000E+02 -0.44885E-04
 0.74550003E+02 -0.48960E-04
 0.74599998E+02 -0.50648E-04
 0.74650002E+02 -0.49051E-04
 0.74700005E+02 -0.37769E-04
 0.74750000E+02 -0.11760E-04
 0.74800003E+02  0.24947E-04
 0.74849998E+02  0.59397E-04
 0.74900002E+02  0.77763E-04
 0.74950005E+02  0.75237E-04
 0.75000000E+02  0.55966E-04
 0.75050003E+02  0.25297E-04
 0.75099998E+02 -0.73754E-05
 0.75150002E+02 -0.28923E-04
 0.75200005E+02 -0.33406E-04
 0.75250000E+02 -0.26771E-04
 0.75300003E+02 -0.19030E-04
 0.75349998E+02 -0.11487E-04
 0.75400002E+02 -0.16459E-05
 0.75450005E+02  0.69658E-05
 0.75500000E+02  0.10916E-04
 0.75550003E+02  0.12951E-04
 0.75599998E+02  0.16790E-04
 0.75650002E+02  0.14946E-04
 0.75700005E+02  0.19683E-05
 0.75750000E+02 -0.16349E-04
 0.75800003E+02 -0.35454E-04
 0.75849998E+02 -0.49037E-04
 0.75900002E+02 -0.47422E-04
 0.75950005E+02 -0.26603E-04
 0.76000000E+02  0.52697E-05
 0.76050003E+02  0.36089E-04
 0.76099998E+02  0.55170E-04
 0.76150002E+02  0.55456E-04
 0.76200005E+02  0.36314E-04
 0.76250000E+02  0.11163E-05
 0.76300003E+02 -0.36736E-04
 0.76349998E+02 -0.61892E-04
 0.76400002E+02 -0.65577E-04
 0.76450005E+02 -0.49846E-04
 0.76500000E+02 -0.23108E-04
 0.76550003E+02  0.82675E-05
 0.76599998E+02  0.31019E-04
 0.76650002E+02  0.38972E-04
 0.76700005E+02  0.36281E-04
 0.76750000E+02  0.26168E-04
 0.76800003E+02  0.13194E-04
 0.76849998E+02  0.38230E-05
 0.76900002E+02  0.44218E-05
 0.76950005E+02  0.11767E-04
 0.77000000E+02  0.19353E-04
 0.77050003E+02  0.20566E-04
 0.77099998E+02  0.11456E-04
 0.77150002E+02 -0.24265E-06
 0.77200005E+02 -0.84999E-05
 0.77250000E+02 -0.13683E-04
 0.77300003E+02 -0.14260E-04
 0.77349998E+02 -0.82509E-05
 0.77400002E+02  0.61911E-06
 0.77450005E+02  0.56332E-05
 0.77500000E+02  0.42657E-05
 0.77550003E+02 -0.10745E-05
 0.77599998E+02 -0.73753E-05
 0.77650002E+02 -0.12307E-04
 0.77700005E+02 -0.12853E-04
 0.77750000E+02 -0.90099E-05
 0.77800003E+02 -0.49787E-05
 0.77849998E+02 -0.51056E-05
 0.77900002E+02 -0.94792E-05
 0.77950005E+02 -0.17013E-04
 0.78000000E+02 -0.24488E-04
 0.78050003E+02 -0.24917E-04
 0.78099998E+02 -0.18058E-04
 0.78150002E+02 -0.10070E-04
 0.78200005E+02 -0.26504E-05
 0.78250000E+02  0.76205E-05
 0.78300003E+02  0.24727E-04
 0.78349998E+02  0.48498E-04
 0.78400002E+02  0.69944E-04
 0.78450005E+02  0.77586E-04
 0.78500000E+02  0.64610E-04
 0.78550003E+02  0.33353E-04
 0.78599998E+02 -0.70970E-05
 0.78650002E+02 -0.47419E-04
 0.78700005E+02 -0.75935E-04
 0.78750000E+02 -0.82322E-04
 0.78800003E+02 -0.65777E-04
 0.78849998E+02 -0.33891E-04
 0.78900002E+02  0.36866E-05
 0.78950005E+02  0.35471E-04
 0.79000000E+02  0.53617E-04
 0.79050003E+02  0.55736E-04
 0.79099998E+02  0.42612E-04
 0.79150002E+02  0.22147E-04
 0.79200005E+02  0.19887E-05
 0.79250000E+02 -0.14621E-04
 0.79300003E+02 -0.26606E-04
 0.79349998E+02 -0.34170E-04
 0.79400002E+02 -0.39615E-04
 0.79450005E+02 -0.44835E-04
 0.79500000E+02 -0.48836E-04
 0.79550003E+02 -0.49795E-04
 0.79599998E+02 -0.42010E-04
 0.79650002E+02 -0.22577E-04
 0.79700005E+02  0.59932E-05
 0.79750000E+02  0.40636E-04
 0.79800003E+02  0.72050E-04
 0.79849998E+02  0.84826E-04
 0.79900002E+02  0.74223E-04
 0.79950005E+02  0.52006E-04
 0.80000000E+02  0.28194E-04
 0.80050003E+02  0.65420E-05
 0.80099998E+02 -0.11792E-04
 0.80150002E+02 -0.24524E-04
 0.80200005E+02 -0.26788E-04
 0.80250000E+02 -0.24343E-04
 0.80300003E+02 -0.26947E-04
 0.80349998E+02 -0.32906E-04
 0.80400002E+02 -0.35238E-04
 0.80450005E+02 -0.30773E-04
 0.80500000E+02 -0.20467E-04
 0.80550003E+02 -0.73723E-05
 0.80599998E+02  0.36246E-05
 0.80650002E+02  0.78735E-05
 0.80700005E+02  0.81636E-05
 0.80750000E+02  0.11202E-04
 0.80800003E+02  0.17817E-04
 0.80849998E+02  0.25185E-04
 0.80900002E+02  0.30214E-04
 0.80950005E+02  0.32768E-04
 0.81000000E+02  0.32902E-04
 0.81050003E+02  0.28257E-04
 0.81099998E+02  0.20368E-04
 0.81150002E+02  0.10394E-04
 0.81200005E+02 -0.23313E-05
 0.81250000E+02 -0.18260E-04
 0.81300003E+02 -0.38616E-04
 0.81349998E+02 -0.58599E-04
 0.81400002E+02 -0.67214E-04
 0.81450005E+02 -0.55617E-04
 0.81500000E+02 -0.26849E-04
 0.81550003E+02  0.46740E-05
 0.81599998E+02  0.26373E-04
 0.81650002E+02  0.35831E-04
 0.81700005E+02  0.33945E-04
 0.81750000E+02  0.20193E-04
 0.81800003E+02 -0.10046E-05
 0.81849998E+02 -0.20583E-04
 0.81900002E+02 -0.25896E-04
 0.81950005E+02 -0.10309E-04
 0.82000000E+02  0.17934E-04
 0.82050003E+02  0.44315E-04
 0.82099998E+02  0.56986E-04
 0.82150002E+02  0.52252E-04
 0.82200005E+02  0.30762E-04
 0.82250000E+02 -0.43336E-05
 0.82300003E+02 -0.41039E-04
 0.82349998E+02 -0.63278E-04
 0.82400002E+02 -0.61167E-04
 0.82450005E+02 -0.37092E-04
 0.82500000E+02 -0.41902E-05
 0.82550003E+02  0.22965E-04
 0.82599998E+02  0.33865E-04
 0.82650002E+02  0.26440E-04
 0.82700005E+02  0.74329E-05
 0.82750000E+02 -0.12825E-04
 0.82800003E+02 -0.23475E-04
 0.82849998E+02 -0.18701E-04
 0.82900002E+02 -0.19927E-05
 0.82950005E+02  0.16727E-04
 0.83000000E+02  0.28013E-04
 0.83050003E+02  0.27994E-04
 0.83099998E+02  0.18893E-04
 0.83150002E+02  0.58821E-05
 0.83200005E+02 -0.61338E-05
 0.83250000E+02 -0.12511E-04
 0.83300003E+02 -0.11530E-04
 0.83349998E+02 -0.80250E-05
 0.83400002E+02 -0.63961E-05
 0.83450005E+02 -0.81537E-05
 0.83500000E+02 -0.12468E-04
 0.83550003E+02 -0.14198E-04
 0.83599998E+02 -0.11765E-04
 0.83650002E+02 -0.64618E-05
 0.83700005E+02  0.10081E-06
 0.83750000E+02  0.73274E-05
 0.83800003E+02  0.15747E-04
 0.83849998E+02  0.20463E-04
 0.83900002E+02  0.17224E-04
 0.83950005E+02  0.67644E-05
 0.84000000E+02 -0.76604E-05
 0.84050003E+02 -0.21655E-04
 0.84099998E+02 -0.28543E-04
 0.84150002E+02 -0.22096E-04
 0.84200005E+02 -0.50701E-05
 0.84250000E+02  0.13702E-04
 0.84300003E+02  0.25950E-04
 0.84349998E+02  0.24766E-04
 0.84400002E+02  0.82735E-05
 0.84450005E+02 -0.10921E-04
 0.84500000E+02 -0.17514E-04
 0.84550003E+02 -0.11080E-04
 0.84599998E+02 -0.52817E-07
 0.84650002E+02  0.85806E-05
 0.84700005E+02  0.15083E-04
 0.84750000E+02  0.20475E-04
 0.84800003E+02  0.22663E-04
 0.84849998E+02  0.20761E-04
 0.84900002E+02  0.14489E-04
 0.84950005E+02  0.27447E-05
 0.85000000E+02 -0.13585E-04
 0.85050003E+02 -0.29544E-04
 0.85099998E+02 -0.39899E-04
 0.85150002E+02 -0.41104E-04
 0.85200005E+02 -0.33505E-04
 0.85250000E+02 -0.21075E-04
 0.85300003E+02 -0.81532E-05
 0.85349998E+02  0.54696E-05
 0.85400002E+02  0.22874E-04
 0.85450005E+02  0.40490E-04
 0.85500000E+02  0.50178E-04
 0.85550003E+02  0.49042E-04
 0.85599998E+02  0.41522E-04
 0.85650002E+02  0.29821E-04
 0.85700005E+02  0.11892E-04
 0.85750000E+02 -0.88368E-05
 0.85800003E+02 -0.25513E-04
 0.85849998E+02 -0.33896E-04
 0.85900002E+02 -0.33256E-04
 0.85950005E+02 -0.28321E-04
 0.86000000E+02 -0.26373E-04
 0.86050003E+02 -0.27972E-04
 0.86099998E+02 -0.26418E-04
 0.86150002E+02 -0.19026E-04
 0.86200005E+02 -0.65471E-05
 0.86250000E+02  0.11160E-04
 0.86300003E+02  0.29897E-04
 0.86349998E+02  0.41776E-04
 0.86400002E+02  0.41902E-04
 0.86450005E+02  0.31413E-04
 0.86500000E+02  0.12582E-04
 0.86550003E+02 -0.11797E-04
 0.86599998E+02 -0.33735E-04
 0.86650002E+02 -0.45899E-04
 0.86700005E+02 -0.45980E-04
 0.86750000E+02 -0.34476E-04
 0.86800003E+02 -0.14032E-04
 0.86849998E+02  0.11597E-04
 0.86900002E+02  0.35361E-04
 0.86950005E+02  0.48966E-04
 0.87000000E+02  0.47865E-04
 0.87050003E+02  0.31414E-04
 0.87099998E+02  0.60655E-05
 0.87150002E+02 -0.18154E-04
 0.87200005E+02 -0.33095E-04
 0.87250000E+02 -0.33461E-04
 0.87300003E+02 -0.21171E-04
 0.87349998E+02 -0.25968E-05
 0.87400002E+02  0.13508E-04
 0.87450005E+02  0.19136E-04
 0.87500000E+02  0.15062E-04
 0.87550003E+02  0.71879E-05
 0.87599998E+02 -0.18533E-05
 0.87650002E+02 -0.11480E-04
 0.87700005E+02 -0.17410E-04
 0.87750000E+02 -0.16105E-04
 0.87800003E+02 -0.92076E-05
 0.87849998E+02  0.16426E-06
 0.87900002E+02  0.89571E-05
 0.87950005E+02  0.15714E-04
 0.88000000E+02  0.19470E-04
 0.88050003E+02  0.17399E-04
 0.88099998E+02  0.95273E-05
 0.88150002E+02  0.12819E-05
 0.88200005E+02 -0.32450E-05
 0.88250000E+02 -0.50513E-05
 0.88300003E+02 -0.54539E-05
 0.88349998E+02 -0.29916E-05
 0.88400002E+02  0.27855E-05
 0.88450005E+02  0.67251E-05
 0.88500000E+02  0.47998E-05
 0.88550003E+02 -0.95853E-07
 0.88599998E+02 -0.41814E-05
 0.88650002E+02 -0.61807E-05
 0.88700005E+02 -0.68314E-05
 0.88750000E+02 -0.60788E-05
 0.88800003E+02 -0.33040E-05
 0.88849998E+02 -0.95222E-06
 0.88900002E+02 -0.18649E-05
 0.88950005E+02 -0.66157E-05
 0.89000000E+02 -0.12856E-04
 0.89050003E+02 -0.17004E-04
 0.89099998E+02 -0.18614E-04
 0.89150002E+02 -0.19131E-04
 0.89200005E+02 -0.18740E-04
 0.89250000E+02 -0.16085E-04
 0.89300003E+02 -0.86405E-05
 0.89349998E+02  0.46755E-05
 0.89400002E+02  0.22977E-04
 0.89450005E+02  0.44595E-04
 0.89500000E+02  0.62861E-04
 0.89550003E+02  0.69466E-04
 0.89599998E+02  0.61547E-04
 0.89650002E+02  0.39901E-04
 0.89700005E+02  0.80555E-05
 0.89750000E+02 -0.27692E-04
 0.89800003E+02 -0.58485E-04
 0.89849998E+02 -0.76186E-04
 0.89900002E+02 -0.76939E-04
 0.89950005E+02 -0.61411E-04
 0.90000000E+02 -0.34116E-04
 0.90050003E+02 -0.20493E-05
 0.90099998E+02  0.24982E-04
 0.90150002E+02  0.38892E-04
 0.90200005E+02  0.38793E-04
 0.90250000E+02  0.28590E-04
 0.90300003E+02  0.13352E-04
 0.90349998E+02 -0.14199E-06
 0.90400002E+02 -0.48122E-05
 0.90450005E+02  0.12478E-05
 0.90500000E+02  0.12202E-04
 0.90550003E+02  0.20213E-04
 0.90599998E+02  0.20210E-04
 0.90650002E+02  0.10924E-04
 0.90700005E+02 -0.34493E-05
 0.90750000E+02 -0.16632E-04
 0.90800003E+02 -0.23781E-04
 0.90849998E+02 -0.22699E-04
 0.90900002E+02 -0.14414E-04
 0.90950005E+02 -0.36398E-05
 0.91000000E+02  0.42690E-05
 0.91050003E+02  0.77980E-05
 0.91099998E+02  0.67134E-05
 0.91150002E+02  0.24577E-05
 0.91200005E+02 -0.10559E-05
 0.91250000E+02 -0.26568E-05
 0.91300003E+02 -0.41079E-05
 0.91349998E+02 -0.65759E-05
 0.91400002E+02 -0.83905E-05
 0.91450005E+02 -0.76964E-05
 0.91500000E+02 -0.51385E-05
 0.91550003E+02 -0.45914E-06
 0.91599998E+02  0.68992E-05
 0.91650002E+02  0.15599E-04
 0.91700005E+02  0.23140E-04
 0.91750000E+02  0.25894E-04
 0.91800003E+02  0.21099E-04
 0.91849998E+02  0.98551E-05
 0.91900002E+02 -0.48056E-05
 0.91950005E+02 -0.20862E-04
 0.92000000E+02 -0.35280E-04
 0.92050003E+02 -0.41864E-04
 0.92099998E+02 -0.35191E-04
 0.92150002E+02 -0.16995E-04
 0.92200005E+02  0.44648E-05
 0.92250000E+02  0.21348E-04
 0.92300003E+02  0.30011E-04
 0.92349998E+02  0.29797E-04
 0.92400002E+02  0.22421E-04
 0.92450005E+02  0.11823E-04
 0.92500000E+02  0.28624E-05
 0.92550003E+02 -0.28843E-05
 0.92599998E+02 -0.60098E-05
 0.92650002E+02 -0.71458E-05
 0.92700005E+02 -0.91500E-05
 0.92750000E+02 -0.13595E-04
 0.92800003E+02 -0.18943E-04
 0.92849998E+02 -0.21135E-04
 0.92900002E+02 -0.17526E-04
 0.92950005E+02 -0.71646E-05
 0.93000000E+02  0.98467E-05
 0.93050003E+02  0.26994E-04
 0.93099998E+02  0.35909E-04
 0.93150002E+02  0.32701E-04
 0.93200005E+02  0.19519E-04
 0.93250000E+02  0.15174E-05
 0.93300003E+02 -0.16474E-04
 0.93349998E+02 -0.27052E-04
 0.93400002E+02 -0.23787E-04
 0.93450005E+02 -0.85602E-05
 0.93500000E+02  0.91283E-05
 0.93550003E+02  0.18530E-04
 0.93599998E+02  0.15826E-04
 0.93650002E+02  0.59490E-05
 0.93700005E+02 -0.47257E-05
 0.93750000E+02 -0.11985E-04
 0.93800003E+02 -0.14094E-04
 0.93849998E+02 -0.11823E-04
 0.93900002E+02 -0.58201E-05
 0.93950005E+02  0.15000E-05
 0.94000000E+02  0.63084E-05
 0.94050003E+02  0.80531E-05
 0.94099998E+02  0.82285E-05
 0.94150002E+02  0.73146E-05
 0.94200005E+02  0.54166E-05
 0.94250000E+02  0.33301E-05
 0.94300003E+02 -0.29738E-07
 0.94349998E+02 -0.58037E-05
 0.94400002E+02 -0.11753E-04
 0.94450005E+02 -0.15098E-04
 0.94500000E+02 -0.15200E-04
 0.94550003E+02 -0.12446E-04
 0.94599998E+02 -0.64392E-05
 0.94650002E+02  0.24304E-05
 0.94700005E+02  0.11115E-04
 0.94750000E+02  0.16596E-04
 0.94800003E+02  0.17760E-04
 0.94849998E+02  0.12634E-04
 0.94900002E+02  0.17777E-05
 0.94950005E+02 -0.99522E-05
 0.95000000E+02 -0.18808E-04
 0.95050003E+02 -0.21622E-04
 0.95099998E+02 -0.16041E-04
 0.95150002E+02 -0.42745E-05
 0.95200005E+02  0.71565E-05
 0.95250000E+02  0.15892E-04
 0.95300003E+02  0.23506E-04
 0.95349998E+02  0.26574E-04
 0.95400002E+02  0.22794E-04
 0.95450005E+02  0.14284E-04
 0.95500000E+02  0.46075E-05
 0.95550003E+02 -0.25099E-05
 0.95599998E+02 -0.60048E-05
 0.95650002E+02 -0.73209E-05
 0.95700005E+02 -0.10211E-04
 0.95750000E+02 -0.15237E-04
 0.95800003E+02 -0.20239E-04
 0.95849998E+02 -0.23911E-04
 0.95900002E+02 -0.23359E-04
 0.95950005E+02 -0.16456E-04
 0.96000000E+02 -0.56747E-05
 0.96050003E+02  0.20165E-05
 0.96099998E+02  0.42707E-05
 0.96150002E+02  0.52893E-05
 0.96200005E+02  0.71535E-05
 0.96250000E+02  0.81257E-05
 0.96300003E+02  0.85853E-05
 0.96349998E+02  0.11649E-04
 0.96400002E+02  0.15319E-04
 0.96450005E+02  0.15356E-04
 0.96500000E+02  0.11938E-04
 0.96550003E+02  0.80272E-05
 0.96599998E+02  0.46297E-05
 0.96650002E+02  0.94210E-06
 0.96700005E+02 -0.18360E-05
 0.96750000E+02 -0.30438E-05
 0.96800003E+02 -0.34313E-05
 0.96849998E+02 -0.41858E-05
 0.96900002E+02 -0.53823E-05
 0.96950005E+02 -0.56397E-05
 0.97000000E+02 -0.40431E-05
 0.97050003E+02 -0.14431E-05
 0.97099998E+02 -0.17676E-05
 0.97150002E+02 -0.48684E-05
 0.97200005E+02 -0.67435E-05
 0.97250000E+02 -0.67539E-05
 0.97300003E+02 -0.50635E-05
 0.97349998E+02 -0.19415E-06
 0.97400002E+02  0.80973E-05
 0.97450005E+02  0.14886E-04
 0.97500000E+02  0.14577E-04
 0.97550003E+02  0.78936E-05
 0.97599998E+02 -0.63094E-06
 0.97650002E+02 -0.80562E-05
 0.97700005E+02 -0.12356E-04
 0.97750000E+02 -0.12578E-04
 0.97800003E+02 -0.10828E-04
 0.97849998E+02 -0.91932E-05
 0.97900002E+02 -0.79652E-05
 0.97950005E+02 -0.68954E-05
 0.98000000E+02 -0.62397E-05
 0.98050003E+02 -0.44128E-05
 0.98099998E+02  0.10863E-06
 0.98150002E+02  0.55265E-05
 0.98200005E+02  0.10230E-04
 0.98250000E+02  0.13136E-04
 0.98300003E+02  0.14026E-04
 0.98349998E+02  0.12238E-04
 0.98400002E+02  0.75994E-05
 0.98450005E+02  0.41181E-05
 0.98500000E+02  0.39986E-05
 0.98550003E+02  0.62192E-05
 0.98599998E+02  0.10487E-04
 0.98650002E+02  0.14801E-04
 0.98700005E+02  0.15677E-04
 0.98750000E+02  0.11734E-04
 0.98800003E+02  0.30104E-05
 0.98849998E+02 -0.94738E-05
 0.98900002E+02 -0.21750E-04
 0.98950005E+02 -0.30022E-04
 0.99000000E+02 -0.33472E-04
 0.99050003E+02 -0.31587E-04
 0.99099998E+02 -0.25091E-04
 0.99150002E+02 -0.15921E-04
 0.99200005E+02 -0.55380E-05
 0.99250000E+02  0.50335E-05
 0.99300003E+02  0.16411E-04
 0.99349998E+02  0.26572E-04
 0.99400002E+02  0.31630E-04
 0.99450005E+02  0.31109E-04
 0.99500000E+02  0.24675E-04
 0.99550003E+02  0.12737E-04
 0.99599998E+02 -0.52290E-06
 0.99650002E+02 -0.10165E-04
 0.99700005E+02 -0.14271E-04
 0.99750000E+02 -0.13650E-04
 0.99800003E+02 -0.97507E-05
 0.99849998E+02 -0.42783E-05
 0.99900002E+02  0.23326E-06
 0.99950005E+02  0.17218E-05
 0.10000000E+03  0.14090E-05
