 0.00000000E+00 -0.16373E-07
 0.50000001E-01 -0.16273E-07
 0.10000000E+00 -0.11096E-08
 0.15000001E+00  0.19926E-07
 0.20000000E+00  0.21063E-07
 0.25000000E+00  0.26646E-07
 0.30000001E+00  0.27384E-07
 0.34999999E+00  0.23554E-07
 0.40000001E+00  0.24349E-07
 0.45000002E+00  0.17058E-07
 0.50000000E+00  0.19427E-07
 0.55000001E+00  0.28503E-07
 0.60000002E+00  0.41386E-07
 0.65000004E+00  0.51466E-07
 0.69999999E+00  0.52160E-07
 0.75000000E+00  0.42103E-07
 0.80000001E+00  0.30868E-07
 0.85000002E+00  0.30768E-07
 0.90000004E+00  0.30569E-07
 0.94999999E+00  0.35467E-07
 0.10000000E+01  0.32252E-07
 0.10500001E+01  0.21288E-07
 0.11000000E+01  0.15561E-09
 0.11500000E+01 -0.22060E-07
 0.12000000E+01 -0.25886E-07
 0.12500000E+01 -0.29533E-07
 0.13000001E+01 -0.19681E-07
 0.13500000E+01 -0.12483E-07
 0.14000000E+01 -0.75648E-08
 0.14500000E+01 -0.62554E-10
 0.15000000E+01 -0.64670E-08
 0.15500001E+01 -0.51458E-08
 0.16000000E+01 -0.13135E-08
 0.16500000E+01 -0.10439E-07
 0.17000000E+01 -0.32284E-07
 0.17500000E+01 -0.50481E-07
 0.18000001E+01 -0.57629E-07
 0.18500000E+01 -0.58284E-07
 0.19000000E+01 -0.45373E-07
 0.19500000E+01 -0.40227E-07
 0.20000000E+01 -0.39773E-07
 0.20500000E+01 -0.33248E-07
 0.21000001E+01 -0.29665E-07
 0.21500001E+01 -0.22412E-07
 0.22000000E+01 -0.17129E-07
 0.22500000E+01 -0.11196E-07
 0.23000000E+01  0.28824E-09
 0.23500001E+01  0.57602E-08
 0.24000001E+01  0.15586E-07
 0.24500000E+01  0.24143E-07
 0.25000000E+01  0.26522E-07
 0.25500000E+01  0.35736E-07
 0.26000001E+01  0.51398E-07
 0.26500001E+01  0.66665E-07
 0.27000000E+01  0.66426E-07
 0.27500000E+01  0.73326E-07
 0.28000000E+01  0.92667E-07
 0.28500001E+01  0.94354E-07
 0.29000001E+01  0.79206E-07
 0.29500000E+01  0.52141E-07
 0.30000000E+01  0.25919E-07
 0.30500000E+01 -0.25656E-08
 0.31000001E+01 -0.24135E-07
 0.31500001E+01 -0.19665E-07
 0.32000000E+01 -0.22232E-07
 0.32500000E+01 -0.38223E-07
 0.33000000E+01 -0.59902E-07
 0.33500001E+01 -0.76942E-07
 0.34000001E+01 -0.69299E-07
 0.34500000E+01 -0.64675E-07
 0.35000000E+01 -0.61657E-07
 0.35500000E+01 -0.47989E-07
 0.36000001E+01 -0.43316E-07
 0.36500001E+01 -0.44320E-07
 0.37000000E+01 -0.41637E-07
 0.37500000E+01 -0.35870E-07
 0.38000000E+01 -0.30927E-07
 0.38500001E+01 -0.17557E-07
 0.39000001E+01  0.84383E-09
 0.39500000E+01  0.25902E-07
 0.40000000E+01  0.52751E-07
 0.40500002E+01  0.64563E-07
 0.40999999E+01  0.66719E-07
 0.41500001E+01  0.56430E-07
 0.42000003E+01  0.39687E-07
 0.42500000E+01  0.25995E-07
 0.43000002E+01  0.20034E-07
 0.43499999E+01  0.15069E-07
 0.44000001E+01  0.11610E-07
 0.44500003E+01  0.13134E-07
 0.45000000E+01  0.48740E-08
 0.45500002E+01  0.22241E-08
 0.45999999E+01  0.13671E-07
 0.46500001E+01  0.28096E-07
 0.47000003E+01  0.39766E-07
 0.47500000E+01  0.44758E-07
 0.48000002E+01  0.51610E-07
 0.48499999E+01  0.61210E-07
 0.49000001E+01  0.65956E-07
 0.49500003E+01  0.59962E-07
 0.50000000E+01  0.48027E-07
 0.50500002E+01  0.41658E-07
 0.50999999E+01  0.28382E-07
 0.51500001E+01  0.12678E-07
 0.52000003E+01  0.62634E-08
 0.52500000E+01 -0.92536E-09
 0.53000002E+01 -0.19020E-07
 0.53499999E+01 -0.46163E-07
 0.54000001E+01 -0.69915E-07
 0.54500003E+01 -0.94493E-07
 0.55000000E+01 -0.11833E-06
 0.55500002E+01 -0.12995E-06
 0.55999999E+01 -0.13001E-06
 0.56500001E+01 -0.12521E-06
 0.57000003E+01 -0.11371E-06
 0.57500000E+01 -0.92993E-07
 0.58000002E+01 -0.74807E-07
 0.58499999E+01 -0.54562E-07
 0.59000001E+01 -0.40935E-07
 0.59500003E+01 -0.30543E-07
 0.60000000E+01 -0.21893E-07
 0.60500002E+01 -0.31417E-07
 0.60999999E+01 -0.37106E-07
 0.61500001E+01 -0.43384E-07
 0.62000003E+01 -0.43692E-07
 0.62500000E+01 -0.31496E-07
 0.63000002E+01 -0.23481E-07
 0.63499999E+01 -0.13650E-07
 0.64000001E+01 -0.57801E-08
 0.64500003E+01  0.53420E-08
 0.65000000E+01  0.20696E-07
 0.65500002E+01  0.31452E-07
 0.65999999E+01  0.44941E-07
 0.66500001E+01  0.67047E-07
 0.67000003E+01  0.85891E-07
 0.67500000E+01  0.92012E-07
 0.68000002E+01  0.86208E-07
 0.68499999E+01  0.79301E-07
 0.69000001E+01  0.73176E-07
 0.69500003E+01  0.59161E-07
 0.70000000E+01  0.45888E-07
 0.70500002E+01  0.29247E-07
 0.70999999E+01  0.27679E-07
 0.71500001E+01  0.33568E-07
 0.72000003E+01  0.20855E-07
 0.72500000E+01  0.14299E-07
 0.73000002E+01  0.10816E-07
 0.73499999E+01  0.98173E-08
 0.74000001E+01  0.83880E-08
 0.74500003E+01  0.48560E-09
 0.75000000E+01 -0.10700E-07
 0.75500002E+01 -0.24027E-07
 0.75999999E+01 -0.21527E-07
 0.76500001E+01 -0.13285E-07
 0.77000003E+01 -0.34256E-08
 0.77500000E+01  0.11589E-07
 0.78000002E+01  0.20989E-07
 0.78499999E+01  0.30708E-07
 0.79000001E+01  0.37280E-07
 0.79500003E+01  0.35929E-07
 0.80000000E+01  0.38254E-07
 0.80500002E+01  0.42282E-07
 0.81000004E+01  0.39833E-07
 0.81500006E+01  0.33426E-07
 0.81999998E+01  0.29904E-07
 0.82500000E+01  0.19165E-07
 0.83000002E+01  0.62964E-08
 0.83500004E+01  0.10438E-08
 0.84000006E+01 -0.52142E-08
 0.84499998E+01 -0.43671E-08
 0.85000000E+01 -0.97849E-08
 0.85500002E+01 -0.94345E-08
 0.86000004E+01 -0.58804E-08
 0.86500006E+01 -0.99080E-08
 0.86999998E+01 -0.56170E-08
 0.87500000E+01 -0.82581E-08
 0.88000002E+01 -0.34442E-08
 0.88500004E+01  0.62317E-08
 0.89000006E+01  0.10768E-07
 0.89499998E+01  0.41626E-08
 0.90000000E+01 -0.13967E-07
 0.90500002E+01 -0.25875E-07
 0.91000004E+01 -0.42421E-07
 0.91500006E+01 -0.67625E-07
 0.91999998E+01 -0.89345E-07
 0.92500000E+01 -0.93760E-07
 0.93000002E+01 -0.97943E-07
 0.93500004E+01 -0.11497E-06
 0.94000006E+01 -0.13535E-06
 0.94499998E+01 -0.15134E-06
 0.95000000E+01 -0.14874E-06
 0.95500002E+01 -0.12928E-06
 0.96000004E+01 -0.97527E-07
 0.96500006E+01 -0.74472E-07
 0.96999998E+01 -0.67963E-07
 0.97500000E+01 -0.48043E-07
 0.98000002E+01 -0.20420E-07
 0.98500004E+01  0.24425E-08
 0.99000006E+01  0.25559E-07
 0.99499998E+01  0.43475E-07
 0.10000000E+02  0.61524E-07
 0.10050000E+02  0.85224E-07
 0.10100000E+02  0.11181E-06
 0.10150001E+02  0.13484E-06
 0.10200000E+02  0.15421E-06
 0.10250000E+02  0.16897E-06
 0.10300000E+02  0.17959E-06
 0.10350000E+02  0.18460E-06
 0.10400001E+02  0.18070E-06
 0.10450000E+02  0.17490E-06
 0.10500000E+02  0.16531E-06
 0.10550000E+02  0.15710E-06
 0.10600000E+02  0.15208E-06
 0.10650001E+02  0.14388E-06
 0.10700000E+02  0.12684E-06
 0.10750000E+02  0.10384E-06
 0.10800000E+02  0.78884E-07
 0.10850000E+02  0.47656E-07
 0.10900001E+02  0.15618E-07
 0.10950000E+02 -0.80814E-09
 0.11000000E+02 -0.15720E-07
 0.11050000E+02 -0.45527E-07
 0.11100000E+02 -0.81793E-07
 0.11150001E+02 -0.11555E-06
 0.11200000E+02 -0.12908E-06
 0.11250000E+02 -0.12669E-06
 0.11300000E+02 -0.12480E-06
 0.11350000E+02 -0.13483E-06
 0.11400001E+02 -0.15405E-06
 0.11450000E+02 -0.16966E-06
 0.11500000E+02 -0.17352E-06
 0.11550000E+02 -0.16697E-06
 0.11600000E+02 -0.16268E-06
 0.11650001E+02 -0.15387E-06
 0.11700000E+02 -0.13984E-06
 0.11750000E+02 -0.12334E-06
 0.11800000E+02 -0.98880E-07
 0.11850000E+02 -0.67534E-07
 0.11900001E+02 -0.33121E-07
 0.11950000E+02  0.96122E-09
 0.12000000E+02  0.44717E-07
 0.12050000E+02  0.86721E-07
 0.12100000E+02  0.10436E-06
 0.12150001E+02  0.11570E-06
 0.12200000E+02  0.13191E-06
 0.12250000E+02  0.14411E-06
 0.12300000E+02  0.14035E-06
 0.12350000E+02  0.12433E-06
 0.12400001E+02  0.11131E-06
 0.12450000E+02  0.96591E-07
 0.12500000E+02  0.68639E-07
 0.12550000E+02  0.44496E-07
 0.12600000E+02  0.25671E-07
 0.12650001E+02  0.40546E-08
 0.12700000E+02 -0.17148E-07
 0.12750000E+02 -0.41759E-07
 0.12800000E+02 -0.68682E-07
 0.12850000E+02 -0.95861E-07
 0.12900001E+02 -0.11027E-06
 0.12950000E+02 -0.11836E-06
 0.13000000E+02 -0.12012E-06
 0.13050000E+02 -0.11838E-06
 0.13100000E+02 -0.12038E-06
 0.13150001E+02 -0.11456E-06
 0.13200000E+02 -0.11004E-06
 0.13250000E+02 -0.10812E-06
 0.13300000E+02 -0.11013E-06
 0.13350000E+02 -0.10584E-06
 0.13400001E+02 -0.86172E-07
 0.13450000E+02 -0.54011E-07
 0.13500000E+02 -0.25539E-07
 0.13550000E+02 -0.52272E-08
 0.13600000E+02  0.23415E-07
 0.13650001E+02  0.57905E-07
 0.13700000E+02  0.92438E-07
 0.13750000E+02  0.12025E-06
 0.13800000E+02  0.14222E-06
 0.13850000E+02  0.14839E-06
 0.13900001E+02  0.14861E-06
 0.13950000E+02  0.14991E-06
 0.14000000E+02  0.13940E-06
 0.14050000E+02  0.13244E-06
 0.14100000E+02  0.13114E-06
 0.14150001E+02  0.12023E-06
 0.14200000E+02  0.10662E-06
 0.14250000E+02  0.99843E-07
 0.14300000E+02  0.86775E-07
 0.14350000E+02  0.71189E-07
 0.14400001E+02  0.52435E-07
 0.14450000E+02  0.35493E-07
 0.14500000E+02  0.27621E-07
 0.14550000E+02  0.16145E-07
 0.14600000E+02  0.49167E-08
 0.14650001E+02 -0.92253E-08
 0.14700000E+02 -0.28074E-07
 0.14750000E+02 -0.44219E-07
 0.14800000E+02 -0.45879E-07
 0.14850000E+02 -0.47933E-07
 0.14900001E+02 -0.57088E-07
 0.14950000E+02 -0.55569E-07
 0.15000000E+02 -0.50130E-07
 0.15050000E+02 -0.66927E-07
 0.15100000E+02 -0.86584E-07
 0.15150001E+02 -0.86157E-07
 0.15200000E+02 -0.90884E-07
 0.15250000E+02 -0.90122E-07
 0.15300000E+02 -0.77717E-07
 0.15350000E+02 -0.65389E-07
 0.15400001E+02 -0.55735E-07
 0.15450000E+02 -0.47638E-07
 0.15500000E+02 -0.34878E-07
 0.15550000E+02 -0.20152E-07
 0.15600000E+02  0.21328E-08
 0.15650001E+02  0.28410E-07
 0.15700000E+02  0.41110E-07
 0.15750000E+02  0.48291E-07
 0.15800000E+02  0.53926E-07
 0.15850000E+02  0.49935E-07
 0.15900001E+02  0.47572E-07
 0.15950000E+02  0.43170E-07
 0.16000000E+02  0.27528E-07
 0.16050001E+02  0.54659E-08
 0.16100000E+02 -0.14500E-07
 0.16150000E+02 -0.29412E-07
 0.16200001E+02 -0.49004E-07
 0.16250000E+02 -0.60204E-07
 0.16300001E+02 -0.65823E-07
 0.16350000E+02 -0.65542E-07
 0.16400000E+02 -0.58928E-07
 0.16450001E+02 -0.47614E-07
 0.16500000E+02 -0.30922E-07
 0.16550001E+02 -0.28019E-07
 0.16600000E+02 -0.27647E-07
 0.16650000E+02 -0.20277E-07
 0.16700001E+02 -0.22337E-08
 0.16750000E+02  0.14194E-07
 0.16800001E+02  0.23589E-07
 0.16850000E+02  0.18603E-07
 0.16900000E+02  0.47932E-08
 0.16950001E+02  0.22677E-09
 0.17000000E+02  0.17216E-08
 0.17050001E+02  0.15867E-07
 0.17100000E+02  0.23898E-07
 0.17150000E+02  0.27597E-07
 0.17200001E+02  0.37804E-07
 0.17250000E+02  0.47626E-07
 0.17300001E+02  0.62723E-07
 0.17350000E+02  0.79990E-07
 0.17400000E+02  0.81132E-07
 0.17450001E+02  0.77217E-07
 0.17500000E+02  0.78088E-07
 0.17550001E+02  0.63957E-07
 0.17600000E+02  0.40406E-07
 0.17650000E+02  0.11301E-07
 0.17700001E+02 -0.61685E-08
 0.17750000E+02 -0.15475E-07
 0.17800001E+02 -0.36798E-07
 0.17850000E+02 -0.58739E-07
 0.17900000E+02 -0.72533E-07
 0.17950001E+02 -0.71580E-07
 0.18000000E+02 -0.68724E-07
 0.18050001E+02 -0.68152E-07
 0.18100000E+02 -0.67452E-07
 0.18150000E+02 -0.62287E-07
 0.18200001E+02 -0.54671E-07
 0.18250000E+02 -0.41187E-07
 0.18300001E+02 -0.13100E-07
 0.18350000E+02 -0.15148E-08
 0.18400000E+02 -0.27472E-09
 0.18450001E+02  0.56857E-08
 0.18500000E+02  0.64801E-08
 0.18550001E+02  0.12547E-07
 0.18600000E+02  0.15664E-07
 0.18650000E+02  0.15236E-07
 0.18700001E+02  0.17945E-07
 0.18750000E+02  0.15904E-07
 0.18800001E+02  0.11213E-07
 0.18850000E+02  0.12680E-07
 0.18900000E+02  0.22187E-07
 0.18950001E+02  0.30710E-07
 0.19000000E+02  0.40021E-07
 0.19050001E+02  0.54233E-07
 0.19100000E+02  0.75589E-07
 0.19150000E+02  0.10706E-06
 0.19200001E+02  0.13477E-06
 0.19250000E+02  0.14359E-06
 0.19300001E+02  0.13046E-06
 0.19350000E+02  0.10899E-06
 0.19400000E+02  0.98153E-07
 0.19450001E+02  0.93603E-07
 0.19500000E+02  0.89010E-07
 0.19550001E+02  0.78680E-07
 0.19600000E+02  0.56384E-07
 0.19650000E+02  0.36151E-07
 0.19700001E+02  0.17934E-07
 0.19750000E+02 -0.56786E-09
 0.19800001E+02 -0.58426E-08
 0.19850000E+02 -0.24419E-07
 0.19900000E+02 -0.53541E-07
 0.19950001E+02 -0.63709E-07
 0.20000000E+02 -0.71658E-07
 0.20050001E+02 -0.83623E-07
 0.20100000E+02 -0.89956E-07
 0.20150000E+02 -0.86791E-07
 0.20200001E+02 -0.81062E-07
 0.20250000E+02 -0.81629E-07
 0.20300001E+02 -0.84085E-07
 0.20350000E+02 -0.82178E-07
 0.20400000E+02 -0.72483E-07
 0.20450001E+02 -0.60910E-07
 0.20500000E+02 -0.47426E-07
 0.20550001E+02 -0.27019E-07
 0.20600000E+02 -0.20411E-07
 0.20650000E+02 -0.22715E-07
 0.20700001E+02 -0.24238E-07
 0.20750000E+02 -0.17189E-07
 0.20800001E+02 -0.12457E-07
 0.20850000E+02 -0.31331E-07
 0.20900000E+02 -0.39750E-07
 0.20950001E+02 -0.45930E-07
 0.21000000E+02 -0.46204E-07
 0.21050001E+02 -0.30980E-07
 0.21100000E+02 -0.29480E-07
 0.21150000E+02 -0.34099E-07
 0.21200001E+02 -0.40633E-07
 0.21250000E+02 -0.40391E-07
 0.21300001E+02 -0.26238E-07
 0.21350000E+02 -0.55841E-09
 0.21400000E+02  0.20631E-07
 0.21450001E+02  0.31629E-07
 0.21500000E+02  0.46193E-07
 0.21550001E+02  0.57668E-07
 0.21600000E+02  0.59693E-07
 0.21650000E+02  0.65080E-07
 0.21700001E+02  0.68450E-07
 0.21750000E+02  0.62073E-07
 0.21800001E+02  0.59776E-07
 0.21850000E+02  0.33631E-07
 0.21900000E+02 -0.57105E-08
 0.21950001E+02 -0.17158E-07
 0.22000000E+02 -0.22888E-07
 0.22050001E+02 -0.23555E-07
 0.22100000E+02 -0.22558E-07
 0.22150000E+02 -0.39744E-07
 0.22200001E+02 -0.49443E-07
 0.22250000E+02 -0.48887E-07
 0.22300001E+02 -0.38291E-07
 0.22350000E+02 -0.28419E-07
 0.22400000E+02 -0.32662E-07
 0.22450001E+02 -0.31825E-07
 0.22500000E+02 -0.24523E-07
 0.22550001E+02 -0.19734E-08
 0.22600000E+02  0.68030E-08
 0.22650000E+02  0.93137E-08
 0.22700001E+02  0.25605E-07
 0.22750000E+02  0.24645E-07
 0.22800001E+02  0.32336E-07
 0.22850000E+02  0.44957E-07
 0.22900000E+02  0.40323E-07
 0.22950001E+02  0.32942E-07
 0.23000000E+02  0.30705E-07
 0.23050001E+02  0.25402E-07
 0.23100000E+02 -0.45868E-08
 0.23150000E+02 -0.38880E-07
 0.23200001E+02 -0.59154E-07
 0.23250000E+02 -0.65067E-07
 0.23300001E+02 -0.54281E-07
 0.23350000E+02 -0.40665E-07
 0.23400000E+02 -0.23055E-07
 0.23450001E+02 -0.59348E-08
 0.23500000E+02  0.50546E-08
 0.23550001E+02  0.11697E-07
 0.23600000E+02  0.82374E-08
 0.23650000E+02  0.19150E-07
 0.23700001E+02  0.25545E-07
 0.23750000E+02  0.14737E-07
 0.23800001E+02  0.12232E-07
 0.23850000E+02 -0.88253E-08
 0.23900000E+02 -0.34810E-09
 0.23950001E+02 -0.40703E-07
 0.24000000E+02 -0.64483E-07
 0.24050001E+02 -0.10541E-06
 0.24100000E+02 -0.14143E-06
 0.24150000E+02  0.16944E-06
 0.24200001E+02  0.50949E-06
 0.24250000E+02  0.60250E-06
 0.24300001E+02  0.78176E-07
 0.24350000E+02 -0.40418E-06
 0.24400000E+02 -0.26004E-06
 0.24450001E+02  0.69298E-07
 0.24500000E+02  0.13843E-06
 0.24550001E+02 -0.22853E-07
 0.24600000E+02  0.67692E-06
 0.24650000E+02  0.35085E-06
 0.24700001E+02 -0.26649E-05
 0.24750000E+02 -0.51447E-05
 0.24800001E+02 -0.88635E-06
 0.24850000E+02  0.25756E-05
 0.24900000E+02 -0.49688E-06
 0.24950001E+02 -0.12417E-06
 0.25000000E+02  0.10597E-05
 0.25050001E+02  0.20127E-05
 0.25100000E+02  0.17252E-05
 0.25150000E+02 -0.37146E-07
 0.25200001E+02  0.30961E-05
 0.25250000E+02  0.68346E-05
 0.25300001E+02  0.44624E-05
 0.25350000E+02 -0.24379E-05
 0.25400000E+02 -0.52362E-06
 0.25450001E+02  0.16240E-05
 0.25500000E+02 -0.30650E-05
 0.25550001E+02 -0.43936E-05
 0.25600000E+02 -0.18987E-05
 0.25650000E+02 -0.33243E-07
 0.25700001E+02 -0.43916E-05
 0.25750000E+02 -0.52243E-06
 0.25800001E+02  0.40952E-05
 0.25850000E+02 -0.20311E-05
 0.25900000E+02 -0.57558E-05
 0.25950001E+02 -0.30611E-05
 0.26000000E+02  0.55845E-05
 0.26050001E+02  0.26597E-05
 0.26100000E+02 -0.78916E-05
 0.26150000E+02 -0.61726E-05
 0.26200001E+02  0.22749E-05
 0.26250000E+02  0.85939E-05
 0.26300001E+02  0.39767E-05
 0.26350000E+02 -0.47082E-05
 0.26400000E+02  0.20364E-06
 0.26450001E+02  0.88814E-05
 0.26500000E+02  0.97140E-05
 0.26550001E+02  0.14218E-05
 0.26600000E+02 -0.97000E-05
 0.26650000E+02 -0.45890E-05
 0.26700001E+02  0.58457E-05
 0.26750000E+02 -0.64717E-07
 0.26800001E+02 -0.83348E-05
 0.26850000E+02 -0.69319E-05
 0.26900000E+02 -0.47134E-05
 0.26950001E+02  0.50395E-06
 0.27000000E+02 -0.99533E-06
 0.27050001E+02 -0.21184E-05
 0.27100000E+02  0.10916E-04
 0.27150000E+02  0.54135E-05
 0.27200001E+02 -0.15810E-05
 0.27250000E+02  0.21299E-05
 0.27300001E+02 -0.40396E-06
 0.27350000E+02  0.64068E-05
 0.27400000E+02 -0.18314E-05
 0.27450001E+02 -0.94812E-05
 0.27500000E+02  0.47839E-05
 0.27550001E+02  0.29186E-05
 0.27600000E+02 -0.21983E-05
 0.27650000E+02 -0.16729E-05
 0.27700001E+02 -0.28955E-05
 0.27750000E+02  0.33860E-05
 0.27800001E+02  0.15561E-05
 0.27850000E+02 -0.20732E-05
 0.27900000E+02  0.14365E-05
 0.27950001E+02  0.28036E-06
 0.28000000E+02  0.32020E-05
 0.28050001E+02  0.23508E-05
 0.28100000E+02 -0.48068E-05
 0.28150000E+02 -0.83426E-05
 0.28200001E+02 -0.50232E-05
 0.28250000E+02  0.60911E-05
 0.28300001E+02  0.86667E-05
 0.28350000E+02  0.84694E-05
 0.28400000E+02  0.29540E-05
 0.28450001E+02 -0.74216E-05
 0.28500000E+02 -0.78031E-05
 0.28550001E+02 -0.48403E-05
 0.28600000E+02  0.68150E-05
 0.28650000E+02  0.82659E-05
 0.28700001E+02 -0.74997E-05
 0.28750000E+02 -0.58073E-05
 0.28800001E+02 -0.39340E-05
 0.28850000E+02 -0.11022E-04
 0.28900000E+02  0.62750E-06
 0.28950001E+02  0.37697E-05
 0.29000000E+02  0.74010E-06
 0.29050001E+02  0.10376E-04
 0.29100000E+02  0.73882E-05
 0.29150000E+02  0.11144E-04
 0.29200001E+02  0.47403E-05
 0.29250000E+02 -0.13607E-04
 0.29300001E+02 -0.44206E-05
 0.29350000E+02  0.11629E-05
 0.29400000E+02  0.45172E-05
 0.29450001E+02  0.23004E-05
 0.29500000E+02 -0.64799E-05
 0.29550001E+02 -0.35905E-05
 0.29600000E+02 -0.10001E-04
 0.29650000E+02 -0.30035E-05
 0.29700001E+02  0.16240E-04
 0.29750000E+02  0.75425E-05
 0.29800001E+02 -0.77672E-05
 0.29850000E+02 -0.63383E-05
 0.29900000E+02 -0.79906E-05
 0.29950001E+02 -0.55372E-05
 0.30000000E+02  0.23232E-05
 0.30050001E+02  0.11130E-05
 0.30100000E+02  0.70904E-05
 0.30150000E+02  0.71733E-05
 0.30200001E+02  0.22623E-05
 0.30250000E+02  0.28905E-05
 0.30300001E+02 -0.91640E-05
 0.30350000E+02 -0.71669E-05
 0.30400000E+02  0.88461E-05
 0.30450001E+02  0.92214E-05
 0.30500000E+02  0.39771E-05
 0.30550001E+02 -0.85845E-05
 0.30600000E+02 -0.16065E-04
 0.30650000E+02  0.89487E-06
 0.30700001E+02  0.11044E-04
 0.30750000E+02 -0.20551E-05
 0.30800001E+02 -0.63246E-05
 0.30850000E+02  0.71730E-06
 0.30900000E+02 -0.17836E-05
 0.30950001E+02 -0.18814E-05
 0.31000000E+02  0.16192E-07
 0.31050001E+02 -0.35120E-05
 0.31100000E+02  0.24824E-05
 0.31150000E+02  0.84435E-05
 0.31200001E+02  0.75937E-05
 0.31250000E+02  0.56031E-05
 0.31300001E+02  0.29387E-05
 0.31350000E+02  0.40085E-05
 0.31400000E+02  0.33091E-07
 0.31450001E+02 -0.78719E-05
 0.31500000E+02 -0.11635E-04
 0.31550001E+02 -0.48801E-05
 0.31600000E+02  0.47199E-05
 0.31650000E+02  0.44210E-05
 0.31700001E+02  0.12523E-05
 0.31750000E+02  0.44622E-05
 0.31800001E+02  0.34943E-05
 0.31850000E+02 -0.53054E-05
 0.31900000E+02  0.18222E-05
 0.31950001E+02  0.63364E-05
 0.32000000E+02 -0.11104E-05
 0.32049999E+02 -0.24248E-05
 0.32100002E+02 -0.12397E-06
 0.32150002E+02  0.25628E-05
 0.32200001E+02 -0.73272E-05
 0.32250000E+02 -0.13517E-04
 0.32299999E+02 -0.63328E-05
 0.32350002E+02  0.87180E-06
 0.32400002E+02  0.11312E-04
 0.32450001E+02  0.73540E-05
 0.32500000E+02 -0.26823E-05
 0.32549999E+02 -0.50603E-06
 0.32600002E+02 -0.18415E-05
 0.32650002E+02 -0.47405E-05
 0.32700001E+02 -0.56478E-05
 0.32750000E+02 -0.41354E-05
 0.32799999E+02 -0.11564E-05
 0.32850002E+02  0.52710E-05
 0.32900002E+02  0.10649E-04
 0.32950001E+02  0.86433E-05
 0.33000000E+02  0.14734E-04
 0.33049999E+02  0.15050E-04
 0.33100002E+02  0.10338E-05
 0.33150002E+02 -0.12993E-04
 0.33200001E+02 -0.21653E-04
 0.33250000E+02 -0.12634E-04
 0.33299999E+02 -0.69682E-05
 0.33350002E+02 -0.74359E-05
 0.33400002E+02  0.57004E-05
 0.33450001E+02  0.44939E-05
 0.33500000E+02  0.78060E-06
 0.33549999E+02  0.63947E-05
 0.33600002E+02  0.65710E-05
 0.33650002E+02  0.11996E-04
 0.33700001E+02  0.73645E-05
 0.33750000E+02 -0.47304E-05
 0.33799999E+02 -0.10053E-04
 0.33850002E+02 -0.10637E-04
 0.33900002E+02  0.11004E-05
 0.33950001E+02  0.67298E-05
 0.34000000E+02 -0.64164E-06
 0.34049999E+02 -0.32594E-05
 0.34100002E+02 -0.74920E-05
 0.34150002E+02 -0.11094E-04
 0.34200001E+02 -0.91048E-05
 0.34250000E+02  0.56772E-06
 0.34299999E+02  0.16600E-04
 0.34350002E+02  0.15572E-04
 0.34400002E+02  0.72424E-05
 0.34450001E+02  0.57324E-05
 0.34500000E+02  0.88428E-06
 0.34549999E+02 -0.53950E-05
 0.34600002E+02 -0.73805E-05
 0.34650002E+02 -0.22185E-05
 0.34700001E+02 -0.22721E-06
 0.34750000E+02 -0.68993E-05
 0.34799999E+02 -0.10538E-04
 0.34850002E+02 -0.56339E-05
 0.34900002E+02  0.36184E-05
 0.34950001E+02  0.44444E-05
 0.35000000E+02  0.21601E-05
 0.35049999E+02  0.80746E-05
 0.35100002E+02  0.68029E-05
 0.35150002E+02 -0.16163E-05
 0.35200001E+02 -0.65677E-05
 0.35250000E+02 -0.66176E-05
 0.35299999E+02  0.17988E-05
 0.35350002E+02  0.73593E-05
 0.35400002E+02  0.46093E-05
 0.35450001E+02  0.52218E-05
 0.35500000E+02  0.39205E-05
 0.35549999E+02  0.25805E-06
 0.35600002E+02 -0.17804E-06
 0.35650002E+02 -0.59107E-05
 0.35700001E+02 -0.47825E-05
 0.35750000E+02  0.12940E-05
 0.35799999E+02  0.54112E-06
 0.35850002E+02  0.13286E-05
 0.35900002E+02  0.75501E-07
 0.35950001E+02  0.20540E-05
 0.36000000E+02  0.71984E-05
 0.36049999E+02  0.48757E-05
 0.36100002E+02 -0.15580E-05
 0.36150002E+02 -0.10149E-04
 0.36200001E+02 -0.10595E-04
 0.36250000E+02  0.68047E-06
 0.36299999E+02  0.61543E-05
 0.36350002E+02  0.34394E-05
 0.36400002E+02 -0.41015E-05
 0.36450001E+02 -0.11325E-04
 0.36500000E+02 -0.89190E-05
 0.36549999E+02 -0.26467E-05
 0.36600002E+02  0.77653E-06
 0.36650002E+02  0.20592E-05
 0.36700001E+02  0.47911E-05
 0.36750000E+02  0.72700E-05
 0.36799999E+02  0.80700E-05
 0.36850002E+02  0.61035E-05
 0.36900002E+02  0.18539E-06
 0.36950001E+02 -0.48709E-05
 0.37000000E+02 -0.36765E-05
 0.37049999E+02  0.32549E-06
 0.37100002E+02  0.49884E-06
 0.37150002E+02 -0.53090E-06
 0.37200001E+02 -0.12118E-05
 0.37250000E+02 -0.12369E-05
 0.37299999E+02 -0.34181E-06
 0.37350002E+02 -0.14858E-05
 0.37400002E+02 -0.32707E-05
 0.37450001E+02 -0.22350E-05
 0.37500000E+02  0.28665E-07
 0.37549999E+02  0.19284E-05
 0.37600002E+02 -0.41015E-06
 0.37650002E+02  0.52800E-06
 0.37700001E+02  0.86994E-05
 0.37750000E+02  0.47822E-05
 0.37799999E+02 -0.46424E-05
 0.37850002E+02 -0.56431E-05
 0.37900002E+02 -0.40669E-05
 0.37950001E+02  0.49448E-06
 0.38000000E+02  0.47034E-05
 0.38049999E+02  0.76598E-05
 0.38100002E+02  0.73215E-05
 0.38150002E+02 -0.33374E-05
 0.38200001E+02 -0.12256E-04
 0.38250000E+02 -0.95122E-05
 0.38299999E+02 -0.13530E-05
 0.38350002E+02  0.41690E-05
 0.38400002E+02  0.81223E-05
 0.38450001E+02  0.10948E-04
 0.38500000E+02  0.71031E-05
 0.38549999E+02  0.20983E-05
 0.38600002E+02 -0.53077E-05
 0.38650002E+02 -0.13620E-04
 0.38700001E+02 -0.12544E-04
 0.38750000E+02 -0.79185E-05
 0.38799999E+02 -0.15877E-05
 0.38850002E+02  0.89597E-05
 0.38900002E+02  0.12818E-04
 0.38950001E+02  0.47968E-05
 0.39000000E+02 -0.15312E-05
 0.39049999E+02 -0.39074E-06
 0.39100002E+02 -0.63689E-06
 0.39150002E+02 -0.25063E-05
 0.39200001E+02  0.84587E-07
 0.39250000E+02  0.77633E-05
 0.39299999E+02  0.66154E-05
 0.39350002E+02 -0.70467E-06
 0.39400002E+02 -0.15517E-05
 0.39450001E+02 -0.61244E-05
 0.39500000E+02 -0.70790E-05
 0.39549999E+02  0.51195E-06
 0.39600002E+02  0.55538E-06
 0.39650002E+02 -0.30304E-05
 0.39700001E+02 -0.33596E-05
 0.39750000E+02 -0.37562E-05
 0.39799999E+02  0.15176E-07
 0.39850002E+02  0.20318E-05
 0.39900002E+02  0.36440E-06
 0.39950001E+02  0.50981E-05
 0.40000000E+02  0.79289E-05
 0.40049999E+02  0.48034E-05
 0.40100002E+02  0.29797E-05
 0.40150002E+02  0.44347E-05
 0.40200001E+02  0.61678E-05
 0.40250000E+02  0.33203E-05
 0.40299999E+02 -0.23081E-05
 0.40350002E+02 -0.56321E-05
 0.40400002E+02 -0.67094E-05
 0.40450001E+02 -0.82997E-05
 0.40500000E+02 -0.10921E-04
 0.40549999E+02 -0.81733E-05
 0.40600002E+02 -0.14848E-05
 0.40650002E+02 -0.16976E-05
 0.40700001E+02 -0.45978E-05
 0.40750000E+02 -0.19555E-05
 0.40799999E+02  0.40603E-05
 0.40850002E+02  0.81061E-05
 0.40900002E+02  0.11574E-04
 0.40950001E+02  0.12759E-04
 0.41000000E+02  0.48126E-05
 0.41049999E+02 -0.21304E-05
 0.41100002E+02 -0.33712E-05
 0.41150002E+02 -0.54949E-05
 0.41200001E+02 -0.59978E-05
 0.41250000E+02 -0.44752E-05
 0.41299999E+02 -0.61576E-05
 0.41350002E+02 -0.69128E-05
 0.41400002E+02  0.50829E-05
 0.41450001E+02  0.18162E-04
 0.41500000E+02  0.16255E-04
 0.41549999E+02 -0.98958E-06
 0.41600002E+02 -0.21799E-04
 0.41650002E+02 -0.27480E-04
 0.41700001E+02 -0.15710E-04
 0.41750000E+02 -0.12170E-06
 0.41799999E+02  0.61503E-05
 0.41850002E+02  0.15355E-04
 0.41900002E+02  0.25342E-04
 0.41950001E+02  0.23113E-04
 0.42000000E+02  0.15592E-04
 0.42049999E+02 -0.81776E-06
 0.42100002E+02 -0.15912E-04
 0.42150002E+02 -0.15937E-04
 0.42200001E+02 -0.84547E-05
 0.42250000E+02  0.75353E-06
 0.42299999E+02  0.83943E-05
 0.42350002E+02  0.22112E-05
 0.42400002E+02 -0.28154E-05
 0.42450001E+02  0.52963E-06
 0.42500000E+02 -0.11614E-04
 0.42549999E+02 -0.12981E-04
 0.42600002E+02 -0.61295E-07
 0.42650002E+02  0.11717E-05
 0.42700001E+02  0.65160E-06
 0.42750000E+02 -0.63410E-05
 0.42799999E+02 -0.13816E-04
 0.42850002E+02 -0.65113E-05
 0.42900002E+02  0.98920E-05
 0.42950001E+02  0.24756E-04
 0.43000000E+02  0.26369E-04
 0.43049999E+02  0.12634E-04
 0.43100002E+02 -0.10754E-04
 0.43150002E+02 -0.23146E-04
 0.43200001E+02 -0.21273E-04
 0.43250000E+02 -0.27104E-04
 0.43299999E+02 -0.21173E-04
 0.43350002E+02  0.12508E-05
 0.43400002E+02  0.15243E-04
 0.43450001E+02  0.32104E-04
 0.43500000E+02  0.45834E-04
 0.43549999E+02  0.38615E-04
 0.43600002E+02  0.19867E-04
 0.43650002E+02  0.46036E-06
 0.43700001E+02 -0.66918E-05
 0.43750000E+02 -0.90000E-05
 0.43799999E+02 -0.14720E-04
 0.43850002E+02 -0.12780E-04
 0.43900002E+02 -0.10270E-04
 0.43950001E+02 -0.19985E-05
 0.44000000E+02  0.59374E-05
 0.44049999E+02 -0.62042E-05
 0.44100002E+02 -0.30563E-04
 0.44150002E+02 -0.33497E-04
 0.44200001E+02 -0.69863E-05
 0.44250000E+02 -0.38684E-05
 0.44299999E+02 -0.15026E-04
 0.44350002E+02 -0.43017E-05
 0.44400002E+02  0.23423E-04
 0.44450001E+02  0.43913E-04
 0.44500000E+02  0.31678E-04
 0.44549999E+02  0.81029E-05
 0.44600002E+02 -0.83504E-05
 0.44650002E+02 -0.87030E-05
 0.44700001E+02 -0.33048E-05
 0.44750000E+02 -0.60854E-05
 0.44799999E+02 -0.12412E-04
 0.44850002E+02 -0.15476E-04
 0.44900002E+02 -0.37888E-05
 0.44950001E+02  0.59517E-05
 0.45000000E+02  0.72718E-05
 0.45049999E+02  0.42652E-05
 0.45100002E+02  0.12536E-05
 0.45150002E+02  0.13533E-05
 0.45200001E+02 -0.69547E-05
 0.45250000E+02 -0.93808E-05
 0.45299999E+02 -0.15338E-05
 0.45350002E+02 -0.41015E-05
 0.45400002E+02 -0.13513E-04
 0.45450001E+02 -0.10429E-04
 0.45500000E+02 -0.65668E-05
 0.45549999E+02 -0.49704E-05
 0.45600002E+02  0.14917E-04
 0.45650002E+02  0.41981E-04
 0.45700001E+02  0.53012E-04
 0.45750000E+02  0.39220E-04
 0.45799999E+02  0.58590E-05
 0.45850002E+02 -0.24907E-04
 0.45900002E+02 -0.31958E-04
 0.45950001E+02 -0.29179E-04
 0.46000000E+02 -0.25269E-04
 0.46049999E+02 -0.21206E-04
 0.46100002E+02 -0.14400E-04
 0.46150002E+02  0.11743E-04
 0.46200001E+02  0.31617E-04
 0.46250000E+02  0.28860E-04
 0.46299999E+02  0.10228E-04
 0.46350002E+02 -0.67359E-05
 0.46400002E+02  0.10232E-05
 0.46450001E+02  0.75533E-05
 0.46500000E+02 -0.10139E-04
 0.46549999E+02 -0.27805E-04
 0.46600002E+02 -0.13115E-04
 0.46650002E+02  0.48646E-05
 0.46700001E+02 -0.52303E-05
 0.46750000E+02 -0.19713E-04
 0.46799999E+02 -0.28709E-04
 0.46850002E+02 -0.22453E-04
 0.46900002E+02  0.10202E-04
 0.46950001E+02  0.39114E-04
 0.47000000E+02  0.33850E-04
 0.47049999E+02  0.21074E-04
 0.47100002E+02  0.12120E-04
 0.47150002E+02 -0.15399E-05
 0.47200001E+02 -0.12074E-05
 0.47250000E+02  0.24208E-05
 0.47299999E+02  0.93281E-06
 0.47350002E+02 -0.60329E-05
 0.47400002E+02 -0.13501E-04
 0.47450001E+02 -0.97883E-05
 0.47500000E+02 -0.98157E-05
 0.47549999E+02 -0.75615E-05
 0.47600002E+02  0.20425E-05
 0.47650002E+02  0.65994E-05
 0.47700001E+02  0.60420E-05
 0.47750000E+02  0.67028E-06
 0.47799999E+02 -0.61030E-05
 0.47850002E+02 -0.10062E-04
 0.47900002E+02 -0.14443E-04
 0.47950001E+02 -0.18762E-04
 0.48000000E+02 -0.90393E-05
 0.48049999E+02  0.10497E-04
 0.48100002E+02  0.20099E-04
 0.48150002E+02  0.24326E-04
 0.48200001E+02  0.29410E-04
 0.48250000E+02  0.20691E-04
 0.48299999E+02  0.16668E-05
 0.48350002E+02 -0.14132E-04
 0.48400002E+02 -0.18469E-04
 0.48450001E+02 -0.21377E-05
 0.48500000E+02  0.10381E-04
 0.48549999E+02  0.10624E-04
 0.48600002E+02  0.96981E-05
 0.48650002E+02  0.26462E-05
 0.48700001E+02  0.13082E-05
 0.48750000E+02 -0.93794E-06
 0.48799999E+02 -0.15681E-04
 0.48850002E+02 -0.24861E-04
 0.48900002E+02 -0.18353E-04
 0.48950001E+02 -0.11356E-04
 0.49000000E+02 -0.16029E-04
 0.49049999E+02 -0.13891E-04
 0.49100002E+02 -0.39951E-05
 0.49150002E+02 -0.32303E-05
 0.49200001E+02 -0.45788E-06
 0.49250000E+02  0.92919E-05
 0.49299999E+02  0.18202E-04
 0.49350002E+02  0.19856E-04
 0.49400002E+02  0.10439E-04
 0.49450001E+02  0.47620E-05
 0.49500000E+02  0.10189E-04
 0.49549999E+02  0.96523E-05
 0.49600002E+02  0.44032E-05
 0.49650002E+02  0.76885E-05
 0.49700001E+02  0.63880E-05
 0.49750000E+02 -0.61062E-05
 0.49799999E+02 -0.18801E-04
 0.49850002E+02 -0.19834E-04
 0.49900002E+02 -0.11349E-04
 0.49950001E+02 -0.18144E-07
 0.50000000E+02  0.17896E-04
 0.50049999E+02  0.28425E-04
 0.50100002E+02  0.25303E-04
 0.50150002E+02  0.11466E-04
 0.50200001E+02 -0.90225E-05
 0.50250000E+02 -0.21706E-04
 0.50299999E+02 -0.29270E-04
 0.50350002E+02 -0.34227E-04
 0.50400002E+02 -0.26726E-04
 0.50450001E+02 -0.60273E-05
 0.50500000E+02  0.13614E-04
 0.50549999E+02  0.17557E-04
 0.50600002E+02  0.14525E-04
 0.50650002E+02  0.16402E-04
 0.50700001E+02  0.85114E-05
 0.50750000E+02 -0.11125E-04
 0.50799999E+02 -0.19008E-04
 0.50850002E+02 -0.91758E-05
 0.50900002E+02  0.33356E-05
 0.50950001E+02  0.10750E-04
 0.51000000E+02  0.15122E-04
 0.51049999E+02  0.15103E-04
 0.51100002E+02  0.12008E-04
 0.51150002E+02  0.57098E-05
 0.51200001E+02 -0.11242E-05
 0.51250000E+02 -0.30748E-05
 0.51299999E+02 -0.77017E-06
 0.51350002E+02  0.38659E-05
 0.51400002E+02  0.19457E-05
 0.51450001E+02 -0.67764E-05
 0.51500000E+02 -0.16867E-04
 0.51549999E+02 -0.19062E-04
 0.51600002E+02 -0.70472E-05
 0.51650002E+02 -0.44366E-06
 0.51700001E+02 -0.61568E-05
 0.51750000E+02 -0.10848E-04
 0.51799999E+02 -0.92775E-05
 0.51850002E+02 -0.47214E-05
 0.51900002E+02 -0.27077E-05
 0.51950001E+02  0.40845E-06
 0.52000000E+02  0.52964E-05
 0.52049999E+02  0.21049E-05
 0.52100002E+02  0.49416E-06
 0.52150002E+02  0.10017E-04
 0.52200001E+02  0.17687E-04
 0.52250000E+02  0.16047E-04
 0.52299999E+02  0.46146E-05
 0.52350002E+02 -0.75467E-05
 0.52400002E+02 -0.95575E-05
 0.52450001E+02 -0.47956E-06
 0.52500000E+02  0.10492E-04
 0.52549999E+02  0.14726E-04
 0.52600002E+02  0.18884E-04
 0.52650002E+02  0.20997E-04
 0.52700001E+02  0.16773E-04
 0.52750000E+02  0.54630E-05
 0.52799999E+02 -0.72588E-05
 0.52850002E+02 -0.72005E-05
 0.52900002E+02 -0.96706E-05
 0.52950001E+02 -0.20837E-04
 0.53000000E+02 -0.25773E-04
 0.53049999E+02 -0.25052E-04
 0.53100002E+02 -0.12369E-04
 0.53150002E+02  0.56120E-05
 0.53200001E+02  0.84750E-05
 0.53250000E+02  0.21819E-05
 0.53299999E+02 -0.11381E-05
 0.53350002E+02 -0.44086E-05
 0.53400002E+02 -0.11344E-04
 0.53450001E+02 -0.14465E-04
 0.53500000E+02 -0.57261E-05
 0.53549999E+02  0.31248E-05
 0.53600002E+02  0.54762E-05
 0.53650002E+02  0.95309E-05
 0.53700001E+02  0.99724E-05
 0.53750000E+02  0.86100E-05
 0.53799999E+02  0.97814E-05
 0.53850002E+02  0.11950E-04
 0.53900002E+02  0.17439E-04
 0.53950001E+02  0.14614E-04
 0.54000000E+02  0.50295E-05
 0.54049999E+02 -0.12120E-05
 0.54100002E+02 -0.84251E-05
 0.54150002E+02 -0.14417E-04
 0.54200001E+02 -0.15076E-04
 0.54250000E+02 -0.15955E-04
 0.54299999E+02 -0.18403E-04
 0.54350002E+02 -0.12736E-04
 0.54400002E+02 -0.11347E-05
 0.54450001E+02  0.94617E-05
 0.54500000E+02  0.23891E-04
 0.54549999E+02  0.32465E-04
 0.54600002E+02  0.22383E-04
 0.54650002E+02  0.57155E-05
 0.54700001E+02 -0.91115E-05
 0.54750000E+02 -0.18026E-04
 0.54799999E+02 -0.14719E-04
 0.54850002E+02 -0.58640E-05
 0.54900002E+02  0.27960E-05
 0.54950001E+02  0.59124E-05
 0.55000000E+02  0.39706E-05
 0.55049999E+02  0.61460E-05
 0.55100002E+02  0.79800E-05
 0.55150002E+02  0.36936E-05
 0.55200001E+02 -0.17889E-05
 0.55250000E+02 -0.58729E-05
 0.55299999E+02 -0.51832E-05
 0.55350002E+02  0.12815E-05
 0.55400002E+02  0.48651E-05
 0.55450001E+02 -0.16887E-06
 0.55500000E+02 -0.84761E-05
 0.55549999E+02 -0.12194E-04
 0.55600002E+02 -0.11331E-04
 0.55650002E+02 -0.11611E-04
 0.55700001E+02 -0.11793E-04
 0.55750000E+02 -0.82423E-05
 0.55799999E+02 -0.44687E-05
 0.55850002E+02 -0.52221E-06
 0.55900002E+02  0.51347E-05
 0.55950001E+02  0.88836E-05
 0.56000000E+02  0.82209E-05
 0.56049999E+02  0.50265E-05
 0.56100002E+02  0.29088E-05
 0.56150002E+02  0.40291E-06
 0.56200001E+02 -0.22517E-05
 0.56250000E+02 -0.97272E-06
 0.56299999E+02  0.11247E-06
 0.56350002E+02  0.22804E-05
 0.56400002E+02  0.85586E-05
 0.56450001E+02  0.81939E-05
 0.56500000E+02 -0.12073E-05
 0.56549999E+02 -0.74112E-05
 0.56600002E+02 -0.60433E-05
 0.56650002E+02 -0.44005E-05
 0.56700001E+02 -0.15519E-05
 0.56750000E+02  0.32742E-05
 0.56799999E+02  0.16418E-05
 0.56850002E+02 -0.35074E-05
 0.56900002E+02 -0.23700E-05
 0.56950001E+02  0.57961E-05
 0.57000000E+02  0.10384E-04
 0.57049999E+02  0.76225E-05
 0.57100002E+02  0.39904E-05
 0.57150002E+02  0.23723E-05
 0.57200001E+02  0.39791E-05
 0.57250000E+02  0.30964E-05
 0.57299999E+02  0.88238E-06
 0.57350002E+02  0.21101E-05
 0.57400002E+02  0.23420E-05
 0.57450001E+02  0.13130E-05
 0.57500000E+02 -0.10881E-05
 0.57549999E+02 -0.60655E-05
 0.57600002E+02 -0.11863E-04
 0.57650002E+02 -0.13962E-04
 0.57700001E+02 -0.12293E-04
 0.57750000E+02 -0.93338E-05
 0.57799999E+02 -0.16671E-05
 0.57850002E+02  0.89905E-05
 0.57900002E+02  0.13600E-04
 0.57950001E+02  0.11038E-04
 0.58000000E+02  0.72220E-05
 0.58049999E+02  0.26671E-05
 0.58100002E+02 -0.29342E-05
 0.58150002E+02 -0.51571E-05
 0.58200001E+02 -0.37045E-05
 0.58250000E+02 -0.15012E-05
 0.58299999E+02  0.99404E-06
 0.58350002E+02 -0.47265E-06
 0.58400002E+02 -0.35188E-05
 0.58450001E+02 -0.18146E-05
 0.58500000E+02  0.93836E-06
 0.58549999E+02  0.20593E-05
 0.58600002E+02  0.21404E-05
 0.58650002E+02  0.22254E-05
 0.58700001E+02  0.18775E-05
 0.58750000E+02  0.26429E-06
 0.58799999E+02 -0.74553E-06
 0.58850002E+02 -0.15787E-05
 0.58900002E+02 -0.26308E-05
 0.58950001E+02 -0.41046E-05
 0.59000000E+02 -0.60752E-05
 0.59049999E+02 -0.31909E-05
 0.59100002E+02  0.48475E-05
 0.59150002E+02  0.11697E-04
 0.59200001E+02  0.14650E-04
 0.59250000E+02  0.90313E-05
 0.59299999E+02 -0.30703E-05
 0.59350002E+02 -0.10151E-04
 0.59400002E+02 -0.77681E-05
 0.59450001E+02 -0.90929E-06
 0.59500000E+02  0.17065E-05
 0.59549999E+02  0.13790E-05
 0.59600002E+02  0.16230E-05
 0.59650002E+02  0.53678E-06
 0.59700001E+02 -0.19198E-05
 0.59750000E+02 -0.72935E-05
 0.59799999E+02 -0.12876E-04
 0.59850002E+02 -0.13516E-04
 0.59900002E+02 -0.60817E-05
 0.59950001E+02  0.62678E-05
 0.60000000E+02  0.13027E-04
 0.60049999E+02  0.12765E-04
 0.60100002E+02  0.97450E-05
 0.60150002E+02  0.38718E-05
 0.60200001E+02 -0.26203E-05
 0.60250000E+02 -0.97930E-05
 0.60299999E+02 -0.14412E-04
 0.60350002E+02 -0.11345E-04
 0.60400002E+02 -0.53194E-05
 0.60450001E+02  0.12262E-05
 0.60500000E+02  0.47093E-05
 0.60549999E+02  0.31639E-05
 0.60600002E+02  0.27990E-05
 0.60650002E+02  0.68971E-05
 0.60700001E+02  0.13113E-04
 0.60750000E+02  0.15040E-04
 0.60799999E+02  0.11243E-04
 0.60850002E+02  0.77306E-05
 0.60900002E+02  0.49305E-05
 0.60950001E+02 -0.17732E-05
 0.61000000E+02 -0.86272E-05
 0.61049999E+02 -0.10265E-04
 0.61100002E+02 -0.81080E-05
 0.61150002E+02 -0.47078E-05
 0.61200001E+02 -0.24664E-05
 0.61250000E+02 -0.14903E-06
 0.61299999E+02  0.12891E-05
 0.61350002E+02 -0.32509E-05
 0.61400002E+02 -0.97346E-05
 0.61450001E+02 -0.14188E-04
 0.61500000E+02 -0.14893E-04
 0.61549999E+02 -0.76280E-05
 0.61600002E+02  0.20411E-05
 0.61650002E+02  0.77247E-05
 0.61700001E+02  0.11031E-04
 0.61750000E+02  0.11196E-04
 0.61799999E+02  0.56614E-05
 0.61850002E+02 -0.34300E-06
 0.61900002E+02 -0.11640E-05
 0.61950001E+02  0.10630E-05
 0.62000000E+02  0.15994E-05
 0.62049999E+02 -0.30538E-06
 0.62100002E+02 -0.58983E-06
 0.62150002E+02 -0.26014E-06
 0.62200001E+02  0.15057E-06
 0.62250000E+02  0.99427E-06
 0.62299999E+02 -0.18110E-05
 0.62350002E+02 -0.25602E-05
 0.62400002E+02  0.52126E-05
 0.62450001E+02  0.15566E-04
 0.62500000E+02  0.22394E-04
 0.62549999E+02  0.22303E-04
 0.62600002E+02  0.14254E-04
 0.62650002E+02  0.18300E-05
 0.62700001E+02 -0.10818E-04
 0.62750000E+02 -0.19117E-04
 0.62799999E+02 -0.22166E-04
 0.62850002E+02 -0.20507E-04
 0.62900002E+02 -0.14376E-04
 0.62950001E+02 -0.63987E-05
 0.63000000E+02  0.99862E-06
 0.63049999E+02  0.42972E-05
 0.63100002E+02  0.32632E-05
 0.63150002E+02 -0.36547E-06
 0.63200001E+02 -0.47229E-05
 0.63250000E+02 -0.74533E-05
 0.63299999E+02 -0.87277E-05
 0.63350002E+02 -0.57204E-05
 0.63400002E+02  0.11088E-05
 0.63450001E+02  0.67067E-05
 0.63500000E+02  0.10121E-04
 0.63549999E+02  0.10764E-04
 0.63600002E+02  0.10332E-04
 0.63650002E+02  0.92652E-05
 0.63700001E+02  0.50976E-05
 0.63750000E+02  0.13102E-06
 0.63799999E+02 -0.41159E-05
 0.63850002E+02 -0.71694E-05
 0.63900002E+02 -0.75223E-05
 0.63950001E+02 -0.44952E-05
 0.64000000E+02  0.59015E-06
 0.64050003E+02  0.46895E-05
 0.64099998E+02  0.70093E-05
 0.64150002E+02  0.53950E-05
 0.64200005E+02  0.59569E-06
 0.64250000E+02 -0.20818E-05
 0.64300003E+02 -0.17663E-05
 0.64349998E+02 -0.45728E-06
 0.64400002E+02  0.94897E-06
 0.64450005E+02  0.15413E-05
 0.64500000E+02  0.68934E-06
 0.64550003E+02 -0.65890E-06
 0.64599998E+02 -0.20373E-05
 0.64650002E+02 -0.35114E-05
 0.64700005E+02 -0.41598E-05
 0.64750000E+02 -0.35555E-05
 0.64800003E+02 -0.28450E-05
 0.64849998E+02 -0.17757E-05
 0.64900002E+02 -0.34832E-06
 0.64950005E+02  0.47962E-06
 0.65000000E+02 -0.19654E-06
 0.65050003E+02 -0.13964E-05
 0.65099998E+02  0.79574E-06
 0.65150002E+02  0.43873E-05
 0.65200005E+02  0.56880E-05
 0.65250000E+02  0.62911E-05
 0.65300003E+02  0.70337E-05
 0.65349998E+02  0.70655E-05
 0.65400002E+02  0.60602E-05
 0.65450005E+02  0.29646E-05
 0.65500000E+02 -0.10900E-05
 0.65550003E+02 -0.41424E-05
 0.65599998E+02 -0.52009E-05
 0.65650002E+02 -0.36680E-05
 0.65700005E+02 -0.28715E-05
 0.65750000E+02 -0.43011E-05
 0.65800003E+02 -0.71853E-05
 0.65849998E+02 -0.11954E-04
 0.65900002E+02 -0.15676E-04
 0.65950005E+02 -0.12486E-04
 0.66000000E+02 -0.27732E-05
 0.66050003E+02  0.50448E-05
 0.66099998E+02  0.76097E-05
 0.66150002E+02  0.76212E-05
 0.66200005E+02  0.71147E-05
 0.66250000E+02  0.69787E-05
 0.66300003E+02  0.56808E-05
 0.66349998E+02  0.40570E-05
 0.66400002E+02  0.45779E-05
 0.66450005E+02  0.69773E-05
 0.66500000E+02  0.94270E-05
 0.66550003E+02  0.85570E-05
 0.66599998E+02  0.38604E-05
 0.66650002E+02 -0.12106E-05
 0.66700005E+02 -0.45757E-05
 0.66750000E+02 -0.51147E-05
 0.66800003E+02 -0.38819E-05
 0.66849998E+02 -0.47800E-05
 0.66900002E+02 -0.79802E-05
 0.66950005E+02 -0.11207E-04
 0.67000000E+02 -0.12126E-04
 0.67050003E+02 -0.10639E-04
 0.67099998E+02 -0.72665E-05
 0.67150002E+02  0.22163E-06
 0.67200005E+02  0.73155E-05
 0.67250000E+02  0.96369E-05
 0.67300003E+02  0.10979E-04
 0.67349998E+02  0.11726E-04
 0.67400002E+02  0.11201E-04
 0.67450005E+02  0.88912E-05
 0.67500000E+02  0.33764E-05
 0.67550003E+02 -0.22473E-05
 0.67599998E+02 -0.67337E-05
 0.67650002E+02 -0.98016E-05
 0.67700005E+02 -0.10376E-04
 0.67750000E+02 -0.94058E-05
 0.67800003E+02 -0.72004E-05
 0.67849998E+02 -0.45663E-05
 0.67900002E+02 -0.29229E-05
 0.67950005E+02 -0.19897E-05
 0.68000000E+02 -0.26725E-06
 0.68050003E+02  0.19986E-05
 0.68099998E+02  0.40084E-05
 0.68150002E+02  0.53165E-05
 0.68200005E+02  0.63878E-05
 0.68250000E+02  0.82641E-05
 0.68300003E+02  0.85609E-05
 0.68349998E+02  0.64538E-05
 0.68400002E+02  0.44651E-05
 0.68450005E+02  0.28177E-05
 0.68500000E+02 -0.58929E-06
 0.68550003E+02 -0.59496E-05
 0.68599998E+02 -0.10835E-04
 0.68650002E+02 -0.12739E-04
 0.68700005E+02 -0.10223E-04
 0.68750000E+02 -0.53186E-05
 0.68800003E+02 -0.83172E-06
 0.68849998E+02  0.24209E-05
 0.68900002E+02  0.37736E-05
 0.68950005E+02  0.47513E-05
 0.69000000E+02  0.59089E-05
 0.69050003E+02  0.49622E-05
 0.69099998E+02  0.21895E-05
 0.69150002E+02 -0.20789E-06
 0.69200005E+02  0.10894E-06
 0.69250000E+02  0.31398E-05
 0.69300003E+02  0.59897E-05
 0.69349998E+02  0.74018E-05
 0.69400002E+02  0.78966E-05
 0.69450005E+02  0.65091E-05
 0.69500000E+02  0.31041E-05
 0.69550003E+02 -0.95469E-06
 0.69599998E+02 -0.48157E-05
 0.69650002E+02 -0.65942E-05
 0.69700005E+02 -0.60807E-05
 0.69750000E+02 -0.47200E-05
 0.69800003E+02 -0.34308E-05
 0.69849998E+02 -0.26308E-05
 0.69900002E+02 -0.25434E-05
 0.69950005E+02 -0.32710E-05
 0.70000000E+02 -0.58159E-05
 0.70050003E+02 -0.92262E-05
 0.70099998E+02 -0.87069E-05
 0.70150002E+02 -0.43791E-05
 0.70200005E+02  0.12898E-05
 0.70250000E+02  0.62546E-05
 0.70300003E+02  0.80767E-05
 0.70349998E+02  0.78017E-05
 0.70400002E+02  0.68241E-05
 0.70450005E+02  0.60233E-05
 0.70500000E+02  0.43614E-05
 0.70550003E+02  0.10109E-05
 0.70599998E+02 -0.21696E-05
 0.70650002E+02 -0.45177E-05
 0.70700005E+02 -0.57026E-05
 0.70750000E+02 -0.49379E-05
 0.70800003E+02 -0.25647E-05
 0.70849998E+02 -0.68350E-06
 0.70900002E+02 -0.60754E-06
 0.70950005E+02 -0.10491E-05
 0.71000000E+02 -0.13252E-05
 0.71050003E+02 -0.14157E-07
 0.71099998E+02  0.39377E-05
 0.71150002E+02  0.71880E-05
 0.71200005E+02  0.76780E-05
 0.71250000E+02  0.64399E-05
 0.71300003E+02  0.34897E-05
 0.71349998E+02 -0.16387E-06
 0.71400002E+02 -0.28792E-05
 0.71450005E+02 -0.51798E-05
 0.71500000E+02 -0.67483E-05
 0.71550003E+02 -0.64136E-05
 0.71599998E+02 -0.49749E-05
 0.71650002E+02 -0.35492E-05
 0.71700005E+02 -0.15287E-05
 0.71750000E+02  0.96412E-06
 0.71800003E+02  0.28448E-05
 0.71849998E+02  0.45532E-05
 0.71900002E+02  0.59701E-05
 0.71950005E+02  0.63918E-05
 0.72000000E+02  0.55992E-05
 0.72050003E+02  0.38105E-05
 0.72099998E+02  0.23244E-05
 0.72150002E+02  0.67380E-06
 0.72200005E+02 -0.23624E-05
 0.72250000E+02 -0.51336E-05
 0.72300003E+02 -0.66277E-05
 0.72349998E+02 -0.68423E-05
 0.72400002E+02 -0.56038E-05
 0.72450005E+02 -0.40358E-05
 0.72500000E+02 -0.19789E-05
 0.72550003E+02 -0.60009E-06
 0.72599998E+02 -0.12766E-05
 0.72650002E+02 -0.14909E-05
 0.72700005E+02  0.30655E-07
 0.72750000E+02  0.27903E-05
 0.72800003E+02  0.60391E-05
 0.72849998E+02  0.85341E-05
 0.72900002E+02  0.91188E-05
 0.72950005E+02  0.74879E-05
 0.73000000E+02  0.49689E-05
 0.73050003E+02  0.13720E-05
 0.73099998E+02 -0.40299E-05
 0.73150002E+02 -0.85051E-05
 0.73200005E+02 -0.92377E-05
 0.73250000E+02 -0.75490E-05
 0.73300003E+02 -0.53651E-05
 0.73349998E+02 -0.27129E-05
 0.73400002E+02 -0.11374E-06
 0.73450005E+02  0.19002E-05
 0.73500000E+02  0.28347E-05
 0.73550003E+02  0.25578E-05
 0.73599998E+02  0.19320E-05
 0.73650002E+02  0.79226E-06
 0.73700005E+02 -0.37969E-06
 0.73750000E+02 -0.11742E-05
 0.73800003E+02 -0.22501E-05
 0.73849998E+02 -0.22540E-05
 0.73900002E+02 -0.10741E-05
 0.73950005E+02 -0.15819E-06
 0.74000000E+02  0.12711E-05
 0.74050003E+02  0.28130E-05
 0.74099998E+02  0.32682E-05
 0.74150002E+02  0.37923E-05
 0.74200005E+02  0.43844E-05
 0.74250000E+02  0.44156E-05
 0.74300003E+02  0.43753E-05
 0.74349998E+02  0.41485E-05
 0.74400002E+02  0.40915E-05
 0.74450005E+02  0.43455E-05
 0.74500000E+02  0.28759E-05
 0.74550003E+02 -0.84040E-06
 0.74599998E+02 -0.40884E-05
 0.74650002E+02 -0.60532E-05
 0.74700005E+02 -0.71041E-05
 0.74750000E+02 -0.85684E-05
 0.74800003E+02 -0.10498E-04
 0.74849998E+02 -0.97448E-05
 0.74900002E+02 -0.65795E-05
 0.74950005E+02 -0.19655E-05
 0.75000000E+02  0.28203E-05
 0.75050003E+02  0.61657E-05
 0.75099998E+02  0.83489E-05
 0.75150002E+02  0.93536E-05
 0.75200005E+02  0.97885E-05
 0.75250000E+02  0.84175E-05
 0.75300003E+02  0.46582E-05
 0.75349998E+02  0.61057E-06
 0.75400002E+02 -0.22834E-05
 0.75450005E+02 -0.37867E-05
 0.75500000E+02 -0.50964E-05
 0.75550003E+02 -0.62427E-05
 0.75599998E+02 -0.61891E-05
 0.75650002E+02 -0.48174E-05
 0.75700005E+02 -0.27597E-05
 0.75750000E+02 -0.17151E-05
 0.75800003E+02 -0.21314E-05
 0.75849998E+02 -0.30669E-05
 0.75900002E+02 -0.34273E-05
 0.75950005E+02 -0.19688E-05
 0.76000000E+02  0.73621E-06
 0.76050003E+02  0.35326E-05
 0.76099998E+02  0.61235E-05
 0.76150002E+02  0.77835E-05
 0.76200005E+02  0.72910E-05
 0.76250000E+02  0.46981E-05
 0.76300003E+02  0.11934E-05
 0.76349998E+02 -0.13756E-05
 0.76400002E+02 -0.86675E-06
 0.76450005E+02  0.72569E-06
 0.76500000E+02  0.93479E-06
 0.76550003E+02 -0.26741E-06
 0.76599998E+02 -0.27852E-05
 0.76650002E+02 -0.42889E-05
 0.76700005E+02 -0.39934E-05
 0.76750000E+02 -0.33430E-05
 0.76800003E+02 -0.30799E-05
 0.76849998E+02 -0.33511E-05
 0.76900002E+02 -0.30384E-05
 0.76950005E+02 -0.16108E-05
 0.77000000E+02 -0.23776E-06
 0.77050003E+02  0.84870E-06
 0.77099998E+02  0.26703E-05
 0.77150002E+02  0.39179E-05
 0.77200005E+02  0.29684E-05
 0.77250000E+02  0.13778E-05
 0.77300003E+02  0.11171E-05
 0.77349998E+02  0.19334E-05
 0.77400002E+02  0.21443E-05
 0.77450005E+02  0.83840E-06
 0.77500000E+02 -0.88191E-06
 0.77550003E+02 -0.18031E-05
 0.77599998E+02 -0.17009E-05
 0.77650002E+02 -0.56758E-07
 0.77700005E+02  0.14181E-05
 0.77750000E+02  0.85639E-06
 0.77800003E+02 -0.32777E-06
 0.77849998E+02 -0.78739E-06
 0.77900002E+02 -0.48990E-07
 0.77950005E+02  0.64125E-06
 0.78000000E+02  0.60088E-06
 0.78050003E+02  0.16402E-05
 0.78099998E+02  0.36230E-05
 0.78150002E+02  0.48280E-05
 0.78200005E+02  0.43427E-05
 0.78250000E+02  0.20450E-05
 0.78300003E+02 -0.59935E-06
 0.78349998E+02 -0.21139E-05
 0.78400002E+02 -0.29075E-05
 0.78450005E+02 -0.40058E-05
 0.78500000E+02 -0.53714E-05
 0.78550003E+02 -0.53802E-05
 0.78599998E+02 -0.31840E-05
 0.78650002E+02  0.44103E-06
 0.78700005E+02  0.37409E-05
 0.78750000E+02  0.46076E-05
 0.78800003E+02  0.34089E-05
 0.78849998E+02  0.15163E-05
 0.78900002E+02 -0.56908E-06
 0.78950005E+02 -0.24726E-05
 0.79000000E+02 -0.43693E-05
 0.79050003E+02 -0.50948E-05
 0.79099998E+02 -0.36509E-05
 0.79150002E+02 -0.14850E-05
 0.79200005E+02  0.44888E-06
 0.79250000E+02  0.20849E-05
 0.79300003E+02  0.31822E-05
 0.79349998E+02  0.32380E-05
 0.79400002E+02  0.21511E-05
 0.79450005E+02  0.81318E-06
 0.79500000E+02 -0.33487E-06
 0.79550003E+02 -0.10041E-05
 0.79599998E+02 -0.11625E-05
 0.79650002E+02 -0.12379E-05
 0.79700005E+02 -0.43074E-06
 0.79750000E+02  0.80298E-06
 0.79800003E+02  0.10907E-05
 0.79849998E+02  0.12872E-05
 0.79900002E+02  0.17294E-05
 0.79950005E+02  0.21303E-05
 0.80000000E+02  0.24192E-05
 0.80050003E+02  0.23978E-05
 0.80099998E+02  0.23071E-05
 0.80150002E+02  0.13160E-05
 0.80200005E+02 -0.47449E-06
 0.80250000E+02 -0.19784E-05
 0.80300003E+02 -0.32230E-05
 0.80349998E+02 -0.41387E-05
 0.80400002E+02 -0.47893E-05
 0.80450005E+02 -0.51295E-05
 0.80500000E+02 -0.50015E-05
 0.80550003E+02 -0.45298E-05
 0.80599998E+02 -0.36878E-05
 0.80650002E+02 -0.18832E-05
 0.80700005E+02  0.14461E-05
 0.80750000E+02  0.50556E-05
 0.80800003E+02  0.74848E-05
 0.80849998E+02  0.82243E-05
 0.80900002E+02  0.70867E-05
 0.80950005E+02  0.51246E-05
 0.81000000E+02  0.31274E-05
 0.81050003E+02  0.79722E-06
 0.81099998E+02 -0.13511E-05
 0.81150002E+02 -0.26903E-05
 0.81200005E+02 -0.31655E-05
 0.81250000E+02 -0.25340E-05
 0.81300003E+02 -0.12720E-05
 0.81349998E+02 -0.28172E-06
 0.81400002E+02  0.82233E-06
 0.81450005E+02  0.15929E-05
 0.81500000E+02  0.93596E-06
 0.81550003E+02 -0.75235E-06
 0.81599998E+02 -0.26041E-05
 0.81650002E+02 -0.34016E-05
 0.81700005E+02 -0.33144E-05
 0.81750000E+02 -0.31676E-05
 0.81800003E+02 -0.26892E-05
 0.81849998E+02 -0.11929E-05
 0.81900002E+02  0.12968E-05
 0.81950005E+02  0.32347E-05
 0.82000000E+02  0.38037E-05
 0.82050003E+02  0.33139E-05
 0.82099998E+02  0.20578E-05
 0.82150002E+02  0.24127E-06
 0.82200005E+02 -0.15138E-05
 0.82250000E+02 -0.25718E-05
 0.82300003E+02 -0.32480E-05
 0.82349998E+02 -0.42201E-05
 0.82400002E+02 -0.48863E-05
 0.82450005E+02 -0.39981E-05
 0.82500000E+02 -0.19650E-05
 0.82550003E+02  0.92639E-07
 0.82599998E+02  0.18374E-05
 0.82650002E+02  0.34415E-05
 0.82700005E+02  0.40696E-05
 0.82750000E+02  0.33945E-05
 0.82800003E+02  0.18742E-05
 0.82849998E+02 -0.64002E-07
 0.82900002E+02 -0.55012E-06
 0.82950005E+02  0.52088E-06
 0.83000000E+02  0.21197E-05
 0.83050003E+02  0.34669E-05
 0.83099998E+02  0.30774E-05
 0.83150002E+02  0.15948E-05
 0.83200005E+02  0.28106E-06
 0.83250000E+02 -0.13158E-05
 0.83300003E+02 -0.26894E-05
 0.83349998E+02 -0.27390E-05
 0.83400002E+02 -0.13833E-05
 0.83450005E+02  0.10212E-05
 0.83500000E+02  0.31517E-05
 0.83550003E+02  0.41507E-05
 0.83599998E+02  0.39471E-05
 0.83650002E+02  0.24865E-05
 0.83700005E+02 -0.10498E-06
 0.83750000E+02 -0.30628E-05
 0.83800003E+02 -0.45200E-05
 0.83849998E+02 -0.43686E-05
 0.83900002E+02 -0.36354E-05
 0.83950005E+02 -0.25715E-05
 0.84000000E+02 -0.19208E-05
 0.84050003E+02 -0.16707E-05
 0.84099998E+02 -0.92879E-06
 0.84150002E+02  0.50132E-06
 0.84200005E+02  0.19248E-05
 0.84250000E+02  0.27313E-05
 0.84300003E+02  0.27416E-05
 0.84349998E+02  0.17591E-05
 0.84400002E+02  0.21966E-06
 0.84450005E+02 -0.13115E-05
 0.84500000E+02 -0.22546E-05
 0.84550003E+02 -0.17955E-05
 0.84599998E+02 -0.10552E-06
 0.84650002E+02  0.17193E-05
 0.84700005E+02  0.25771E-05
 0.84750000E+02  0.21953E-05
 0.84800003E+02  0.15410E-05
 0.84849998E+02  0.14291E-05
 0.84900002E+02  0.16909E-05
 0.84950005E+02  0.17744E-05
 0.85000000E+02  0.14358E-05
 0.85050003E+02  0.12414E-05
 0.85099998E+02  0.11355E-05
 0.85150002E+02  0.44598E-06
 0.85200005E+02 -0.42670E-06
 0.85250000E+02 -0.12595E-05
 0.85300003E+02 -0.23884E-05
 0.85349998E+02 -0.34940E-05
 0.85400002E+02 -0.42777E-05
 0.85450005E+02 -0.48531E-05
 0.85500000E+02 -0.49082E-05
 0.85550003E+02 -0.33568E-05
 0.85599998E+02 -0.84632E-06
 0.85650002E+02  0.48295E-06
 0.85700005E+02  0.63090E-06
 0.85750000E+02  0.41001E-06
 0.85800003E+02  0.34785E-06
 0.85849998E+02  0.60171E-06
 0.85900002E+02  0.69094E-06
 0.85950005E+02  0.10202E-05
 0.86000000E+02  0.16319E-05
 0.86050003E+02  0.20292E-05
 0.86099998E+02  0.23484E-05
 0.86150002E+02  0.22822E-05
 0.86200005E+02  0.14662E-05
 0.86250000E+02  0.64474E-06
 0.86300003E+02  0.31698E-06
 0.86349998E+02 -0.25769E-07
 0.86400002E+02 -0.95307E-07
 0.86450005E+02  0.37387E-06
 0.86500000E+02  0.99564E-06
 0.86550003E+02  0.18523E-05
 0.86599998E+02  0.25555E-05
 0.86650002E+02  0.30036E-05
 0.86700005E+02  0.31897E-05
 0.86750000E+02  0.26003E-05
 0.86800003E+02  0.83351E-06
 0.86849998E+02 -0.22391E-05
 0.86900002E+02 -0.52427E-05
 0.86950005E+02 -0.71261E-05
 0.87000000E+02 -0.78623E-05
 0.87050003E+02 -0.69929E-05
 0.87099998E+02 -0.48361E-05
 0.87150002E+02 -0.24546E-05
 0.87200005E+02 -0.31769E-06
 0.87250000E+02  0.13766E-05
 0.87300003E+02  0.22480E-05
 0.87349998E+02  0.24257E-05
 0.87400002E+02  0.22540E-05
 0.87450005E+02  0.20356E-05
 0.87500000E+02  0.21673E-05
 0.87550003E+02  0.25393E-05
 0.87599998E+02  0.31308E-05
 0.87650002E+02  0.40247E-05
 0.87700005E+02  0.45313E-05
 0.87750000E+02  0.43513E-05
 0.87800003E+02  0.35628E-05
 0.87849998E+02  0.20015E-05
 0.87900002E+02  0.43163E-06
 0.87950005E+02 -0.70430E-06
 0.88000000E+02 -0.16198E-05
 0.88050003E+02 -0.16365E-05
 0.88099998E+02 -0.12742E-05
 0.88150002E+02 -0.18725E-05
 0.88200005E+02 -0.28269E-05
 0.88250000E+02 -0.33310E-05
 0.88300003E+02 -0.31015E-05
 0.88349998E+02 -0.20791E-05
 0.88400002E+02 -0.12545E-05
 0.88450005E+02 -0.11085E-05
 0.88500000E+02 -0.10813E-05
 0.88550003E+02 -0.73269E-06
 0.88599998E+02 -0.77617E-07
 0.88650002E+02  0.63442E-06
 0.88700005E+02  0.12183E-05
 0.88750000E+02  0.12190E-05
 0.88800003E+02  0.49384E-06
 0.88849998E+02 -0.41066E-06
 0.88900002E+02 -0.11948E-05
 0.88950005E+02 -0.16125E-05
 0.89000000E+02 -0.14322E-05
 0.89050003E+02 -0.12137E-05
 0.89099998E+02 -0.15331E-05
 0.89150002E+02 -0.19278E-05
 0.89200005E+02 -0.15556E-05
 0.89250000E+02 -0.25509E-06
 0.89300003E+02  0.14032E-05
 0.89349998E+02  0.29234E-05
 0.89400002E+02  0.39364E-05
 0.89450005E+02  0.41750E-05
 0.89500000E+02  0.38296E-05
 0.89550003E+02  0.33730E-05
 0.89599998E+02  0.31453E-05
 0.89650002E+02  0.27090E-05
 0.89700005E+02  0.15027E-05
 0.89750000E+02 -0.38192E-06
 0.89800003E+02 -0.22994E-05
 0.89849998E+02 -0.34431E-05
 0.89900002E+02 -0.35727E-05
 0.89950005E+02 -0.28124E-05
 0.90000000E+02 -0.17681E-05
 0.90050003E+02 -0.81279E-06
 0.90099998E+02  0.31803E-06
 0.90150002E+02  0.88145E-06
 0.90200005E+02  0.39306E-06
 0.90250000E+02 -0.28511E-06
 0.90300003E+02 -0.58868E-06
 0.90349998E+02 -0.45018E-06
 0.90400002E+02 -0.12508E-06
 0.90450005E+02  0.57240E-07
 0.90500000E+02  0.82608E-07
 0.90550003E+02 -0.22943E-06
 0.90599998E+02 -0.70194E-06
 0.90650002E+02 -0.68934E-06
 0.90700005E+02 -0.49380E-06
 0.90750000E+02 -0.51831E-06
 0.90800003E+02 -0.29205E-06
 0.90849998E+02  0.32373E-06
 0.90900002E+02  0.10550E-05
 0.90950005E+02  0.16342E-05
 0.91000000E+02  0.17970E-05
 0.91050003E+02  0.14093E-05
 0.91099998E+02  0.49563E-06
 0.91150002E+02 -0.50815E-06
 0.91200005E+02 -0.83245E-06
 0.91250000E+02 -0.41134E-06
 0.91300003E+02  0.93686E-08
 0.91349998E+02  0.83239E-07
 0.91400002E+02 -0.21270E-06
 0.91450005E+02 -0.92006E-06
 0.91500000E+02 -0.15296E-05
 0.91550003E+02 -0.15959E-05
 0.91599998E+02 -0.13634E-05
 0.91650002E+02 -0.10267E-05
 0.91700005E+02 -0.73927E-06
 0.91750000E+02 -0.65660E-06
 0.91800003E+02 -0.53353E-06
 0.91849998E+02 -0.70667E-07
 0.91900002E+02  0.51333E-06
 0.91950005E+02  0.91701E-06
 0.92000000E+02  0.14255E-05
 0.92050003E+02  0.19935E-05
 0.92099998E+02  0.20446E-05
 0.92150002E+02  0.13632E-05
 0.92200005E+02  0.18095E-06
 0.92250000E+02 -0.10280E-05
 0.92300003E+02 -0.16883E-05
 0.92349998E+02 -0.12580E-05
 0.92400002E+02  0.42114E-06
 0.92450005E+02  0.23893E-05
 0.92500000E+02  0.34320E-05
 0.92550003E+02  0.33938E-05
 0.92599998E+02  0.25152E-05
 0.92650002E+02  0.12604E-05
 0.92700005E+02  0.12994E-06
 0.92750000E+02 -0.72567E-06
 0.92800003E+02 -0.12103E-05
 0.92849998E+02 -0.11824E-05
 0.92900002E+02 -0.85324E-06
 0.92950005E+02 -0.64842E-06
 0.93000000E+02 -0.58864E-06
 0.93050003E+02 -0.76600E-06
 0.93099998E+02 -0.11752E-05
 0.93150002E+02 -0.18028E-05
 0.93200005E+02 -0.25860E-05
 0.93250000E+02 -0.26548E-05
 0.93300003E+02 -0.16216E-05
 0.93349998E+02 -0.50163E-06
 0.93400002E+02 -0.41046E-06
 0.93450005E+02 -0.13041E-05
 0.93500000E+02 -0.22008E-05
 0.93550003E+02 -0.21491E-05
 0.93599998E+02 -0.12312E-05
 0.93650002E+02 -0.83752E-07
 0.93700005E+02  0.10780E-05
 0.93750000E+02  0.22123E-05
 0.93800003E+02  0.29857E-05
 0.93849998E+02  0.29170E-05
 0.93900002E+02  0.24258E-05
 0.93950005E+02  0.19819E-05
 0.94000000E+02  0.15162E-05
 0.94050003E+02  0.13424E-05
 0.94099998E+02  0.15798E-05
 0.94150002E+02  0.18266E-05
 0.94200005E+02  0.17168E-05
 0.94250000E+02  0.10353E-05
 0.94300003E+02 -0.81305E-08
 0.94349998E+02 -0.63250E-06
 0.94400002E+02 -0.69131E-06
 0.94450005E+02 -0.72680E-06
 0.94500000E+02 -0.89713E-06
 0.94550003E+02 -0.80876E-06
 0.94599998E+02 -0.36147E-06
 0.94650002E+02 -0.83433E-07
 0.94700005E+02 -0.31546E-06
 0.94750000E+02 -0.92471E-06
 0.94800003E+02 -0.14310E-05
 0.94849998E+02 -0.13857E-05
 0.94900002E+02 -0.70858E-06
 0.94950005E+02 -0.59362E-07
 0.95000000E+02  0.38244E-07
 0.95050003E+02 -0.91585E-07
 0.95099998E+02 -0.49010E-06
 0.95150002E+02 -0.10170E-05
 0.95200005E+02 -0.12779E-05
 0.95250000E+02 -0.13257E-05
 0.95300003E+02 -0.99442E-06
 0.95349998E+02 -0.51712E-06
 0.95400002E+02 -0.25338E-06
 0.95450005E+02 -0.27498E-06
 0.95500000E+02 -0.61553E-06
 0.95550003E+02 -0.80553E-06
 0.95599998E+02 -0.64550E-06
 0.95650002E+02 -0.33228E-06
 0.95700005E+02 -0.63093E-07
 0.95750000E+02 -0.22458E-06
 0.95800003E+02 -0.66662E-06
 0.95849998E+02 -0.70768E-06
 0.95900002E+02 -0.15842E-06
 0.95950005E+02  0.66454E-06
 0.96000000E+02  0.13199E-05
 0.96050003E+02  0.17036E-05
 0.96099998E+02  0.20450E-05
 0.96150002E+02  0.22343E-05
 0.96200005E+02  0.20081E-05
 0.96250000E+02  0.14388E-05
 0.96300003E+02  0.98165E-06
 0.96349998E+02  0.87237E-06
 0.96400002E+02  0.93395E-06
 0.96450005E+02  0.99029E-06
 0.96500000E+02  0.86364E-06
 0.96550003E+02  0.37524E-06
 0.96599998E+02 -0.13412E-06
 0.96650002E+02 -0.17862E-06
 0.96700005E+02  0.20862E-07
 0.96750000E+02  0.23502E-06
 0.96800003E+02  0.25648E-06
 0.96849998E+02 -0.27153E-07
 0.96900002E+02 -0.38571E-06
 0.96950005E+02 -0.62701E-06
 0.97000000E+02 -0.57149E-06
 0.97050003E+02 -0.47782E-06
 0.97099998E+02 -0.63627E-06
 0.97150002E+02 -0.11041E-05
 0.97200005E+02 -0.15894E-05
 0.97250000E+02 -0.16166E-05
 0.97300003E+02 -0.12706E-05
 0.97349998E+02 -0.90478E-06
 0.97400002E+02 -0.70432E-06
 0.97450005E+02 -0.46330E-06
 0.97500000E+02 -0.14854E-06
 0.97550003E+02  0.23732E-06
 0.97599998E+02  0.73690E-06
 0.97650002E+02  0.92752E-06
 0.97700005E+02  0.70875E-06
 0.97750000E+02  0.46305E-07
 0.97800003E+02 -0.87998E-06
 0.97849998E+02 -0.13912E-05
 0.97900002E+02 -0.10610E-05
 0.97950005E+02  0.44335E-08
 0.98000000E+02  0.96605E-06
 0.98050003E+02  0.13429E-05
 0.98099998E+02  0.12533E-05
 0.98150002E+02  0.72832E-06
 0.98200005E+02  0.21967E-07
 0.98250000E+02 -0.25842E-06
 0.98300003E+02  0.93538E-07
 0.98349998E+02  0.70262E-06
 0.98400002E+02  0.12416E-05
 0.98450005E+02  0.14041E-05
 0.98500000E+02  0.12417E-05
 0.98550003E+02  0.79837E-06
 0.98599998E+02  0.15654E-06
 0.98650002E+02 -0.56831E-06
 0.98700005E+02 -0.15635E-05
 0.98750000E+02 -0.23638E-05
 0.98800003E+02 -0.25270E-05
 0.98849998E+02 -0.20806E-05
 0.98900002E+02 -0.12087E-05
 0.98950005E+02 -0.59866E-06
 0.99000000E+02 -0.48499E-06
 0.99050003E+02 -0.51642E-06
 0.99099998E+02 -0.50281E-06
 0.99150002E+02 -0.15755E-08
 0.99200005E+02  0.91404E-06
 0.99250000E+02  0.15819E-05
 0.99300003E+02  0.18443E-05
 0.99349998E+02  0.21086E-05
 0.99400002E+02  0.25589E-05
 0.99450005E+02  0.26573E-05
 0.99500000E+02  0.23630E-05
 0.99550003E+02  0.17501E-05
 0.99599998E+02  0.76929E-06
 0.99650002E+02 -0.28837E-06
 0.99700005E+02 -0.12575E-05
 0.99750000E+02 -0.14970E-05
 0.99800003E+02 -0.89383E-06
 0.99849998E+02 -0.37298E-06
 0.99900002E+02 -0.16022E-06
 0.99950005E+02 -0.25916E-06
 0.10000000E+03 -0.82849E-06
