 0.00000000E+00  0.51959E-07
 0.50000001E-01  0.44319E-07
 0.10000000E+00 -0.22764E-06
 0.15000001E+00 -0.17756E-06
 0.20000000E+00  0.69951E-07
 0.25000000E+00  0.37223E-07
 0.30000001E+00 -0.12933E-06
 0.34999999E+00 -0.42635E-08
 0.40000001E+00  0.48284E-07
 0.45000002E+00 -0.87376E-07
 0.50000000E+00 -0.37522E-07
 0.55000001E+00  0.27624E-06
 0.60000002E+00  0.16760E-06
 0.65000004E+00 -0.22996E-06
 0.69999999E+00  0.23618E-07
 0.75000000E+00  0.40513E-07
 0.80000001E+00 -0.13139E-06
 0.85000002E+00  0.18262E-06
 0.90000004E+00  0.46736E-06
 0.94999999E+00  0.25091E-06
 0.10000000E+01 -0.18556E-06
 0.10500001E+01 -0.21607E-07
 0.11000000E+01  0.61096E-07
 0.11500000E+01 -0.71529E-07
 0.12000000E+01  0.21577E-06
 0.12500000E+01  0.37123E-06
 0.13000001E+01  0.70461E-08
 0.13500000E+01 -0.22709E-06
 0.14000000E+01  0.11070E-06
 0.14500000E+01  0.11478E-06
 0.15000000E+01 -0.34390E-07
 0.15500001E+01  0.58046E-06
 0.16000000E+01  0.88361E-06
 0.16500000E+01  0.40749E-06
 0.17000000E+01  0.32526E-06
 0.17500000E+01  0.50226E-06
 0.18000001E+01  0.32083E-06
 0.18500000E+01  0.19398E-06
 0.19000000E+01  0.65968E-06
 0.19500000E+01  0.11052E-05
 0.20000000E+01  0.73444E-06
 0.20500000E+01  0.66550E-06
 0.21000001E+01  0.97389E-06
 0.21500001E+01  0.49389E-06
 0.22000000E+01 -0.52218E-07
 0.22500000E+01  0.87995E-07
 0.23000000E+01 -0.10665E-06
 0.23500001E+01 -0.63026E-06
 0.24000001E+01 -0.12750E-06
 0.24500000E+01  0.17846E-06
 0.25000000E+01 -0.35504E-06
 0.25500000E+01 -0.50829E-06
 0.26000001E+01 -0.51228E-06
 0.26500001E+01 -0.75119E-06
 0.27000000E+01 -0.84661E-06
 0.27500000E+01 -0.22115E-06
 0.28000000E+01  0.30341E-06
 0.28500001E+01 -0.31633E-06
 0.29000001E+01 -0.79023E-06
 0.29500000E+01 -0.53932E-06
 0.30000000E+01 -0.74751E-06
 0.30500000E+01 -0.77134E-06
 0.31000001E+01 -0.29695E-06
 0.31500001E+01 -0.19033E-06
 0.32000000E+01 -0.54710E-06
 0.32500000E+01 -0.77652E-06
 0.33000000E+01 -0.28082E-06
 0.33500001E+01 -0.40878E-06
 0.34000001E+01 -0.71896E-06
 0.34500000E+01 -0.22547E-07
 0.35000000E+01  0.20697E-06
 0.35500000E+01 -0.17291E-06
 0.36000001E+01  0.36508E-07
 0.36500001E+01  0.31300E-06
 0.37000000E+01 -0.13055E-06
 0.37500000E+01 -0.18304E-06
 0.38000000E+01  0.21552E-06
 0.38500001E+01  0.25398E-06
 0.39000001E+01  0.15258E-06
 0.39500000E+01  0.18859E-06
 0.40000000E+01  0.43202E-06
 0.40500002E+01  0.48343E-06
 0.40999999E+01  0.17461E-06
 0.41500001E+01  0.36604E-06
 0.42000003E+01  0.47087E-06
 0.42500000E+01 -0.12475E-06
 0.43000002E+01  0.19958E-06
 0.43499999E+01  0.41828E-06
 0.44000001E+01 -0.58676E-08
 0.44500003E+01 -0.11382E-07
 0.45000000E+01  0.14000E-07
 0.45500002E+01  0.13099E-06
 0.45999999E+01  0.49110E-07
 0.46500001E+01  0.14413E-06
 0.47000003E+01  0.13367E-06
 0.47500000E+01 -0.30131E-06
 0.48000002E+01 -0.34222E-06
 0.48499999E+01  0.43461E-07
 0.49000001E+01  0.32806E-06
 0.49500003E+01  0.22201E-06
 0.50000000E+01  0.28637E-06
 0.50500002E+01  0.12388E-06
 0.50999999E+01 -0.49055E-06
 0.51500001E+01 -0.68609E-06
 0.52000003E+01 -0.12755E-06
 0.52500000E+01  0.42804E-06
 0.53000002E+01  0.62141E-06
 0.53499999E+01  0.70315E-06
 0.54000001E+01  0.36049E-06
 0.54500003E+01 -0.11483E-06
 0.55000000E+01 -0.40535E-06
 0.55500002E+01  0.13706E-07
 0.55999999E+01  0.45194E-06
 0.56500001E+01  0.48412E-06
 0.57000003E+01  0.42004E-06
 0.57500000E+01  0.15024E-08
 0.58000002E+01 -0.46944E-06
 0.58499999E+01 -0.57975E-06
 0.59000001E+01 -0.40006E-07
 0.59500003E+01 -0.85240E-07
 0.60000000E+01  0.11154E-06
 0.60500002E+01  0.14859E-06
 0.60999999E+01  0.45855E-07
 0.61500001E+01 -0.79730E-07
 0.62000003E+01 -0.60067E-06
 0.62500000E+01  0.27822E-06
 0.63000002E+01 -0.42794E-06
 0.63499999E+01 -0.54222E-06
 0.64000001E+01  0.67170E-06
 0.64500003E+01  0.40468E-06
 0.65000000E+01  0.11944E-06
 0.65500002E+01 -0.29586E-06
 0.65999999E+01 -0.68483E-06
 0.66500001E+01 -0.97093E-06
 0.67000003E+01 -0.43487E-06
 0.67500000E+01  0.47851E-06
 0.68000002E+01  0.45304E-06
 0.68499999E+01 -0.18651E-06
 0.69000001E+01  0.12732E-06
 0.69500003E+01 -0.21245E-06
 0.70000000E+01 -0.80409E-06
 0.70500002E+01 -0.57285E-06
 0.70999999E+01 -0.25759E-06
 0.71500001E+01  0.61067E-06
 0.72000003E+01  0.84848E-07
 0.72500000E+01  0.45027E-07
 0.73000002E+01  0.15717E-06
 0.73499999E+01 -0.76243E-06
 0.74000001E+01 -0.66722E-06
 0.74500003E+01  0.62491E-06
 0.75000000E+01  0.85605E-06
 0.75500002E+01 -0.22667E-06
 0.75999999E+01  0.39113E-07
 0.76500001E+01  0.18988E-06
 0.77000003E+01 -0.12711E-06
 0.77500000E+01 -0.32783E-06
 0.78000002E+01  0.15023E-06
 0.78499999E+01  0.14300E-05
 0.79000001E+01  0.68988E-06
 0.79500003E+01 -0.22594E-06
 0.80000000E+01  0.40142E-06
 0.80500002E+01  0.61228E-07
 0.81000004E+01 -0.18224E-06
 0.81500006E+01  0.23762E-06
 0.81999998E+01 -0.10039E-08
 0.82500000E+01  0.54488E-06
 0.83000002E+01  0.72519E-06
 0.83500004E+01 -0.33378E-07
 0.84000006E+01 -0.40137E-06
 0.84499998E+01 -0.52876E-06
 0.85000000E+01 -0.33122E-06
 0.85500002E+01 -0.32802E-07
 0.86000004E+01  0.73914E-06
 0.86500006E+01  0.23160E-06
 0.86999998E+01 -0.11379E-06
 0.87500000E+01 -0.51584E-06
 0.88000002E+01 -0.61132E-06
 0.88500004E+01  0.81625E-06
 0.89000006E+01 -0.26862E-06
 0.89499998E+01 -0.22871E-06
 0.90000000E+01  0.27989E-06
 0.90500002E+01  0.71873E-07
 0.91000004E+01  0.14909E-06
 0.91500006E+01 -0.42311E-06
 0.91999998E+01  0.57286E-06
 0.92500000E+01  0.51774E-07
 0.93000002E+01 -0.69774E-06
 0.93500004E+01 -0.65851E-07
 0.94000006E+01  0.12321E-06
 0.94499998E+01  0.44333E-06
 0.95000000E+01  0.62576E-06
 0.95500002E+01  0.53209E-06
 0.96000004E+01  0.45474E-06
 0.96500006E+01  0.36605E-06
 0.96999998E+01 -0.16831E-06
 0.97500000E+01 -0.51278E-06
 0.98000002E+01 -0.81599E-06
 0.98500004E+01  0.33441E-06
 0.99000006E+01  0.83786E-06
 0.99499998E+01 -0.41754E-06
 0.10000000E+02 -0.66342E-06
 0.10050000E+02 -0.10046E-05
 0.10100000E+02 -0.11949E-05
 0.10150001E+02 -0.14794E-05
 0.10200000E+02  0.13605E-06
 0.10250000E+02  0.13648E-05
 0.10300000E+02 -0.16018E-06
 0.10350000E+02 -0.13685E-05
 0.10400001E+02 -0.14264E-05
 0.10450000E+02 -0.62456E-06
 0.10500000E+02 -0.33766E-06
 0.10550000E+02  0.12152E-05
 0.10600000E+02  0.19607E-05
 0.10650001E+02  0.17034E-05
 0.10700000E+02 -0.25709E-06
 0.10750000E+02 -0.38258E-05
 0.10800000E+02 -0.38953E-05
 0.10850000E+02 -0.15114E-05
 0.10900001E+02  0.19886E-05
 0.10950000E+02  0.28515E-05
 0.11000000E+02  0.88714E-06
 0.11050000E+02  0.83016E-07
 0.11100000E+02  0.12708E-06
 0.11150001E+02  0.42136E-06
 0.11200000E+02  0.27250E-05
 0.11250000E+02  0.46161E-05
 0.11300000E+02  0.61594E-06
 0.11350000E+02 -0.53533E-05
 0.11400001E+02 -0.66818E-05
 0.11450000E+02 -0.12726E-05
 0.11500000E+02  0.64002E-05
 0.11550000E+02  0.77112E-05
 0.11600000E+02  0.35193E-05
 0.11650001E+02 -0.27565E-05
 0.11700000E+02 -0.60330E-05
 0.11750000E+02 -0.20985E-05
 0.11800000E+02  0.91975E-07
 0.11850000E+02  0.39599E-06
 0.11900001E+02  0.26086E-05
 0.11950000E+02  0.27743E-05
 0.12000000E+02  0.11467E-05
 0.12050000E+02 -0.14328E-05
 0.12100000E+02 -0.30433E-05
 0.12150001E+02 -0.23386E-05
 0.12200000E+02  0.11793E-05
 0.12250000E+02  0.36884E-05
 0.12300000E+02  0.31415E-05
 0.12350000E+02  0.36925E-06
 0.12400001E+02 -0.48970E-05
 0.12450000E+02 -0.40737E-05
 0.12500000E+02  0.84098E-06
 0.12550000E+02  0.21408E-05
 0.12600000E+02  0.19559E-05
 0.12650001E+02  0.71258E-07
 0.12700000E+02 -0.19299E-05
 0.12750000E+02 -0.20412E-05
 0.12800000E+02 -0.99519E-06
 0.12850000E+02  0.48119E-06
 0.12900001E+02  0.10750E-05
 0.12950000E+02  0.17310E-05
 0.13000000E+02  0.22571E-05
 0.13050000E+02  0.11186E-05
 0.13100000E+02 -0.15905E-05
 0.13150001E+02 -0.37616E-05
 0.13200000E+02 -0.26191E-05
 0.13250000E+02  0.56186E-08
 0.13300000E+02  0.15816E-05
 0.13350000E+02  0.18046E-05
 0.13400001E+02  0.65961E-06
 0.13450000E+02 -0.12085E-05
 0.13500000E+02 -0.14490E-05
 0.13550000E+02  0.32330E-06
 0.13600000E+02  0.18013E-06
 0.13650001E+02 -0.22021E-06
 0.13700000E+02 -0.27979E-06
 0.13750000E+02 -0.11891E-05
 0.13800000E+02 -0.10684E-05
 0.13850000E+02 -0.83505E-06
 0.13900001E+02  0.57568E-06
 0.13950000E+02  0.13120E-05
 0.14000000E+02  0.12461E-05
 0.14050000E+02  0.14830E-05
 0.14100000E+02 -0.54253E-06
 0.14150001E+02 -0.15192E-05
 0.14200000E+02 -0.32042E-06
 0.14250000E+02  0.49456E-06
 0.14300000E+02  0.18065E-06
 0.14350000E+02  0.12139E-06
 0.14400001E+02  0.50388E-06
 0.14450000E+02 -0.38474E-06
 0.14500000E+02 -0.13540E-05
 0.14550000E+02 -0.98855E-06
 0.14600000E+02  0.96353E-06
 0.14650001E+02  0.17842E-05
 0.14700000E+02  0.69572E-06
 0.14750000E+02 -0.57015E-07
 0.14800000E+02  0.19547E-06
 0.14850000E+02  0.44226E-06
 0.14900001E+02 -0.79449E-06
 0.14950000E+02 -0.45841E-06
 0.15000000E+02  0.61501E-06
 0.15050000E+02 -0.49444E-07
 0.15100000E+02  0.43471E-06
 0.15150001E+02  0.31442E-06
 0.15200000E+02 -0.49575E-06
 0.15250000E+02 -0.98464E-07
 0.15300000E+02  0.64669E-06
 0.15350000E+02  0.15385E-05
 0.15400001E+02 -0.29036E-06
 0.15450000E+02 -0.13980E-05
 0.15500000E+02  0.16666E-06
 0.15550000E+02  0.11389E-05
 0.15600000E+02  0.14750E-05
 0.15650001E+02 -0.12863E-06
 0.15700000E+02 -0.22263E-06
 0.15750000E+02  0.69605E-06
 0.15800000E+02  0.51138E-06
 0.15850000E+02  0.12529E-06
 0.15900001E+02 -0.12691E-05
 0.15950000E+02 -0.74019E-06
 0.16000000E+02  0.34081E-06
 0.16050001E+02  0.94036E-07
 0.16100000E+02  0.14843E-06
 0.16150000E+02 -0.49563E-06
 0.16200001E+02 -0.12049E-05
 0.16250000E+02 -0.11914E-05
 0.16300001E+02 -0.20633E-05
 0.16350000E+02 -0.60080E-06
 0.16400000E+02  0.14547E-05
 0.16450001E+02 -0.93483E-06
 0.16500000E+02 -0.44721E-06
 0.16550001E+02  0.18045E-05
 0.16600000E+02 -0.19833E-06
 0.16650000E+02 -0.72224E-06
 0.16700001E+02  0.25997E-06
 0.16750000E+02 -0.37717E-06
 0.16800001E+02 -0.10750E-05
 0.16850000E+02 -0.39750E-06
 0.16900000E+02  0.36046E-06
 0.16950001E+02 -0.77483E-06
 0.17000000E+02 -0.53309E-06
 0.17050001E+02  0.17142E-05
 0.17100000E+02  0.16570E-05
 0.17150000E+02  0.91060E-06
 0.17200001E+02  0.74698E-06
 0.17250000E+02 -0.84993E-07
 0.17300001E+02  0.18384E-06
 0.17350000E+02  0.53497E-06
 0.17400000E+02  0.19656E-06
 0.17450001E+02  0.33744E-07
 0.17500000E+02  0.12010E-06
 0.17550001E+02  0.62027E-06
 0.17600000E+02  0.85050E-06
 0.17650000E+02  0.57213E-06
 0.17700001E+02 -0.40085E-06
 0.17750000E+02 -0.99903E-06
 0.17800001E+02 -0.42537E-06
 0.17850000E+02 -0.80011E-08
 0.17900000E+02  0.10368E-05
 0.17950001E+02  0.15803E-05
 0.18000000E+02 -0.25001E-06
 0.18050001E+02 -0.11887E-05
 0.18100000E+02 -0.98238E-06
 0.18150000E+02 -0.12243E-05
 0.18200001E+02 -0.13219E-05
 0.18250000E+02 -0.98545E-06
 0.18300001E+02 -0.37509E-07
 0.18350000E+02  0.13303E-06
 0.18400000E+02  0.23681E-06
 0.18450001E+02  0.10265E-05
 0.18500000E+02  0.35064E-06
 0.18550001E+02 -0.21027E-06
 0.18600000E+02  0.30231E-06
 0.18650000E+02 -0.36704E-06
 0.18700001E+02 -0.11080E-05
 0.18750000E+02 -0.66423E-06
 0.18800001E+02  0.23792E-07
 0.18850000E+02  0.37786E-06
 0.18900000E+02  0.65351E-06
 0.18950001E+02  0.74597E-06
 0.19000000E+02 -0.20172E-06
 0.19050001E+02 -0.13292E-05
 0.19100000E+02 -0.64208E-06
 0.19150000E+02  0.64834E-06
 0.19200001E+02  0.35332E-06
 0.19250000E+02 -0.20160E-06
 0.19300001E+02 -0.17215E-06
 0.19350000E+02 -0.13562E-06
 0.19400000E+02  0.40004E-07
 0.19450001E+02  0.86355E-06
 0.19500000E+02  0.14216E-05
 0.19550001E+02  0.44590E-06
 0.19600000E+02 -0.36974E-06
 0.19650000E+02 -0.48764E-06
 0.19700001E+02 -0.56481E-06
 0.19750000E+02 -0.48364E-06
 0.19800001E+02 -0.22089E-06
 0.19850000E+02  0.36763E-06
 0.19900000E+02  0.30310E-06
 0.19950001E+02  0.48942E-06
 0.20000000E+02  0.12353E-05
 0.20050001E+02  0.74126E-06
 0.20100000E+02 -0.23981E-06
 0.20150000E+02 -0.38004E-06
 0.20200001E+02 -0.41527E-06
 0.20250000E+02 -0.83602E-06
 0.20300001E+02 -0.35133E-06
 0.20350000E+02  0.41928E-06
 0.20400000E+02  0.42238E-07
 0.20450001E+02 -0.52630E-06
 0.20500000E+02 -0.19691E-06
 0.20550001E+02  0.63263E-07
 0.20600000E+02 -0.64056E-06
 0.20650000E+02 -0.58097E-06
 0.20700001E+02  0.79214E-06
 0.20750000E+02  0.10592E-05
 0.20800001E+02  0.39824E-06
 0.20850000E+02  0.39675E-06
 0.20900000E+02 -0.14142E-07
 0.20950001E+02 -0.67623E-06
 0.21000000E+02 -0.28660E-06
 0.21050001E+02  0.59733E-06
 0.21100000E+02  0.55616E-06
 0.21150000E+02  0.13756E-06
 0.21200001E+02  0.19283E-06
 0.21250000E+02 -0.15255E-06
 0.21300001E+02 -0.70932E-06
 0.21350000E+02 -0.48624E-06
 0.21400000E+02  0.35018E-06
 0.21450001E+02  0.14183E-06
 0.21500000E+02 -0.32270E-06
 0.21550001E+02  0.16524E-06
 0.21600000E+02  0.11867E-06
 0.21650000E+02  0.15946E-06
 0.21700001E+02  0.85511E-06
 0.21750000E+02  0.87742E-06
 0.21800001E+02 -0.14746E-06
 0.21850000E+02 -0.80311E-06
 0.21900000E+02 -0.57991E-06
 0.21950001E+02 -0.52638E-06
 0.22000000E+02 -0.34919E-06
 0.22050001E+02  0.55499E-06
 0.22100000E+02  0.11641E-05
 0.22150000E+02  0.49385E-06
 0.22200001E+02 -0.24048E-06
 0.22250000E+02 -0.55337E-06
 0.22300001E+02 -0.93108E-06
 0.22350000E+02 -0.10451E-05
 0.22400000E+02 -0.63834E-06
 0.22450001E+02 -0.17981E-06
 0.22500000E+02 -0.23153E-06
 0.22550001E+02 -0.30720E-06
 0.22600000E+02 -0.14648E-06
 0.22650000E+02 -0.10820E-08
 0.22700001E+02 -0.19418E-08
 0.22750000E+02  0.24079E-06
 0.22800001E+02  0.53116E-06
 0.22850000E+02  0.16681E-06
 0.22900000E+02 -0.31958E-06
 0.22950001E+02 -0.22525E-06
 0.23000000E+02 -0.13901E-06
 0.23050001E+02 -0.17565E-06
 0.23100000E+02  0.36743E-06
 0.23150000E+02  0.67984E-06
 0.23200001E+02  0.17895E-06
 0.23250000E+02 -0.26361E-06
 0.23300001E+02 -0.20907E-07
 0.23350000E+02  0.95695E-07
 0.23400000E+02 -0.30947E-06
 0.23450001E+02 -0.51835E-07
 0.23500000E+02  0.55164E-06
 0.23550001E+02  0.22225E-06
 0.23600000E+02 -0.26018E-06
 0.23650000E+02  0.25073E-06
 0.23700001E+02  0.69828E-06
 0.23750000E+02  0.30803E-06
 0.23800001E+02  0.43270E-06
 0.23850000E+02  0.83177E-06
 0.23900000E+02  0.26604E-06
 0.23950001E+02 -0.40712E-06
 0.24000000E+02 -0.20022E-06
 0.24050001E+02  0.12295E-06
 0.24100000E+02 -0.31614E-06
 0.24150000E+02  0.10995E-06
 0.24200001E+02  0.97013E-06
 0.24250000E+02  0.13401E-06
 0.24300001E+02 -0.34681E-06
 0.24350000E+02  0.35157E-06
 0.24400000E+02  0.30661E-06
 0.24450001E+02 -0.19263E-07
 0.24500000E+02  0.25573E-06
 0.24550001E+02  0.28680E-06
 0.24600000E+02 -0.62137E-06
 0.24650000E+02 -0.11985E-05
 0.24700001E+02 -0.69708E-06
 0.24750000E+02 -0.63903E-06
 0.24800001E+02 -0.10660E-05
 0.24850000E+02 -0.47135E-06
 0.24900000E+02  0.28777E-06
 0.24950001E+02 -0.28339E-06
 0.25000000E+02 -0.46272E-06
 0.25050001E+02  0.57580E-06
 0.25100000E+02  0.47639E-06
 0.25150000E+02 -0.40467E-06
 0.25200001E+02  0.16513E-06
 0.25250000E+02  0.57968E-06
 0.25300001E+02 -0.27410E-06
 0.25350000E+02 -0.28157E-06
 0.25400000E+02  0.36764E-06
 0.25450001E+02 -0.17350E-06
 0.25500000E+02 -0.99416E-06
 0.25550001E+02 -0.35862E-06
 0.25600000E+02 -0.36777E-07
 0.25650000E+02 -0.83940E-06
 0.25700001E+02 -0.30529E-06
 0.25750000E+02  0.59388E-06
 0.25800001E+02 -0.16154E-06
 0.25850000E+02 -0.61906E-06
 0.25900000E+02  0.70313E-07
 0.25950001E+02  0.35805E-07
 0.26000000E+02 -0.29726E-06
 0.26050001E+02  0.42826E-06
 0.26100000E+02  0.10336E-05
 0.26150000E+02  0.37003E-06
 0.26200001E+02 -0.16926E-06
 0.26250000E+02  0.31059E-06
 0.26300001E+02  0.80405E-07
 0.26350000E+02 -0.82218E-06
 0.26400000E+02 -0.36120E-06
 0.26450001E+02  0.70050E-06
 0.26500000E+02  0.10451E-05
 0.26550001E+02  0.17321E-05
 0.26600000E+02  0.19431E-05
 0.26650000E+02  0.19501E-06
 0.26700001E+02 -0.15859E-05
 0.26750000E+02 -0.16740E-05
 0.26800001E+02 -0.37401E-06
 0.26850000E+02  0.19982E-05
 0.26900000E+02  0.39803E-05
 0.26950001E+02  0.30364E-05
 0.27000000E+02 -0.46191E-06
 0.27050001E+02 -0.31700E-05
 0.27100000E+02 -0.29413E-05
 0.27150000E+02 -0.10474E-05
 0.27200001E+02  0.12659E-05
 0.27250000E+02  0.30476E-05
 0.27300001E+02  0.20551E-05
 0.27350000E+02 -0.13942E-05
 0.27400000E+02 -0.37401E-05
 0.27450001E+02 -0.20139E-05
 0.27500000E+02  0.11937E-05
 0.27550001E+02  0.23276E-05
 0.27600000E+02  0.29505E-05
 0.27650000E+02  0.25937E-05
 0.27700001E+02  0.39091E-06
 0.27750000E+02  0.91120E-07
 0.27800001E+02 -0.16066E-06
 0.27850000E+02 -0.92555E-05
 0.27900000E+02 -0.21686E-04
 0.27950001E+02 -0.20439E-04
 0.28000000E+02 -0.15750E-05
 0.28050001E+02  0.29576E-04
 0.28100000E+02  0.46859E-04
 0.28150000E+02  0.34249E-04
 0.28200001E+02  0.37899E-06
 0.28250000E+02 -0.42487E-04
 0.28300001E+02 -0.50052E-04
 0.28350000E+02 -0.26872E-04
 0.28400000E+02  0.16481E-05
 0.28450001E+02  0.31588E-04
 0.28500000E+02  0.20797E-04
 0.28550001E+02 -0.48691E-05
 0.28600000E+02 -0.17326E-05
 0.28650000E+02  0.91098E-05
 0.28700001E+02  0.10743E-04
 0.28750000E+02  0.79892E-05
 0.28800001E+02 -0.13421E-05
 0.28850000E+02 -0.18201E-04
 0.28900000E+02 -0.26312E-04
 0.28950001E+02 -0.26557E-04
 0.29000000E+02 -0.71684E-06
 0.29050001E+02  0.27883E-04
 0.29100000E+02  0.48378E-04
 0.29150000E+02  0.65882E-04
 0.29200001E+02  0.15564E-04
 0.29250000E+02 -0.69537E-04
 0.29300001E+02 -0.97801E-04
 0.29350000E+02 -0.31666E-04
 0.29400000E+02  0.54027E-04
 0.29450001E+02  0.63988E-04
 0.29500000E+02  0.15446E-04
 0.29550001E+02 -0.39891E-04
 0.29600000E+02 -0.50584E-04
 0.29650000E+02 -0.25645E-04
 0.29700001E+02  0.31842E-04
 0.29750000E+02  0.90343E-04
 0.29800001E+02  0.47513E-04
 0.29850000E+02 -0.20074E-04
 0.29900000E+02 -0.41998E-04
 0.29950001E+02 -0.68244E-04
 0.30000000E+02 -0.44573E-04
 0.30050001E+02  0.33418E-04
 0.30100000E+02  0.67239E-04
 0.30150000E+02  0.21037E-04
 0.30200001E+02 -0.38694E-04
 0.30250000E+02 -0.63702E-04
 0.30300001E+02 -0.57061E-04
 0.30350000E+02  0.32275E-06
 0.30400000E+02  0.63341E-04
 0.30450001E+02  0.10132E-03
 0.30500000E+02  0.11817E-03
 0.30550001E+02  0.52301E-04
 0.30600000E+02 -0.66943E-04
 0.30650000E+02 -0.12833E-03
 0.30700001E+02 -0.10531E-03
 0.30750000E+02 -0.31403E-04
 0.30800001E+02  0.42981E-04
 0.30850000E+02  0.47900E-04
 0.30900000E+02 -0.51515E-05
 0.30950001E+02 -0.13517E-04
 0.31000000E+02  0.33542E-04
 0.31050001E+02  0.67738E-04
 0.31100000E+02  0.46522E-04
 0.31150000E+02 -0.33933E-04
 0.31200001E+02 -0.10039E-03
 0.31250000E+02 -0.90753E-04
 0.31300001E+02 -0.24015E-04
 0.31350000E+02  0.48980E-04
 0.31400000E+02  0.80547E-04
 0.31450001E+02  0.66815E-04
 0.31500000E+02  0.38577E-04
 0.31550001E+02  0.12370E-04
 0.31600000E+02 -0.91484E-05
 0.31650000E+02 -0.53036E-04
 0.31700001E+02 -0.84980E-04
 0.31750000E+02 -0.47417E-04
 0.31800001E+02  0.81317E-05
 0.31850000E+02  0.56089E-04
 0.31900000E+02  0.72636E-04
 0.31950001E+02  0.22515E-04
 0.32000000E+02 -0.51857E-04
 0.32049999E+02 -0.66722E-04
 0.32100002E+02 -0.27596E-04
 0.32150002E+02 -0.29071E-06
 0.32200001E+02  0.44909E-04
 0.32250000E+02  0.81705E-04
 0.32299999E+02  0.55435E-04
 0.32350002E+02  0.52316E-05
 0.32400002E+02 -0.39529E-04
 0.32450001E+02 -0.64613E-04
 0.32500000E+02 -0.43602E-04
 0.32549999E+02 -0.32058E-05
 0.32600002E+02  0.67719E-05
 0.32650002E+02  0.20592E-04
 0.32700001E+02  0.26798E-04
 0.32750000E+02 -0.66472E-06
 0.32799999E+02 -0.17038E-04
 0.32850002E+02 -0.12091E-04
 0.32900002E+02  0.16911E-05
 0.32950001E+02 -0.60496E-05
 0.33000000E+02 -0.52734E-05
 0.33049999E+02  0.20929E-05
 0.33100002E+02 -0.73003E-06
 0.33150002E+02  0.29339E-04
 0.33200001E+02  0.35406E-04
 0.33250000E+02  0.10843E-04
 0.33299999E+02 -0.37566E-05
 0.33350002E+02 -0.16390E-04
 0.33400002E+02 -0.23846E-04
 0.33450001E+02 -0.29550E-04
 0.33500000E+02 -0.27930E-04
 0.33549999E+02  0.44126E-05
 0.33600002E+02  0.51704E-04
 0.33650002E+02  0.38050E-04
 0.33700001E+02 -0.52767E-05
 0.33750000E+02 -0.65234E-05
 0.33799999E+02  0.16490E-04
 0.33850002E+02  0.32099E-04
 0.33900002E+02 -0.64250E-05
 0.33950001E+02 -0.85757E-04
 0.34000000E+02 -0.13036E-03
 0.34049999E+02 -0.90875E-04
 0.34100002E+02  0.14428E-04
 0.34150002E+02  0.10291E-03
 0.34200001E+02  0.12033E-03
 0.34250000E+02  0.68646E-04
 0.34299999E+02  0.16562E-04
 0.34350002E+02  0.14918E-04
 0.34400002E+02  0.18940E-04
 0.34450001E+02  0.35935E-05
 0.34500000E+02 -0.41404E-04
 0.34549999E+02 -0.94235E-04
 0.34600002E+02 -0.69099E-04
 0.34650002E+02  0.10944E-04
 0.34700001E+02  0.51507E-04
 0.34750000E+02  0.43565E-04
 0.34799999E+02  0.71314E-05
 0.34850002E+02 -0.48772E-04
 0.34900002E+02 -0.72152E-04
 0.34950001E+02 -0.18077E-04
 0.35000000E+02  0.38438E-04
 0.35049999E+02  0.38311E-04
 0.35100002E+02  0.38411E-04
 0.35150002E+02  0.60052E-04
 0.35200001E+02  0.49656E-04
 0.35250000E+02 -0.28602E-05
 0.35299999E+02 -0.55618E-04
 0.35350002E+02 -0.10930E-03
 0.35400002E+02 -0.10034E-03
 0.35450001E+02 -0.26396E-05
 0.35500000E+02  0.85759E-04
 0.35549999E+02  0.12883E-03
 0.35600002E+02  0.87349E-04
 0.35650002E+02 -0.22430E-04
 0.35700001E+02 -0.10026E-03
 0.35750000E+02 -0.93374E-04
 0.35799999E+02 -0.24555E-04
 0.35850002E+02  0.20594E-04
 0.35900002E+02  0.23961E-04
 0.35950001E+02  0.12629E-04
 0.36000000E+02 -0.97695E-05
 0.36049999E+02 -0.37025E-05
 0.36100002E+02  0.45103E-04
 0.36150002E+02  0.82684E-04
 0.36200001E+02  0.66558E-04
 0.36250000E+02 -0.83597E-05
 0.36299999E+02 -0.90262E-04
 0.36350002E+02 -0.10561E-03
 0.36400002E+02 -0.60007E-04
 0.36450001E+02 -0.53153E-06
 0.36500000E+02  0.48626E-04
 0.36549999E+02  0.68976E-04
 0.36600002E+02  0.56660E-04
 0.36650002E+02  0.22104E-04
 0.36700001E+02 -0.16323E-04
 0.36750000E+02 -0.41649E-04
 0.36799999E+02 -0.46062E-04
 0.36850002E+02 -0.13372E-04
 0.36900002E+02  0.16011E-04
 0.36950001E+02  0.12045E-04
 0.37000000E+02 -0.26930E-05
 0.37049999E+02 -0.23846E-04
 0.37100002E+02 -0.39036E-05
 0.37150002E+02  0.49103E-04
 0.37200001E+02  0.66360E-04
 0.37250000E+02  0.35856E-04
 0.37299999E+02 -0.32947E-04
 0.37350002E+02 -0.87167E-04
 0.37400002E+02 -0.86078E-04
 0.37450001E+02 -0.40687E-04
 0.37500000E+02  0.29445E-04
 0.37549999E+02  0.68810E-04
 0.37600002E+02  0.51056E-04
 0.37650002E+02  0.10826E-04
 0.37700001E+02 -0.17379E-04
 0.37750000E+02 -0.23217E-04
 0.37799999E+02 -0.14925E-04
 0.37850002E+02  0.14135E-04
 0.37900002E+02  0.46781E-04
 0.37950001E+02  0.51740E-04
 0.38000000E+02  0.30832E-04
 0.38049999E+02 -0.64911E-05
 0.38100002E+02 -0.43629E-04
 0.38150002E+02 -0.57814E-04
 0.38200001E+02 -0.36034E-04
 0.38250000E+02 -0.21926E-04
 0.38299999E+02 -0.46610E-04
 0.38350002E+02 -0.63984E-04
 0.38400002E+02 -0.40992E-04
 0.38450001E+02  0.34410E-04
 0.38500000E+02  0.12186E-03
 0.38549999E+02  0.13686E-03
 0.38600002E+02  0.58551E-04
 0.38650002E+02 -0.51238E-04
 0.38700001E+02 -0.87695E-04
 0.38750000E+02 -0.25467E-04
 0.38799999E+02  0.50145E-04
 0.38850002E+02  0.82360E-04
 0.38900002E+02  0.67318E-04
 0.38950001E+02 -0.38316E-05
 0.39000000E+02 -0.89545E-04
 0.39049999E+02 -0.11358E-03
 0.39100002E+02 -0.75689E-04
 0.39150002E+02 -0.25873E-04
 0.39200001E+02 -0.76159E-05
 0.39250000E+02 -0.16549E-04
 0.39299999E+02  0.20902E-05
 0.39350002E+02  0.63332E-04
 0.39400002E+02  0.10820E-03
 0.39450001E+02  0.91635E-04
 0.39500000E+02  0.33046E-04
 0.39549999E+02 -0.44811E-04
 0.39600002E+02 -0.95055E-04
 0.39650002E+02 -0.80014E-04
 0.39700001E+02 -0.26755E-04
 0.39750000E+02  0.37155E-04
 0.39799999E+02  0.76879E-04
 0.39850002E+02  0.66156E-04
 0.39900002E+02  0.26919E-04
 0.39950001E+02 -0.12943E-04
 0.40000000E+02 -0.38863E-04
 0.40049999E+02 -0.43119E-04
 0.40100002E+02 -0.54102E-04
 0.40150002E+02 -0.62560E-04
 0.40200001E+02 -0.82463E-05
 0.40250000E+02  0.77451E-04
 0.40299999E+02  0.10088E-03
 0.40350002E+02  0.36765E-04
 0.40400002E+02 -0.54595E-04
 0.40450001E+02 -0.99072E-04
 0.40500000E+02 -0.73617E-04
 0.40549999E+02  0.32581E-05
 0.40600002E+02  0.72119E-04
 0.40650002E+02  0.53661E-04
 0.40700001E+02 -0.52032E-05
 0.40750000E+02 -0.13930E-04
 0.40799999E+02  0.61866E-05
 0.40850002E+02  0.23775E-04
 0.40900002E+02  0.23065E-04
 0.40950001E+02  0.34604E-06
 0.41000000E+02 -0.15180E-04
 0.41049999E+02 -0.28490E-05
 0.41100002E+02  0.19081E-04
 0.41150002E+02  0.22971E-04
 0.41200001E+02  0.33971E-05
 0.41250000E+02 -0.31045E-04
 0.41299999E+02 -0.54368E-04
 0.41350002E+02 -0.55236E-04
 0.41400002E+02 -0.21734E-04
 0.41450001E+02  0.80492E-05
 0.41500000E+02 -0.79293E-06
 0.41549999E+02  0.97700E-05
 0.41600002E+02  0.42312E-04
 0.41650002E+02  0.59915E-04
 0.41700001E+02  0.33253E-04
 0.41750000E+02 -0.13275E-04
 0.41799999E+02 -0.12141E-04
 0.41850002E+02  0.12918E-04
 0.41900002E+02  0.20594E-04
 0.41950001E+02  0.60927E-05
 0.42000000E+02 -0.27321E-04
 0.42049999E+02 -0.64571E-04
 0.42100002E+02 -0.79627E-04
 0.42150002E+02 -0.41181E-04
 0.42200001E+02  0.46129E-04
 0.42250000E+02  0.11366E-03
 0.42299999E+02  0.10239E-03
 0.42350002E+02  0.32550E-04
 0.42400002E+02 -0.44598E-04
 0.42450001E+02 -0.95151E-04
 0.42500000E+02 -0.97784E-04
 0.42549999E+02 -0.51129E-04
 0.42600002E+02 -0.27466E-05
 0.42650002E+02  0.19851E-04
 0.42700001E+02  0.43350E-04
 0.42750000E+02  0.64769E-04
 0.42799999E+02  0.62032E-04
 0.42850002E+02  0.37598E-04
 0.42900002E+02  0.22825E-04
 0.42950001E+02  0.17942E-04
 0.43000000E+02 -0.11956E-04
 0.43049999E+02 -0.61930E-04
 0.43100002E+02 -0.97130E-04
 0.43150002E+02 -0.77263E-04
 0.43200001E+02 -0.63967E-05
 0.43250000E+02  0.71092E-04
 0.43299999E+02  0.10187E-03
 0.43350002E+02  0.57395E-04
 0.43400002E+02 -0.24898E-04
 0.43450001E+02 -0.89033E-04
 0.43500000E+02 -0.88767E-04
 0.43549999E+02 -0.22794E-04
 0.43600002E+02  0.44457E-04
 0.43650002E+02  0.60280E-04
 0.43700001E+02  0.38677E-04
 0.43750000E+02  0.57817E-05
 0.43799999E+02 -0.53206E-05
 0.43850002E+02  0.28017E-04
 0.43900002E+02  0.48754E-04
 0.43950001E+02  0.19542E-04
 0.44000000E+02 -0.29381E-04
 0.44049999E+02 -0.77653E-04
 0.44100002E+02 -0.93911E-04
 0.44150002E+02 -0.57382E-04
 0.44200001E+02 -0.83845E-05
 0.44250000E+02  0.23626E-04
 0.44299999E+02  0.42911E-04
 0.44350002E+02  0.52165E-04
 0.44400002E+02  0.38660E-04
 0.44450001E+02  0.11033E-04
 0.44500000E+02  0.79311E-06
 0.44549999E+02  0.12690E-04
 0.44600002E+02  0.25047E-04
 0.44650002E+02  0.47522E-05
 0.44700001E+02 -0.28017E-04
 0.44750000E+02 -0.43551E-04
 0.44799999E+02 -0.43849E-04
 0.44850002E+02 -0.30258E-04
 0.44900002E+02 -0.94599E-05
 0.44950001E+02  0.22406E-04
 0.45000000E+02  0.55632E-04
 0.45049999E+02  0.68631E-04
 0.45100002E+02  0.42252E-04
 0.45150002E+02 -0.63322E-05
 0.45200001E+02 -0.41409E-04
 0.45250000E+02 -0.50659E-04
 0.45299999E+02 -0.28513E-04
 0.45350002E+02  0.93693E-05
 0.45400002E+02  0.41262E-04
 0.45450001E+02  0.37954E-04
 0.45500000E+02 -0.21106E-05
 0.45549999E+02 -0.41667E-04
 0.45600002E+02 -0.55131E-04
 0.45650002E+02 -0.24685E-04
 0.45700001E+02  0.15039E-04
 0.45750000E+02  0.23421E-04
 0.45799999E+02  0.17010E-04
 0.45850002E+02  0.16959E-04
 0.45900002E+02  0.34128E-04
 0.45950001E+02  0.41829E-04
 0.46000000E+02  0.10611E-04
 0.46049999E+02 -0.51072E-04
 0.46100002E+02 -0.11284E-03
 0.46150002E+02 -0.11208E-03
 0.46200001E+02 -0.23198E-04
 0.46250000E+02  0.67653E-04
 0.46299999E+02  0.82629E-04
 0.46350002E+02  0.50352E-04
 0.46400002E+02  0.22850E-04
 0.46450001E+02  0.36125E-04
 0.46500000E+02  0.67926E-04
 0.46549999E+02  0.62627E-04
 0.46600002E+02 -0.98807E-06
 0.46650002E+02 -0.81287E-04
 0.46700001E+02 -0.94953E-04
 0.46750000E+02 -0.51328E-04
 0.46799999E+02 -0.11204E-04
 0.46850002E+02  0.50867E-05
 0.46900002E+02  0.74427E-05
 0.46950001E+02  0.27012E-04
 0.47000000E+02  0.62551E-04
 0.47049999E+02  0.68695E-04
 0.47100002E+02  0.12971E-04
 0.47150002E+02 -0.60276E-04
 0.47200001E+02 -0.76562E-04
 0.47250000E+02 -0.50576E-04
 0.47299999E+02 -0.42335E-04
 0.47350002E+02 -0.52327E-04
 0.47400002E+02 -0.52629E-04
 0.47450001E+02 -0.62391E-04
 0.47500000E+02 -0.98223E-04
 0.47549999E+02 -0.11227E-03
 0.47600002E+02 -0.60663E-04
 0.47650002E+02  0.64422E-04
 0.47700001E+02  0.25665E-03
 0.47750000E+02  0.39683E-03
 0.47799999E+02  0.32861E-03
 0.47850002E+02  0.94884E-04
 0.47900002E+02 -0.12836E-03
 0.47950001E+02 -0.22708E-03
 0.48000000E+02 -0.20763E-03
 0.48049999E+02 -0.12857E-03
 0.48100002E+02 -0.59577E-04
 0.48150002E+02 -0.53221E-05
 0.48200001E+02  0.67891E-04
 0.48250000E+02  0.13309E-03
 0.48299999E+02  0.19532E-03
 0.48350002E+02  0.27582E-03
 0.48400002E+02  0.28063E-03
 0.48450001E+02  0.78921E-04
 0.48500000E+02 -0.26285E-03
 0.48549999E+02 -0.55569E-03
 0.48600002E+02 -0.65571E-03
 0.48650002E+02 -0.45104E-03
 0.48700001E+02  0.24126E-04
 0.48750000E+02  0.48272E-03
 0.48799999E+02  0.63845E-03
 0.48850002E+02  0.49929E-03
 0.48900002E+02  0.23020E-03
 0.48950001E+02 -0.37324E-04
 0.49000000E+02 -0.24338E-03
 0.49049999E+02 -0.39809E-03
 0.49100002E+02 -0.54532E-03
 0.49150002E+02 -0.63751E-03
 0.49200001E+02 -0.49493E-03
 0.49250000E+02 -0.69359E-04
 0.49299999E+02  0.49145E-03
 0.49350002E+02  0.92679E-03
 0.49400002E+02  0.98012E-03
 0.49450001E+02  0.64283E-03
 0.49500000E+02  0.10939E-03
 0.49549999E+02 -0.37387E-03
 0.49600002E+02 -0.64477E-03
 0.49650002E+02 -0.70606E-03
 0.49700001E+02 -0.58562E-03
 0.49750000E+02 -0.33169E-03
 0.49799999E+02 -0.38763E-04
 0.49850002E+02  0.25451E-03
 0.49900002E+02  0.48416E-03
 0.49950001E+02  0.53399E-03
 0.50000000E+02  0.40161E-03
 0.50049999E+02  0.17229E-03
 0.50100002E+02 -0.55790E-04
 0.50150002E+02 -0.16303E-03
 0.50200001E+02 -0.14319E-03
 0.50250000E+02 -0.91472E-04
 0.50299999E+02 -0.11784E-03
 0.50350002E+02 -0.24635E-03
 0.50400002E+02 -0.29270E-03
 0.50450001E+02 -0.16017E-03
 0.50500000E+02  0.53579E-04
 0.50549999E+02  0.24237E-03
 0.50600002E+02  0.29829E-03
 0.50650002E+02  0.20648E-03
 0.50700001E+02  0.68699E-04
 0.50750000E+02 -0.97561E-05
 0.50799999E+02 -0.29115E-04
 0.50850002E+02 -0.84594E-04
 0.50900002E+02 -0.19316E-03
 0.50950001E+02 -0.23672E-03
 0.51000000E+02 -0.94663E-04
 0.51049999E+02  0.17027E-03
 0.51100002E+02  0.31892E-03
 0.51150002E+02  0.18863E-03
 0.51200001E+02 -0.93383E-04
 0.51250000E+02 -0.31527E-03
 0.51299999E+02 -0.37019E-03
 0.51350002E+02 -0.21165E-03
 0.51400002E+02  0.10465E-04
 0.51450001E+02  0.12916E-03
 0.51500000E+02  0.20618E-03
 0.51549999E+02  0.33546E-03
 0.51600002E+02  0.43582E-03
 0.51650002E+02  0.36571E-03
 0.51700001E+02  0.14225E-03
 0.51750000E+02 -0.11041E-03
 0.51799999E+02 -0.29637E-03
 0.51850002E+02 -0.42223E-03
 0.51900002E+02 -0.53104E-03
 0.51950001E+02 -0.54340E-03
 0.52000000E+02 -0.28576E-03
 0.52049999E+02  0.21950E-03
 0.52100002E+02  0.64008E-03
 0.52150002E+02  0.69049E-03
 0.52200001E+02  0.37965E-03
 0.52250000E+02 -0.81652E-04
 0.52299999E+02 -0.42504E-03
 0.52350002E+02 -0.48792E-03
 0.52400002E+02 -0.27398E-03
 0.52450001E+02  0.91253E-04
 0.52500000E+02  0.41923E-03
 0.52549999E+02  0.57243E-03
 0.52600002E+02  0.45958E-03
 0.52650002E+02  0.68844E-04
 0.52700001E+02 -0.40863E-03
 0.52750000E+02 -0.70114E-03
 0.52799999E+02 -0.65758E-03
 0.52850002E+02 -0.34873E-03
 0.52900002E+02  0.92872E-05
 0.52950001E+02  0.26483E-03
 0.53000000E+02  0.40027E-03
 0.53049999E+02  0.46077E-03
 0.53100002E+02  0.43132E-03
 0.53150002E+02  0.27777E-03
 0.53200001E+02  0.36037E-04
 0.53250000E+02 -0.22273E-03
 0.53299999E+02 -0.42382E-03
 0.53350002E+02 -0.48713E-03
 0.53400002E+02 -0.33156E-03
 0.53450001E+02 -0.32138E-04
 0.53500000E+02  0.21800E-03
 0.53549999E+02  0.32131E-03
 0.53600002E+02  0.27972E-03
 0.53650002E+02  0.15209E-03
 0.53700001E+02  0.14976E-04
 0.53750000E+02 -0.65043E-04
 0.53799999E+02 -0.62182E-04
 0.53850002E+02 -0.29744E-04
 0.53900002E+02 -0.41854E-04
 0.53950001E+02 -0.10297E-03
 0.54000000E+02 -0.13746E-03
 0.54049999E+02 -0.91838E-04
 0.54100002E+02 -0.13216E-04
 0.54150002E+02  0.25262E-04
 0.54200001E+02  0.20096E-04
 0.54250000E+02  0.13654E-05
 0.54299999E+02 -0.29633E-05
 0.54350002E+02  0.34078E-04
 0.54400002E+02  0.11244E-03
 0.54450001E+02  0.19872E-03
 0.54500000E+02  0.22289E-03
 0.54549999E+02  0.14477E-03
 0.54600002E+02 -0.66011E-05
 0.54650002E+02 -0.15018E-03
 0.54700001E+02 -0.20885E-03
 0.54750000E+02 -0.19812E-03
 0.54799999E+02 -0.14370E-03
 0.54850002E+02 -0.67354E-04
 0.54900002E+02 -0.39723E-04
 0.54950001E+02 -0.70784E-04
 0.55000000E+02 -0.10683E-03
 0.55049999E+02 -0.67399E-04
 0.55100002E+02  0.75882E-04
 0.55150002E+02  0.20574E-03
 0.55200001E+02  0.22739E-03
 0.55250000E+02  0.15958E-03
 0.55299999E+02  0.65549E-04
 0.55350002E+02  0.21453E-04
 0.55400002E+02  0.54258E-04
 0.55450001E+02  0.99995E-04
 0.55500000E+02  0.96917E-04
 0.55549999E+02  0.57608E-04
 0.55600002E+02 -0.31955E-05
 0.55650002E+02 -0.96231E-04
 0.55700001E+02 -0.20698E-03
 0.55750000E+02 -0.28494E-03
 0.55799999E+02 -0.29076E-03
 0.55850002E+02 -0.22566E-03
 0.55900002E+02 -0.11394E-03
 0.55950001E+02  0.27143E-05
 0.56000000E+02  0.60670E-04
 0.56049999E+02  0.49124E-04
 0.56100002E+02  0.45589E-04
 0.56150002E+02  0.13348E-03
 0.56200001E+02  0.29232E-03
 0.56250000E+02  0.39029E-03
 0.56299999E+02  0.33746E-03
 0.56350002E+02  0.16785E-03
 0.56400002E+02 -0.14087E-04
 0.56450001E+02 -0.12935E-03
 0.56500000E+02 -0.17359E-03
 0.56549999E+02 -0.19140E-03
 0.56600002E+02 -0.21235E-03
 0.56650002E+02 -0.19420E-03
 0.56700001E+02 -0.10592E-03
 0.56750000E+02 -0.63044E-05
 0.56799999E+02  0.10501E-04
 0.56850002E+02 -0.59794E-04
 0.56900002E+02 -0.10991E-03
 0.56950001E+02 -0.79935E-04
 0.57000000E+02  0.17026E-05
 0.57049999E+02  0.79746E-04
 0.57100002E+02  0.11718E-03
 0.57150002E+02  0.14124E-03
 0.57200001E+02  0.19969E-03
 0.57250000E+02  0.26306E-03
 0.57299999E+02  0.23240E-03
 0.57350002E+02  0.89442E-04
 0.57400002E+02 -0.80471E-04
 0.57450001E+02 -0.19523E-03
 0.57500000E+02 -0.22226E-03
 0.57549999E+02 -0.17601E-03
 0.57600002E+02 -0.76155E-04
 0.57650002E+02  0.28548E-04
 0.57700001E+02  0.67409E-04
 0.57750000E+02  0.17968E-04
 0.57799999E+02 -0.86767E-04
 0.57850002E+02 -0.15654E-03
 0.57900002E+02 -0.12946E-03
 0.57950001E+02 -0.34437E-04
 0.58000000E+02  0.50454E-04
 0.58049999E+02  0.66499E-04
 0.58100002E+02  0.42727E-04
 0.58150002E+02  0.39625E-04
 0.58200001E+02  0.79179E-04
 0.58250000E+02  0.12141E-03
 0.58299999E+02  0.11775E-03
 0.58350002E+02  0.96280E-04
 0.58400002E+02  0.10516E-03
 0.58450001E+02  0.13745E-03
 0.58500000E+02  0.12503E-03
 0.58549999E+02  0.89275E-05
 0.58600002E+02 -0.17026E-03
 0.58650002E+02 -0.29971E-03
 0.58700001E+02 -0.30982E-03
 0.58750000E+02 -0.23193E-03
 0.58799999E+02 -0.13588E-03
 0.58850002E+02 -0.50509E-04
 0.58900002E+02  0.37145E-04
 0.58950001E+02  0.12339E-03
 0.59000000E+02  0.17969E-03
 0.59049999E+02  0.19532E-03
 0.59100002E+02  0.17679E-03
 0.59150002E+02  0.13287E-03
 0.59200001E+02  0.74040E-04
 0.59250000E+02  0.16638E-04
 0.59299999E+02 -0.22404E-04
 0.59350002E+02 -0.43113E-04
 0.59400002E+02 -0.43717E-04
 0.59450001E+02 -0.30029E-04
 0.59500000E+02 -0.33206E-04
 0.59549999E+02 -0.61234E-04
 0.59600002E+02 -0.10135E-03
 0.59650002E+02 -0.14046E-03
 0.59700001E+02 -0.16581E-03
 0.59750000E+02 -0.16397E-03
 0.59799999E+02 -0.99493E-04
 0.59850002E+02  0.39068E-04
 0.59900002E+02  0.20435E-03
 0.59950001E+02  0.32079E-03
 0.60000000E+02  0.32132E-03
 0.60049999E+02  0.20072E-03
 0.60100002E+02  0.18689E-04
 0.60150002E+02 -0.14233E-03
 0.60200001E+02 -0.21217E-03
 0.60250000E+02 -0.17970E-03
 0.60299999E+02 -0.10061E-03
 0.60350002E+02 -0.41732E-04
 0.60400002E+02 -0.16992E-04
 0.60450001E+02  0.38069E-05
 0.60500000E+02  0.36525E-04
 0.60549999E+02  0.71599E-04
 0.60600002E+02  0.83532E-04
 0.60650002E+02  0.59735E-04
 0.60700001E+02  0.22363E-04
 0.60750000E+02 -0.10334E-04
 0.60799999E+02 -0.43764E-04
 0.60850002E+02 -0.84394E-04
 0.60900002E+02 -0.11525E-03
 0.60950001E+02 -0.94703E-04
 0.61000000E+02 -0.86106E-05
 0.61049999E+02  0.94002E-04
 0.61100002E+02  0.14918E-03
 0.61150002E+02  0.13697E-03
 0.61200001E+02  0.76558E-04
 0.61250000E+02 -0.12800E-04
 0.61299999E+02 -0.99382E-04
 0.61350002E+02 -0.13627E-03
 0.61400002E+02 -0.11492E-03
 0.61450001E+02 -0.53731E-04
 0.61500000E+02  0.36863E-04
 0.61549999E+02  0.12848E-03
 0.61600002E+02  0.16522E-03
 0.61650002E+02  0.11449E-03
 0.61700001E+02  0.59238E-05
 0.61750000E+02 -0.93001E-04
 0.61799999E+02 -0.13594E-03
 0.61850002E+02 -0.12114E-03
 0.61900002E+02 -0.63731E-04
 0.61950001E+02  0.33508E-05
 0.62000000E+02  0.45333E-04
 0.62049999E+02  0.53598E-04
 0.62100002E+02  0.39116E-04
 0.62150002E+02  0.30064E-04
 0.62200001E+02  0.32622E-04
 0.62250000E+02  0.26038E-04
 0.62299999E+02  0.21843E-05
 0.62350002E+02 -0.30167E-04
 0.62400002E+02 -0.50503E-04
 0.62450001E+02 -0.41916E-04
 0.62500000E+02 -0.64730E-05
 0.62549999E+02  0.34098E-04
 0.62600002E+02  0.52705E-04
 0.62650002E+02  0.38914E-04
 0.62700001E+02  0.65864E-06
 0.62750000E+02 -0.39110E-04
 0.62799999E+02 -0.52851E-04
 0.62850002E+02 -0.35992E-04
 0.62900002E+02 -0.18058E-04
 0.62950001E+02 -0.28063E-04
 0.63000000E+02 -0.50588E-04
 0.63049999E+02 -0.46565E-04
 0.63100002E+02 -0.51740E-06
 0.63150002E+02  0.65781E-04
 0.63200001E+02  0.11062E-03
 0.63250000E+02  0.11508E-03
 0.63299999E+02  0.92237E-04
 0.63350002E+02  0.57945E-04
 0.63400002E+02  0.18088E-04
 0.63450001E+02 -0.31148E-04
 0.63500000E+02 -0.90164E-04
 0.63549999E+02 -0.13310E-03
 0.63600002E+02 -0.12918E-03
 0.63650002E+02 -0.89591E-04
 0.63700001E+02 -0.38380E-04
 0.63750000E+02  0.13740E-04
 0.63799999E+02  0.56324E-04
 0.63850002E+02  0.93089E-04
 0.63900002E+02  0.12475E-03
 0.63950001E+02  0.13888E-03
 0.64000000E+02  0.11759E-03
 0.64050003E+02  0.47874E-04
 0.64099998E+02 -0.53644E-04
 0.64150002E+02 -0.14260E-03
 0.64200005E+02 -0.18031E-03
 0.64250000E+02 -0.16570E-03
 0.64300003E+02 -0.10840E-03
 0.64349998E+02 -0.15985E-04
 0.64400002E+02  0.81276E-04
 0.64450005E+02  0.13961E-03
 0.64500000E+02  0.13512E-03
 0.64550003E+02  0.88564E-04
 0.64599998E+02  0.35098E-04
 0.64650002E+02 -0.81326E-05
 0.64700005E+02 -0.33349E-04
 0.64750000E+02 -0.40327E-04
 0.64800003E+02 -0.39328E-04
 0.64849998E+02 -0.35988E-04
 0.64900002E+02 -0.28634E-04
 0.64950005E+02 -0.25983E-04
 0.65000000E+02 -0.33715E-04
 0.65050003E+02 -0.39015E-04
 0.65099998E+02 -0.26996E-04
 0.65150002E+02  0.82135E-05
 0.65200005E+02  0.50463E-04
 0.65250000E+02  0.63455E-04
 0.65300003E+02  0.31335E-04
 0.65349998E+02 -0.22315E-04
 0.65400002E+02 -0.52437E-04
 0.65450005E+02 -0.30601E-04
 0.65500000E+02  0.23869E-04
 0.65550003E+02  0.69478E-04
 0.65599998E+02  0.90143E-04
 0.65650002E+02  0.93206E-04
 0.65700005E+02  0.87948E-04
 0.65750000E+02  0.83539E-04
 0.65800003E+02  0.62942E-04
 0.65849998E+02 -0.11116E-05
 0.65900002E+02 -0.94195E-04
 0.65950005E+02 -0.17291E-03
 0.66000000E+02 -0.19928E-03
 0.66050003E+02 -0.17043E-03
 0.66099998E+02 -0.11053E-03
 0.66150002E+02 -0.35696E-04
 0.66200005E+02  0.45454E-04
 0.66250000E+02  0.11198E-03
 0.66300003E+02  0.13686E-03
 0.66349998E+02  0.11250E-03
 0.66400002E+02  0.55229E-04
 0.66450005E+02  0.27830E-05
 0.66500000E+02 -0.12182E-04
 0.66550003E+02  0.83143E-05
 0.66599998E+02  0.32663E-04
 0.66650002E+02  0.25089E-04
 0.66700005E+02 -0.21800E-04
 0.66750000E+02 -0.78001E-04
 0.66800003E+02 -0.10466E-03
 0.66849998E+02 -0.86843E-04
 0.66900002E+02 -0.31263E-04
 0.66950005E+02  0.33902E-04
 0.67000000E+02  0.75610E-04
 0.67050003E+02  0.88492E-04
 0.67099998E+02  0.78558E-04
 0.67150002E+02  0.47136E-04
 0.67200005E+02  0.20942E-06
 0.67250000E+02 -0.48256E-04
 0.67300003E+02 -0.78313E-04
 0.67349998E+02 -0.77237E-04
 0.67400002E+02 -0.48268E-04
 0.67450005E+02  0.16136E-05
 0.67500000E+02  0.62692E-04
 0.67550003E+02  0.10945E-03
 0.67599998E+02  0.11638E-03
 0.67650002E+02  0.82006E-04
 0.67700005E+02  0.17923E-04
 0.67750000E+02 -0.54776E-04
 0.67800003E+02 -0.10841E-03
 0.67849998E+02 -0.12535E-03
 0.67900002E+02 -0.10751E-03
 0.67950005E+02 -0.71782E-04
 0.68000000E+02 -0.31892E-04
 0.68050003E+02  0.35866E-05
 0.68099998E+02  0.32101E-04
 0.68150002E+02  0.54163E-04
 0.68200005E+02  0.69567E-04
 0.68250000E+02  0.74558E-04
 0.68300003E+02  0.64946E-04
 0.68349998E+02  0.48814E-04
 0.68400002E+02  0.29107E-04
 0.68450005E+02  0.12718E-05
 0.68500000E+02 -0.33548E-04
 0.68550003E+02 -0.70537E-04
 0.68599998E+02 -0.92363E-04
 0.68650002E+02 -0.84279E-04
 0.68700005E+02 -0.53353E-04
 0.68750000E+02 -0.13916E-04
 0.68800003E+02  0.20957E-04
 0.68849998E+02  0.42307E-04
 0.68900002E+02  0.50523E-04
 0.68950005E+02  0.49895E-04
 0.69000000E+02  0.47345E-04
 0.69050003E+02  0.50991E-04
 0.69099998E+02  0.60332E-04
 0.69150002E+02  0.67736E-04
 0.69200005E+02  0.61509E-04
 0.69250000E+02  0.28879E-04
 0.69300003E+02 -0.30104E-04
 0.69349998E+02 -0.91272E-04
 0.69400002E+02 -0.12047E-03
 0.69450005E+02 -0.10749E-03
 0.69500000E+02 -0.71350E-04
 0.69550003E+02 -0.36074E-04
 0.69599998E+02 -0.79645E-05
 0.69650002E+02  0.16029E-04
 0.69700005E+02  0.29970E-04
 0.69750000E+02  0.29210E-04
 0.69800003E+02  0.14698E-04
 0.69849998E+02  0.92602E-06
 0.69900002E+02  0.46850E-05
 0.69950005E+02  0.21412E-04
 0.70000000E+02  0.39694E-04
 0.70050003E+02  0.45168E-04
 0.70099998E+02  0.34109E-04
 0.70150002E+02  0.17749E-04
 0.70200005E+02  0.22076E-05
 0.70250000E+02 -0.10104E-04
 0.70300003E+02 -0.23588E-04
 0.70349998E+02 -0.35385E-04
 0.70400002E+02 -0.30196E-04
 0.70450005E+02 -0.51292E-05
 0.70500000E+02  0.22878E-04
 0.70550003E+02  0.34402E-04
 0.70599998E+02  0.25293E-04
 0.70650002E+02  0.32621E-07
 0.70700005E+02 -0.28401E-04
 0.70750000E+02 -0.43951E-04
 0.70800003E+02 -0.41840E-04
 0.70849998E+02 -0.29569E-04
 0.70900002E+02 -0.13618E-04
 0.70950005E+02  0.78255E-05
 0.71000000E+02  0.30995E-04
 0.71050003E+02  0.52550E-04
 0.71099998E+02  0.65394E-04
 0.71150002E+02  0.57398E-04
 0.71200005E+02  0.27707E-04
 0.71250000E+02 -0.86611E-05
 0.71300003E+02 -0.32848E-04
 0.71349998E+02 -0.44024E-04
 0.71400002E+02 -0.41802E-04
 0.71450005E+02 -0.21971E-04
 0.71500000E+02  0.24512E-05
 0.71550003E+02  0.11276E-04
 0.71599998E+02  0.21695E-05
 0.71650002E+02 -0.12080E-04
 0.71700005E+02 -0.27805E-04
 0.71750000E+02 -0.39638E-04
 0.71800003E+02 -0.33034E-04
 0.71849998E+02 -0.60974E-05
 0.71900002E+02  0.23172E-04
 0.71950005E+02  0.37347E-04
 0.72000000E+02  0.37964E-04
 0.72050003E+02  0.32725E-04
 0.72099998E+02  0.23831E-04
 0.72150002E+02  0.81341E-05
 0.72200005E+02 -0.15662E-04
 0.72250000E+02 -0.39206E-04
 0.72300003E+02 -0.49592E-04
 0.72349998E+02 -0.38816E-04
 0.72400002E+02 -0.12893E-04
 0.72450005E+02  0.16023E-04
 0.72500000E+02  0.37960E-04
 0.72550003E+02  0.49359E-04
 0.72599998E+02  0.53595E-04
 0.72650002E+02  0.48362E-04
 0.72700005E+02  0.30837E-04
 0.72750000E+02  0.67621E-05
 0.72800003E+02 -0.16003E-04
 0.72849998E+02 -0.30701E-04
 0.72900002E+02 -0.31657E-04
 0.72950005E+02 -0.21682E-04
 0.73000000E+02 -0.84523E-05
 0.73050003E+02 -0.11316E-05
 0.73099998E+02 -0.47750E-05
 0.73150002E+02 -0.12542E-04
 0.73200005E+02 -0.21013E-04
 0.73250000E+02 -0.25011E-04
 0.73300003E+02 -0.18795E-04
 0.73349998E+02 -0.66092E-05
 0.73400002E+02  0.55634E-05
 0.73450005E+02  0.10776E-04
 0.73500000E+02  0.62777E-05
 0.73550003E+02 -0.66459E-05
 0.73599998E+02 -0.20821E-04
 0.73650002E+02 -0.26847E-04
 0.73700005E+02 -0.17010E-04
 0.73750000E+02  0.12041E-04
 0.73800003E+02  0.46221E-04
 0.73849998E+02  0.68059E-04
 0.73900002E+02  0.68819E-04
 0.73950005E+02  0.49187E-04
 0.74000000E+02  0.18897E-04
 0.74050003E+02 -0.10519E-04
 0.74099998E+02 -0.30319E-04
 0.74150002E+02 -0.42383E-04
 0.74200005E+02 -0.50871E-04
 0.74250000E+02 -0.51951E-04
 0.74300003E+02 -0.42291E-04
 0.74349998E+02 -0.26243E-04
 0.74400002E+02 -0.99388E-05
 0.74450005E+02  0.61538E-05
 0.74500000E+02  0.25610E-04
 0.74550003E+02  0.46056E-04
 0.74599998E+02  0.56022E-04
 0.74650002E+02  0.50730E-04
 0.74700005E+02  0.33211E-04
 0.74750000E+02  0.64700E-05
 0.74800003E+02 -0.22361E-04
 0.74849998E+02 -0.44064E-04
 0.74900002E+02 -0.50914E-04
 0.74950005E+02 -0.41267E-04
 0.75000000E+02 -0.25441E-04
 0.75050003E+02 -0.14036E-04
 0.75099998E+02 -0.70579E-05
 0.75150002E+02 -0.63431E-06
 0.75200005E+02  0.70535E-05
 0.75250000E+02  0.15429E-04
 0.75300003E+02  0.20790E-04
 0.75349998E+02  0.20378E-04
 0.75400002E+02  0.19899E-04
 0.75450005E+02  0.23490E-04
 0.75500000E+02  0.25228E-04
 0.75550003E+02  0.19110E-04
 0.75599998E+02  0.53104E-05
 0.75650002E+02 -0.10404E-04
 0.75700005E+02 -0.19459E-04
 0.75750000E+02 -0.15585E-04
 0.75800003E+02 -0.35435E-05
 0.75849998E+02  0.57738E-05
 0.75900002E+02  0.84827E-05
 0.75950005E+02  0.28722E-05
 0.76000000E+02 -0.87906E-05
 0.76050003E+02 -0.20913E-04
 0.76099998E+02 -0.31346E-04
 0.76150002E+02 -0.31684E-04
 0.76200005E+02 -0.14966E-04
 0.76250000E+02  0.10215E-04
 0.76300003E+02  0.29617E-04
 0.76349998E+02  0.36967E-04
 0.76400002E+02  0.32998E-04
 0.76450005E+02  0.21546E-04
 0.76500000E+02  0.85984E-05
 0.76550003E+02 -0.21874E-05
 0.76599998E+02 -0.10436E-04
 0.76650002E+02 -0.16149E-04
 0.76700005E+02 -0.16500E-04
 0.76750000E+02 -0.92526E-05
 0.76800003E+02  0.12152E-05
 0.76849998E+02  0.72151E-05
 0.76900002E+02  0.32811E-05
 0.76950005E+02 -0.88540E-05
 0.77000000E+02 -0.20380E-04
 0.77050003E+02 -0.23599E-04
 0.77099998E+02 -0.20131E-04
 0.77150002E+02 -0.16350E-04
 0.77200005E+02 -0.13651E-04
 0.77250000E+02 -0.97910E-05
 0.77300003E+02 -0.25292E-05
 0.77349998E+02  0.70566E-05
 0.77400002E+02  0.15717E-04
 0.77450005E+02  0.20957E-04
 0.77500000E+02  0.23668E-04
 0.77550003E+02  0.25744E-04
 0.77599998E+02  0.27851E-04
 0.77650002E+02  0.29087E-04
 0.77700005E+02  0.22243E-04
 0.77750000E+02  0.73519E-05
 0.77800003E+02 -0.67531E-05
 0.77849998E+02 -0.17658E-04
 0.77900002E+02 -0.24053E-04
 0.77950005E+02 -0.23795E-04
 0.78000000E+02 -0.18027E-04
 0.78050003E+02 -0.67049E-05
 0.78099998E+02  0.96534E-05
 0.78150002E+02  0.23063E-04
 0.78200005E+02  0.22133E-04
 0.78250000E+02  0.59848E-05
 0.78300003E+02 -0.14888E-04
 0.78349998E+02 -0.28468E-04
 0.78400002E+02 -0.28763E-04
 0.78450005E+02 -0.18314E-04
 0.78500000E+02 -0.33419E-05
 0.78550003E+02  0.84699E-05
 0.78599998E+02  0.13596E-04
 0.78650002E+02  0.14067E-04
 0.78700005E+02  0.11242E-04
 0.78750000E+02  0.61357E-05
 0.78800003E+02 -0.64292E-06
 0.78849998E+02 -0.83286E-05
 0.78900002E+02 -0.14263E-04
 0.78950005E+02 -0.16951E-04
 0.79000000E+02 -0.13493E-04
 0.79050003E+02 -0.27764E-05
 0.79099998E+02  0.79947E-05
 0.79150002E+02  0.12977E-04
 0.79200005E+02  0.92635E-05
 0.79250000E+02 -0.31512E-05
 0.79300003E+02 -0.13806E-04
 0.79349998E+02 -0.10248E-04
 0.79400002E+02  0.10004E-04
 0.79450005E+02  0.36546E-04
 0.79500000E+02  0.50810E-04
 0.79550003E+02  0.42909E-04
 0.79599998E+02  0.17917E-04
 0.79650002E+02 -0.10136E-04
 0.79700005E+02 -0.29759E-04
 0.79750000E+02 -0.40240E-04
 0.79800003E+02 -0.40703E-04
 0.79849998E+02 -0.32853E-04
 0.79900002E+02 -0.23493E-04
 0.79950005E+02 -0.14542E-04
 0.80000000E+02 -0.66484E-05
 0.80050003E+02 -0.28977E-05
 0.80099998E+02 -0.30751E-05
 0.80150002E+02  0.57653E-06
 0.80200005E+02  0.15241E-04
 0.80250000E+02  0.39543E-04
 0.80300003E+02  0.61605E-04
 0.80349998E+02  0.64937E-04
 0.80400002E+02  0.43868E-04
 0.80450005E+02  0.68873E-05
 0.80500000E+02 -0.29049E-04
 0.80550003E+02 -0.47165E-04
 0.80599998E+02 -0.42598E-04
 0.80650002E+02 -0.25108E-04
 0.80700005E+02 -0.81306E-05
 0.80750000E+02  0.39573E-05
 0.80800003E+02  0.10343E-04
 0.80849998E+02  0.73792E-05
 0.80900002E+02 -0.51707E-05
 0.80950005E+02 -0.18614E-04
 0.81000000E+02 -0.23318E-04
 0.81050003E+02 -0.21271E-04
 0.81099998E+02 -0.18354E-04
 0.81150002E+02 -0.13687E-04
 0.81200005E+02 -0.47962E-05
 0.81250000E+02  0.62212E-05
 0.81300003E+02  0.18791E-04
 0.81349998E+02  0.34874E-04
 0.81400002E+02  0.46902E-04
 0.81450005E+02  0.44606E-04
 0.81500000E+02  0.30237E-04
 0.81550003E+02  0.13735E-04
 0.81599998E+02 -0.66132E-06
 0.81650002E+02 -0.15699E-04
 0.81700005E+02 -0.30563E-04
 0.81750000E+02 -0.39265E-04
 0.81800003E+02 -0.34679E-04
 0.81849998E+02 -0.17386E-04
 0.81900002E+02  0.80559E-06
 0.81950005E+02  0.87280E-05
 0.82000000E+02  0.39809E-05
 0.82050003E+02 -0.62051E-05
 0.82099998E+02 -0.12197E-04
 0.82150002E+02 -0.80049E-05
 0.82200005E+02  0.58569E-05
 0.82250000E+02  0.20328E-04
 0.82300003E+02  0.25535E-04
 0.82349998E+02  0.18723E-04
 0.82400002E+02  0.39334E-05
 0.82450005E+02 -0.11181E-04
 0.82500000E+02 -0.19643E-04
 0.82550003E+02 -0.16633E-04
 0.82599998E+02 -0.47770E-05
 0.82650002E+02  0.60554E-05
 0.82700005E+02  0.12672E-04
 0.82750000E+02  0.14973E-04
 0.82800003E+02  0.12167E-04
 0.82849998E+02  0.63357E-05
 0.82900002E+02 -0.64845E-06
 0.82950005E+02 -0.67458E-05
 0.83000000E+02 -0.11443E-04
 0.83050003E+02 -0.13609E-04
 0.83099998E+02 -0.10566E-04
 0.83150002E+02 -0.21446E-05
 0.83200005E+02  0.85449E-05
 0.83250000E+02  0.16748E-04
 0.83300003E+02  0.18025E-04
 0.83349998E+02  0.10351E-04
 0.83400002E+02 -0.19879E-05
 0.83450005E+02 -0.12212E-04
 0.83500000E+02 -0.17382E-04
 0.83550003E+02 -0.16583E-04
 0.83599998E+02 -0.11902E-04
 0.83650002E+02 -0.76512E-05
 0.83700005E+02 -0.62439E-05
 0.83750000E+02 -0.56035E-05
 0.83800003E+02 -0.33950E-06
 0.83849998E+02  0.89474E-05
 0.83900002E+02  0.17519E-04
 0.83950005E+02  0.22507E-04
 0.84000000E+02  0.20571E-04
 0.84050003E+02  0.98685E-05
 0.84099998E+02 -0.47183E-05
 0.84150002E+02 -0.14195E-04
 0.84200005E+02 -0.14553E-04
 0.84250000E+02 -0.83329E-05
 0.84300003E+02 -0.52719E-06
 0.84349998E+02  0.54811E-05
 0.84400002E+02  0.82438E-05
 0.84450005E+02  0.76731E-05
 0.84500000E+02  0.45012E-05
 0.84550003E+02 -0.10694E-05
 0.84599998E+02 -0.74585E-05
 0.84650002E+02 -0.12576E-04
 0.84700005E+02 -0.14380E-04
 0.84750000E+02 -0.11688E-04
 0.84800003E+02 -0.50761E-05
 0.84849998E+02  0.46052E-05
 0.84900002E+02  0.15455E-04
 0.84950005E+02  0.24461E-04
 0.85000000E+02  0.27265E-04
 0.85050003E+02  0.18735E-04
 0.85099998E+02  0.11177E-05
 0.85150002E+02 -0.12948E-04
 0.85200005E+02 -0.17358E-04
 0.85250000E+02 -0.16238E-04
 0.85300003E+02 -0.11251E-04
 0.85349998E+02 -0.38331E-05
 0.85400002E+02  0.40723E-05
 0.85450005E+02  0.10030E-04
 0.85500000E+02  0.10894E-04
 0.85550003E+02  0.60802E-05
 0.85599998E+02 -0.44099E-05
 0.85650002E+02 -0.17487E-04
 0.85700005E+02 -0.26745E-04
 0.85750000E+02 -0.28570E-04
 0.85800003E+02 -0.23175E-04
 0.85849998E+02 -0.11448E-04
 0.85900002E+02  0.48472E-05
 0.85950005E+02  0.22531E-04
 0.86000000E+02  0.36546E-04
 0.86050003E+02  0.41498E-04
 0.86099998E+02  0.36519E-04
 0.86150002E+02  0.24382E-04
 0.86200005E+02  0.68012E-05
 0.86250000E+02 -0.14962E-04
 0.86300003E+02 -0.35949E-04
 0.86349998E+02 -0.48758E-04
 0.86400002E+02 -0.49373E-04
 0.86450005E+02 -0.38491E-04
 0.86500000E+02 -0.19317E-04
 0.86550003E+02  0.80051E-06
 0.86599998E+02  0.17368E-04
 0.86650002E+02  0.32584E-04
 0.86700005E+02  0.46006E-04
 0.86750000E+02  0.52375E-04
 0.86800003E+02  0.45964E-04
 0.86849998E+02  0.27706E-04
 0.86900002E+02  0.53877E-05
 0.86950005E+02 -0.14167E-04
 0.87000000E+02 -0.27955E-04
 0.87050003E+02 -0.33625E-04
 0.87099998E+02 -0.31097E-04
 0.87150002E+02 -0.24010E-04
 0.87200005E+02 -0.14772E-04
 0.87250000E+02 -0.43609E-05
 0.87300003E+02  0.46943E-05
 0.87349998E+02  0.82993E-05
 0.87400002E+02  0.73187E-05
 0.87450005E+02  0.71481E-05
 0.87500000E+02  0.10176E-04
 0.87550003E+02  0.14905E-04
 0.87599998E+02  0.16857E-04
 0.87650002E+02  0.12623E-04
 0.87700005E+02  0.30596E-05
 0.87750000E+02 -0.89257E-05
 0.87800003E+02 -0.18191E-04
 0.87849998E+02 -0.19959E-04
 0.87900002E+02 -0.14864E-04
 0.87950005E+02 -0.73211E-05
 0.88000000E+02 -0.46358E-06
 0.88050003E+02  0.48641E-05
 0.88099998E+02  0.63894E-05
 0.88150002E+02  0.39598E-05
 0.88200005E+02  0.24780E-06
 0.88250000E+02 -0.31202E-05
 0.88300003E+02 -0.43371E-05
 0.88349998E+02 -0.31691E-05
 0.88400002E+02  0.63886E-06
 0.88450005E+02  0.55770E-05
 0.88500000E+02  0.89210E-05
 0.88550003E+02  0.11654E-04
 0.88599998E+02  0.13442E-04
 0.88650002E+02  0.11734E-04
 0.88700005E+02  0.41931E-05
 0.88750000E+02 -0.74160E-05
 0.88800003E+02 -0.16976E-04
 0.88849998E+02 -0.19865E-04
 0.88900002E+02 -0.13578E-04
 0.88950005E+02 -0.63259E-06
 0.89000000E+02  0.12395E-04
 0.89050003E+02  0.19824E-04
 0.89099998E+02  0.18927E-04
 0.89150002E+02  0.12000E-04
 0.89200005E+02  0.32231E-05
 0.89250000E+02 -0.51608E-05
 0.89300003E+02 -0.13323E-04
 0.89349998E+02 -0.20618E-04
 0.89400002E+02 -0.24588E-04
 0.89450005E+02 -0.24201E-04
 0.89500000E+02 -0.19645E-04
 0.89550003E+02 -0.11830E-04
 0.89599998E+02 -0.89047E-06
 0.89650002E+02  0.11111E-04
 0.89700005E+02  0.19643E-04
 0.89750000E+02  0.22640E-04
 0.89800003E+02  0.20333E-04
 0.89849998E+02  0.14839E-04
 0.89900002E+02  0.93141E-05
 0.89950005E+02  0.71728E-05
 0.90000000E+02  0.79588E-05
 0.90050003E+02  0.65836E-05
 0.90099998E+02  0.23764E-06
 0.90150002E+02 -0.89483E-05
 0.90200005E+02 -0.15091E-04
 0.90250000E+02 -0.14873E-04
 0.90300003E+02 -0.10311E-04
 0.90349998E+02 -0.39614E-05
 0.90400002E+02  0.13317E-05
 0.90450005E+02  0.35284E-05
 0.90500000E+02  0.22302E-05
 0.90550003E+02 -0.11760E-05
 0.90599998E+02 -0.32228E-05
 0.90650002E+02 -0.27071E-05
 0.90700005E+02  0.18827E-05
 0.90750000E+02  0.10433E-04
 0.90800003E+02  0.16984E-04
 0.90849998E+02  0.16440E-04
 0.90900002E+02  0.81219E-05
 0.90950005E+02 -0.32639E-05
 0.91000000E+02 -0.12262E-04
 0.91050003E+02 -0.15908E-04
 0.91099998E+02 -0.12638E-04
 0.91150002E+02 -0.62864E-05
 0.91200005E+02 -0.10112E-05
 0.91250000E+02  0.13764E-05
 0.91300003E+02 -0.60928E-06
 0.91349998E+02 -0.48838E-05
 0.91400002E+02 -0.82857E-05
 0.91450005E+02 -0.92201E-05
 0.91500000E+02 -0.84958E-05
 0.91550003E+02 -0.73614E-05
 0.91599998E+02 -0.46041E-05
 0.91650002E+02  0.78272E-06
 0.91700005E+02  0.66327E-05
 0.91750000E+02  0.10943E-04
 0.91800003E+02  0.13196E-04
 0.91849998E+02  0.12578E-04
 0.91900002E+02  0.10873E-04
 0.91950005E+02  0.89850E-05
 0.92000000E+02  0.63001E-05
 0.92050003E+02  0.38709E-05
 0.92099998E+02  0.20644E-05
 0.92150002E+02  0.15100E-05
 0.92200005E+02  0.18466E-05
 0.92250000E+02  0.84612E-06
 0.92300003E+02 -0.12548E-05
 0.92349998E+02 -0.33735E-05
 0.92400002E+02 -0.55509E-05
 0.92450005E+02 -0.76305E-05
 0.92500000E+02 -0.10287E-04
 0.92550003E+02 -0.12351E-04
 0.92599998E+02 -0.11852E-04
 0.92650002E+02 -0.74643E-05
 0.92700005E+02  0.97612E-06
 0.92750000E+02  0.95264E-05
 0.92800003E+02  0.13867E-04
 0.92849998E+02  0.12913E-04
 0.92900002E+02  0.71040E-05
 0.92950005E+02 -0.21594E-05
 0.93000000E+02 -0.10716E-04
 0.93050003E+02 -0.14522E-04
 0.93099998E+02 -0.11114E-04
 0.93150002E+02 -0.18559E-05
 0.93200005E+02  0.80194E-05
 0.93250000E+02  0.14689E-04
 0.93300003E+02  0.15631E-04
 0.93349998E+02  0.10169E-04
 0.93400002E+02  0.10862E-05
 0.93450005E+02 -0.72451E-05
 0.93500000E+02 -0.11460E-04
 0.93550003E+02 -0.10389E-04
 0.93599998E+02 -0.49139E-05
 0.93650002E+02  0.25376E-05
 0.93700005E+02  0.86556E-05
 0.93750000E+02  0.11295E-04
 0.93800003E+02  0.95009E-05
 0.93849998E+02  0.31549E-05
 0.93900002E+02 -0.62362E-05
 0.93950005E+02 -0.14258E-04
 0.94000000E+02 -0.16996E-04
 0.94050003E+02 -0.14276E-04
 0.94099998E+02 -0.65205E-05
 0.94150002E+02  0.28993E-05
 0.94200005E+02  0.85397E-05
 0.94250000E+02  0.77313E-05
 0.94300003E+02  0.25119E-05
 0.94349998E+02 -0.21753E-05
 0.94400002E+02 -0.36180E-05
 0.94450005E+02 -0.10893E-05
 0.94500000E+02  0.44032E-05
 0.94550003E+02  0.96647E-05
 0.94599998E+02  0.10805E-04
 0.94650002E+02  0.69722E-05
 0.94700005E+02  0.27228E-05
 0.94750000E+02  0.89762E-06
 0.94800003E+02  0.14498E-05
 0.94849998E+02  0.34326E-05
 0.94900002E+02  0.37654E-05
 0.94950005E+02  0.19706E-05
 0.95000000E+02 -0.84601E-06
 0.95050003E+02 -0.48885E-05
 0.95099998E+02 -0.97018E-05
 0.95150002E+02 -0.12712E-04
 0.95200005E+02 -0.12243E-04
 0.95250000E+02 -0.98892E-05
 0.95300003E+02 -0.70672E-05
 0.95349998E+02 -0.56837E-05
 0.95400002E+02 -0.62085E-05
 0.95450005E+02 -0.56339E-05
 0.95500000E+02 -0.14878E-05
 0.95550003E+02  0.62960E-05
 0.95599998E+02  0.13489E-04
 0.95650002E+02  0.16959E-04
 0.95700005E+02  0.17288E-04
 0.95750000E+02  0.15133E-04
 0.95800003E+02  0.11280E-04
 0.95849998E+02  0.57779E-05
 0.95900002E+02 -0.14483E-05
 0.95950005E+02 -0.10056E-04
 0.96000000E+02 -0.16134E-04
 0.96050003E+02 -0.16131E-04
 0.96099998E+02 -0.99786E-05
 0.96150002E+02  0.12393E-05
 0.96200005E+02  0.13480E-04
 0.96250000E+02  0.21758E-04
 0.96300003E+02  0.21050E-04
 0.96349998E+02  0.11800E-04
 0.96400002E+02 -0.75477E-06
 0.96450005E+02 -0.13159E-04
 0.96500000E+02 -0.21942E-04
 0.96550003E+02 -0.24404E-04
 0.96599998E+02 -0.20739E-04
 0.96650002E+02 -0.12724E-04
 0.96700005E+02 -0.14332E-05
 0.96750000E+02  0.10601E-04
 0.96800003E+02  0.17920E-04
 0.96849998E+02  0.16272E-04
 0.96900002E+02  0.69333E-05
 0.96950005E+02 -0.49670E-05
 0.97000000E+02 -0.14488E-04
 0.97050003E+02 -0.16428E-04
 0.97099998E+02 -0.92184E-05
 0.97150002E+02  0.35548E-05
 0.97200005E+02  0.16335E-04
 0.97250000E+02  0.22031E-04
 0.97300003E+02  0.16882E-04
 0.97349998E+02  0.40645E-05
 0.97400002E+02 -0.95707E-05
 0.97450005E+02 -0.18218E-04
 0.97500000E+02 -0.18855E-04
 0.97550003E+02 -0.12355E-04
 0.97599998E+02 -0.32955E-05
 0.97650002E+02  0.31995E-05
 0.97700005E+02  0.55309E-05
 0.97750000E+02  0.69815E-05
 0.97800003E+02  0.10065E-04
 0.97849998E+02  0.12675E-04
 0.97900002E+02  0.12786E-04
 0.97950005E+02  0.10790E-04
 0.98000000E+02  0.63197E-05
 0.98050003E+02 -0.34774E-07
 0.98099998E+02 -0.58132E-05
 0.98150002E+02 -0.98898E-05
 0.98200005E+02 -0.12320E-04
 0.98250000E+02 -0.12911E-04
 0.98300003E+02 -0.11052E-04
 0.98349998E+02 -0.66813E-05
 0.98400002E+02 -0.74611E-06
 0.98450005E+02  0.50540E-05
 0.98500000E+02  0.90731E-05
 0.98550003E+02  0.10377E-04
 0.98599998E+02  0.93067E-05
 0.98650002E+02  0.70769E-05
 0.98700005E+02  0.39454E-05
 0.98750000E+02  0.31535E-06
 0.98800003E+02 -0.27905E-05
 0.98849998E+02 -0.59126E-05
 0.98900002E+02 -0.91445E-05
 0.98950005E+02 -0.10378E-04
 0.99000000E+02 -0.88198E-05
 0.99050003E+02 -0.50826E-05
 0.99099998E+02  0.37658E-06
 0.99150002E+02  0.56806E-05
 0.99200005E+02  0.83549E-05
 0.99250000E+02  0.68123E-05
 0.99300003E+02  0.25630E-05
 0.99349998E+02 -0.11956E-05
 0.99400002E+02 -0.42510E-05
 0.99450005E+02 -0.54070E-05
 0.99500000E+02 -0.29912E-05
 0.99550003E+02  0.15722E-05
 0.99599998E+02  0.67951E-05
 0.99650002E+02  0.11278E-04
 0.99700005E+02  0.13041E-04
 0.99750000E+02  0.10083E-04
 0.99800003E+02  0.37591E-05
 0.99849998E+02 -0.19516E-05
 0.99900002E+02 -0.50603E-05
 0.99950005E+02 -0.67532E-05
 0.10000000E+03 -0.87119E-05
