-0.20000458E-01  0.11700E-06
 0.29999543E-01  0.10839E-06
 0.79999544E-01  0.68760E-07
 0.12999955E+00  0.15456E-07
 0.17999955E+00 -0.66926E-08
 0.22999954E+00 -0.11740E-07
 0.27999955E+00 -0.49481E-08
 0.32999954E+00 -0.23492E-07
 0.37999955E+00 -0.56096E-07
 0.42999956E+00 -0.70404E-07
 0.47999954E+00 -0.45036E-07
 0.52999955E+00  0.37408E-08
 0.57999957E+00  0.32718E-08
 0.62999958E+00 -0.41091E-07
 0.67999953E+00 -0.65077E-07
 0.72999954E+00 -0.70573E-07
 0.77999955E+00 -0.80776E-07
 0.82999957E+00 -0.72211E-07
 0.87999958E+00 -0.71400E-07
 0.92999953E+00 -0.70969E-07
 0.97999954E+00 -0.48683E-07
 0.10299996E+01 -0.50282E-07
 0.10799996E+01 -0.46103E-07
 0.11299995E+01 -0.52999E-07
 0.11799996E+01 -0.58522E-07
 0.12299995E+01 -0.21951E-07
 0.12799996E+01  0.19109E-07
 0.13299996E+01  0.64875E-07
 0.13799995E+01  0.84823E-07
 0.14299996E+01  0.81949E-07
 0.14799995E+01  0.74221E-07
 0.15299996E+01  0.71224E-07
 0.15799996E+01  0.72666E-07
 0.16299995E+01  0.62162E-07
 0.16799996E+01  0.65108E-07
 0.17299995E+01  0.97413E-07
 0.17799996E+01  0.11170E-06
 0.18299996E+01  0.92559E-07
 0.18799995E+01  0.84726E-07
 0.19299996E+01  0.62878E-07
 0.19799995E+01  0.38224E-07
 0.20299995E+01  0.36348E-07
 0.20799997E+01  0.33157E-07
 0.21299996E+01  0.30077E-07
 0.21799996E+01  0.11708E-07
 0.22299995E+01 -0.27340E-07
 0.22799995E+01 -0.34112E-07
 0.23299997E+01 -0.24532E-07
 0.23799996E+01 -0.46005E-07
 0.24299996E+01 -0.68661E-07
 0.24799995E+01 -0.85597E-07
 0.25299995E+01 -0.85855E-07
 0.25799997E+01 -0.73532E-07
 0.26299996E+01 -0.67177E-07
 0.26799996E+01 -0.65625E-07
 0.27299995E+01 -0.68444E-07
 0.27799995E+01 -0.53105E-07
 0.28299997E+01 -0.37837E-07
 0.28799996E+01 -0.35488E-07
 0.29299996E+01 -0.26938E-07
 0.29799995E+01  0.23767E-08
 0.30299995E+01  0.34965E-07
 0.30799997E+01  0.29293E-07
 0.31299996E+01  0.11654E-07
 0.31799996E+01  0.15946E-07
 0.32299995E+01  0.34657E-07
 0.32799995E+01  0.44107E-07
 0.33299997E+01  0.14241E-07
 0.33799996E+01 -0.13746E-07
 0.34299996E+01  0.39451E-09
 0.34799995E+01  0.18052E-07
 0.35299995E+01  0.28159E-07
 0.35799997E+01  0.29118E-07
 0.36299996E+01  0.40960E-08
 0.36799996E+01  0.99873E-09
 0.37299995E+01  0.24093E-07
 0.37799995E+01  0.27650E-07
 0.38299997E+01  0.10005E-07
 0.38799996E+01 -0.10270E-07
 0.39299996E+01 -0.56745E-08
 0.39799995E+01  0.63488E-08
 0.40299997E+01  0.16579E-07
 0.40799994E+01  0.11324E-07
 0.41299996E+01 -0.12526E-07
 0.41799998E+01 -0.18894E-07
 0.42299995E+01 -0.16335E-07
 0.42799997E+01  0.26930E-08
 0.43299994E+01  0.13982E-07
 0.43799996E+01  0.28585E-08
 0.44299998E+01 -0.12434E-08
 0.44799995E+01 -0.18917E-07
 0.45299997E+01 -0.28034E-07
 0.45799994E+01 -0.78659E-08
 0.46299996E+01  0.26724E-08
 0.46799998E+01 -0.52279E-08
 0.47299995E+01 -0.18495E-07
 0.47799997E+01 -0.26217E-07
 0.48299994E+01 -0.27199E-07
 0.48799996E+01 -0.29139E-07
 0.49299998E+01 -0.24315E-07
 0.49799995E+01 -0.29052E-07
 0.50299997E+01 -0.49326E-07
 0.50799994E+01 -0.35768E-07
 0.51299996E+01 -0.13949E-07
 0.51799998E+01 -0.60563E-08
 0.52299995E+01  0.88110E-08
 0.52799997E+01  0.20201E-07
 0.53299994E+01  0.38930E-07
 0.53799996E+01  0.44319E-07
 0.54299998E+01  0.33499E-07
 0.54799995E+01  0.22470E-07
 0.55299997E+01  0.31531E-07
 0.55799994E+01  0.54845E-07
 0.56299996E+01  0.33008E-07
 0.56799998E+01  0.54014E-08
 0.57299995E+01  0.24052E-08
 0.57799997E+01  0.25219E-07
 0.58299994E+01  0.58558E-07
 0.58799996E+01  0.48212E-07
 0.59299998E+01  0.23026E-07
 0.59799995E+01  0.85179E-08
 0.60299997E+01  0.10643E-07
 0.60799994E+01  0.22800E-07
 0.61299996E+01  0.30629E-07
 0.61799998E+01  0.32724E-07
 0.62299995E+01  0.19557E-07
 0.62799997E+01  0.11638E-07
 0.63299994E+01  0.65557E-08
 0.63799996E+01  0.18379E-08
 0.64299998E+01  0.15904E-07
 0.64799995E+01  0.14330E-07
 0.65299997E+01 -0.20914E-07
 0.65799994E+01 -0.53719E-07
 0.66299996E+01 -0.83023E-07
 0.66799998E+01 -0.96313E-07
 0.67299995E+01 -0.84519E-07
 0.67799997E+01 -0.83444E-07
 0.68299994E+01 -0.72091E-07
 0.68799996E+01 -0.45739E-07
 0.69299998E+01 -0.31920E-07
 0.69799995E+01 -0.29579E-07
 0.70299997E+01 -0.22206E-07
 0.70799994E+01 -0.17092E-07
 0.71299996E+01  0.61988E-08
 0.71799998E+01  0.42072E-07
 0.72299995E+01  0.20463E-07
 0.72799997E+01 -0.76197E-08
 0.73299994E+01 -0.54490E-08
 0.73799996E+01  0.18979E-07
 0.74299998E+01  0.52691E-07
 0.74799995E+01  0.39327E-07
 0.75299997E+01  0.96582E-08
 0.75799994E+01 -0.64185E-08
 0.76299996E+01  0.26571E-08
 0.76799998E+01  0.32027E-07
 0.77299995E+01  0.48990E-07
 0.77799997E+01  0.48945E-07
 0.78299994E+01  0.43353E-07
 0.78799996E+01  0.37215E-07
 0.79299998E+01 -0.15373E-07
 0.79799995E+01 -0.77919E-07
 0.80299997E+01 -0.78924E-07
 0.80799999E+01 -0.26867E-07
 0.81300001E+01  0.26850E-07
 0.81799994E+01  0.37245E-07
 0.82299995E+01  0.29038E-07
 0.82799997E+01 -0.60488E-08
 0.83299999E+01 -0.32725E-07
 0.83800001E+01 -0.15521E-07
 0.84299994E+01  0.17028E-07
 0.84799995E+01  0.42360E-07
 0.85299997E+01  0.50079E-07
 0.85799999E+01  0.59393E-07
 0.86300001E+01  0.58498E-07
 0.86799994E+01  0.48799E-07
 0.87299995E+01  0.24680E-07
 0.87799997E+01  0.28662E-07
 0.88299999E+01  0.55472E-07
 0.88800001E+01  0.41419E-07
 0.89299994E+01  0.14634E-07
 0.89799995E+01 -0.19795E-07
 0.90299997E+01 -0.41684E-07
 0.90799999E+01 -0.28378E-07
 0.91300001E+01 -0.38185E-08
 0.91799994E+01  0.45512E-08
 0.92299995E+01 -0.30270E-08
 0.92799997E+01 -0.27447E-07
 0.93299999E+01 -0.70258E-07
 0.93800001E+01 -0.94401E-07
 0.94299994E+01 -0.83896E-07
 0.94799995E+01 -0.58771E-07
 0.95299997E+01 -0.37936E-07
 0.95799999E+01 -0.26651E-07
 0.96300001E+01 -0.41967E-07
 0.96799994E+01 -0.72648E-07
 0.97299995E+01 -0.94876E-07
 0.97799997E+01 -0.81009E-07
 0.98299999E+01 -0.29497E-07
 0.98800001E+01 -0.61318E-09
 0.99299994E+01  0.12369E-07
 0.99799995E+01  0.11548E-07
 0.10030000E+02  0.72980E-08
 0.10080000E+02  0.30545E-07
 0.10130000E+02  0.54882E-07
 0.10179999E+02  0.86583E-07
 0.10230000E+02  0.71071E-07
 0.10280000E+02  0.36542E-07
 0.10330000E+02  0.34525E-07
 0.10380000E+02  0.22770E-07
 0.10429999E+02  0.37631E-07
 0.10480000E+02  0.36451E-07
 0.10530000E+02  0.23913E-07
 0.10580000E+02  0.31657E-07
 0.10630000E+02  0.19403E-07
 0.10679999E+02  0.11150E-07
 0.10730000E+02  0.16377E-07
 0.10780000E+02  0.31227E-07
 0.10830000E+02  0.34282E-07
 0.10880000E+02  0.36668E-08
 0.10929999E+02 -0.38628E-07
 0.10980000E+02 -0.42382E-07
 0.11030000E+02 -0.16690E-07
 0.11080000E+02 -0.28324E-08
 0.11130000E+02  0.11874E-07
 0.11179999E+02  0.16159E-07
 0.11230000E+02  0.80570E-08
 0.11280000E+02  0.11299E-07
 0.11330000E+02  0.11073E-07
 0.11380000E+02 -0.25415E-08
 0.11429999E+02 -0.14797E-07
 0.11480000E+02 -0.29389E-07
 0.11530000E+02 -0.37086E-07
 0.11580000E+02 -0.42305E-07
 0.11630000E+02 -0.62289E-07
 0.11679999E+02 -0.67539E-07
 0.11730000E+02 -0.67811E-07
 0.11780000E+02 -0.56247E-07
 0.11830000E+02 -0.24043E-07
 0.11880000E+02 -0.11476E-07
 0.11929999E+02 -0.12512E-07
 0.11980000E+02 -0.29877E-07
 0.12030000E+02 -0.24169E-07
 0.12080000E+02  0.26163E-07
 0.12130000E+02  0.43995E-07
 0.12179999E+02  0.57022E-07
 0.12230000E+02  0.90384E-07
 0.12280000E+02  0.91474E-07
 0.12330000E+02  0.78767E-07
 0.12380000E+02  0.64522E-07
 0.12429999E+02  0.72802E-07
 0.12480000E+02  0.77622E-07
 0.12530000E+02  0.38134E-07
 0.12580000E+02  0.23490E-07
 0.12630000E+02  0.31548E-07
 0.12679999E+02  0.53518E-07
 0.12730000E+02  0.48632E-07
 0.12780000E+02  0.66460E-08
 0.12830000E+02 -0.45077E-08
 0.12880000E+02 -0.94353E-08
 0.12929999E+02 -0.15332E-07
 0.12980000E+02 -0.35821E-07
 0.13030000E+02 -0.36067E-07
 0.13080000E+02 -0.30065E-07
 0.13130000E+02 -0.45234E-07
 0.13179999E+02 -0.58318E-07
 0.13230000E+02 -0.81594E-07
 0.13280000E+02 -0.96491E-07
 0.13330000E+02 -0.97362E-07
 0.13380000E+02 -0.83110E-07
 0.13429999E+02 -0.77543E-07
 0.13480000E+02 -0.52368E-07
 0.13530000E+02 -0.33645E-07
 0.13580000E+02 -0.34544E-07
 0.13630000E+02 -0.24657E-07
 0.13679999E+02 -0.26586E-07
 0.13730000E+02 -0.16602E-07
 0.13780000E+02 -0.26337E-07
 0.13830000E+02 -0.21846E-07
 0.13880000E+02  0.21267E-08
 0.13929999E+02  0.61480E-08
 0.13980000E+02  0.16853E-07
 0.14030000E+02  0.22132E-07
 0.14080000E+02  0.34223E-07
 0.14130000E+02  0.38996E-07
 0.14179999E+02  0.36828E-07
 0.14230000E+02  0.35507E-07
 0.14280000E+02  0.35302E-07
 0.14330000E+02  0.50973E-07
 0.14380000E+02  0.68810E-07
 0.14429999E+02  0.78449E-07
 0.14480000E+02  0.68079E-07
 0.14530000E+02  0.60152E-07
 0.14580000E+02  0.43247E-07
 0.14630000E+02  0.33357E-07
 0.14679999E+02  0.56718E-07
 0.14730000E+02  0.67610E-07
 0.14780000E+02  0.64970E-07
 0.14830000E+02  0.36392E-07
 0.14880000E+02  0.20932E-08
 0.14929999E+02  0.57874E-08
 0.14980000E+02  0.58280E-08
 0.15030000E+02 -0.13718E-07
 0.15080000E+02 -0.11639E-07
 0.15130000E+02 -0.19622E-07
 0.15179999E+02 -0.36911E-07
 0.15230000E+02 -0.41772E-07
 0.15280000E+02 -0.50620E-07
 0.15330000E+02 -0.49666E-07
 0.15380000E+02 -0.46462E-07
 0.15429999E+02 -0.32986E-07
 0.15480000E+02 -0.26586E-07
 0.15530000E+02 -0.53195E-07
 0.15580000E+02 -0.85091E-07
 0.15630000E+02 -0.87296E-07
 0.15679999E+02 -0.74009E-07
 0.15730000E+02 -0.56281E-07
 0.15780000E+02 -0.32236E-07
 0.15830000E+02 -0.97979E-08
 0.15880000E+02  0.28169E-08
 0.15929999E+02 -0.81896E-08
 0.15980000E+02  0.14298E-07
 0.16030001E+02  0.49005E-07
 0.16080000E+02  0.52185E-07
 0.16129999E+02  0.39082E-07
 0.16180000E+02  0.23811E-07
 0.16230000E+02  0.43323E-07
 0.16280001E+02  0.54686E-07
 0.16330000E+02  0.37778E-07
 0.16379999E+02  0.71255E-08
 0.16430000E+02 -0.19629E-07
 0.16480000E+02 -0.10750E-07
 0.16530001E+02 -0.11413E-07
 0.16580000E+02 -0.21872E-07
 0.16629999E+02 -0.11679E-07
 0.16680000E+02  0.11173E-07
 0.16730000E+02  0.15379E-07
 0.16780001E+02  0.21641E-08
 0.16830000E+02 -0.27919E-07
 0.16879999E+02 -0.64306E-07
 0.16930000E+02 -0.44037E-07
 0.16980000E+02 -0.24937E-07
 0.17030001E+02 -0.15576E-07
 0.17080000E+02  0.12413E-07
 0.17129999E+02  0.17485E-07
 0.17180000E+02  0.19800E-07
 0.17230000E+02  0.26916E-07
 0.17280001E+02  0.39801E-07
 0.17330000E+02  0.56982E-07
 0.17379999E+02  0.58531E-07
 0.17430000E+02  0.41311E-07
 0.17480000E+02  0.38363E-07
 0.17530001E+02  0.54824E-07
 0.17580000E+02  0.61909E-07
 0.17629999E+02  0.56354E-07
 0.17680000E+02  0.43838E-07
 0.17730000E+02  0.41608E-07
 0.17780001E+02  0.30079E-07
 0.17830000E+02  0.81542E-08
 0.17879999E+02 -0.42328E-08
 0.17930000E+02 -0.10905E-07
 0.17980000E+02 -0.31316E-07
 0.18030001E+02 -0.60761E-07
 0.18080000E+02 -0.60087E-07
 0.18129999E+02 -0.65778E-07
 0.18180000E+02 -0.75093E-07
 0.18230000E+02 -0.80626E-07
 0.18280001E+02 -0.76533E-07
 0.18330000E+02 -0.33746E-07
 0.18379999E+02 -0.94176E-08
 0.18430000E+02 -0.79683E-08
 0.18480000E+02 -0.19445E-07
 0.18530001E+02 -0.75377E-08
 0.18580000E+02  0.15149E-07
 0.18629999E+02  0.11708E-07
 0.18680000E+02  0.17880E-07
 0.18730000E+02  0.10616E-07
 0.18780001E+02 -0.71887E-09
 0.18830000E+02 -0.46694E-08
 0.18879999E+02 -0.17778E-07
 0.18930000E+02 -0.24990E-07
 0.18980000E+02 -0.22482E-07
 0.19030001E+02 -0.13709E-07
 0.19080000E+02 -0.10010E-07
 0.19129999E+02 -0.17551E-07
 0.19180000E+02 -0.23073E-07
 0.19230000E+02 -0.11249E-07
 0.19280001E+02  0.17739E-07
 0.19330000E+02  0.27218E-07
 0.19379999E+02  0.21792E-07
 0.19430000E+02  0.21919E-07
 0.19480000E+02  0.32355E-07
 0.19530001E+02  0.53456E-07
 0.19580000E+02  0.48949E-07
 0.19629999E+02  0.39797E-07
 0.19680000E+02  0.55891E-07
 0.19730000E+02  0.69877E-07
 0.19780001E+02  0.58090E-07
 0.19830000E+02  0.33517E-07
 0.19879999E+02  0.17161E-07
 0.19930000E+02  0.11815E-07
 0.19980000E+02  0.26775E-07
 0.20030001E+02  0.39576E-07
 0.20080000E+02  0.25970E-07
 0.20129999E+02 -0.32482E-08
 0.20180000E+02 -0.32909E-07
 0.20230000E+02 -0.50919E-07
 0.20280001E+02 -0.62107E-07
 0.20330000E+02 -0.49149E-07
 0.20379999E+02 -0.41783E-07
 0.20430000E+02 -0.59330E-07
 0.20480000E+02 -0.70709E-07
 0.20530001E+02 -0.76987E-07
 0.20580000E+02 -0.62480E-07
 0.20629999E+02 -0.52584E-07
 0.20680000E+02 -0.54127E-07
 0.20730000E+02 -0.45876E-07
 0.20780001E+02 -0.15233E-07
 0.20830000E+02  0.77408E-08
 0.20879999E+02  0.29075E-07
 0.20930000E+02  0.63953E-07
 0.20980000E+02  0.62313E-07
 0.21030001E+02  0.52295E-07
 0.21080000E+02  0.40038E-07
 0.21129999E+02  0.22438E-07
 0.21180000E+02  0.19831E-07
 0.21230000E+02  0.17964E-07
 0.21280001E+02  0.22778E-07
 0.21330000E+02  0.30559E-07
 0.21379999E+02  0.38686E-07
 0.21430000E+02  0.35432E-07
 0.21480000E+02  0.18384E-07
 0.21530001E+02 -0.24133E-08
 0.21580000E+02 -0.11132E-07
 0.21629999E+02  0.95653E-08
 0.21680000E+02  0.10422E-07
 0.21730000E+02  0.50091E-08
 0.21780001E+02  0.83571E-08
 0.21830000E+02 -0.32134E-08
 0.21879999E+02 -0.24121E-07
 0.21930000E+02 -0.53765E-07
 0.21980000E+02 -0.47024E-07
 0.22030001E+02 -0.28906E-07
 0.22080000E+02 -0.38027E-07
 0.22129999E+02 -0.50142E-07
 0.22180000E+02 -0.46428E-07
 0.22230000E+02 -0.41015E-07
 0.22280001E+02 -0.28425E-07
 0.22330000E+02 -0.11077E-07
 0.22379999E+02 -0.39539E-08
 0.22430000E+02  0.17706E-07
 0.22480000E+02  0.21323E-07
 0.22530001E+02  0.25890E-07
 0.22580000E+02  0.33961E-07
 0.22629999E+02  0.24994E-07
 0.22680000E+02  0.27719E-07
 0.22730000E+02  0.23279E-07
 0.22780001E+02  0.13902E-07
 0.22830000E+02  0.28671E-07
 0.22879999E+02  0.42130E-07
 0.22930000E+02  0.15693E-07
 0.22980000E+02  0.98245E-08
 0.23030001E+02  0.15289E-07
 0.23080000E+02 -0.45663E-08
 0.23129999E+02 -0.36546E-08
 0.23180000E+02 -0.86005E-08
 0.23230000E+02 -0.10150E-07
 0.23280001E+02 -0.11726E-07
 0.23330000E+02 -0.24608E-07
 0.23379999E+02 -0.12722E-07
 0.23430000E+02 -0.13162E-07
 0.23480000E+02 -0.17746E-07
 0.23530001E+02 -0.13202E-07
 0.23580000E+02 -0.17615E-07
 0.23629999E+02 -0.13672E-07
 0.23680000E+02 -0.18897E-07
 0.23730000E+02 -0.47289E-07
 0.23780001E+02 -0.60302E-07
 0.23830000E+02 -0.35847E-07
 0.23879999E+02  0.69466E-08
 0.23930000E+02  0.18924E-07
 0.23980000E+02  0.17880E-08
 0.24030001E+02  0.67294E-08
 0.24080000E+02  0.22404E-07
 0.24129999E+02  0.39278E-07
 0.24180000E+02  0.40421E-07
 0.24230000E+02  0.34412E-07
 0.24280001E+02  0.37113E-07
 0.24330000E+02  0.45649E-07
 0.24379999E+02  0.56309E-07
 0.24430000E+02  0.46508E-07
 0.24480000E+02  0.41844E-07
 0.24530001E+02  0.30599E-07
 0.24580000E+02  0.83483E-08
 0.24629999E+02 -0.23993E-08
 0.24680000E+02  0.68529E-09
 0.24730000E+02  0.97773E-09
 0.24780001E+02 -0.20813E-07
 0.24830000E+02 -0.13080E-07
 0.24879999E+02  0.25313E-07
 0.24930000E+02  0.49068E-07
 0.24980000E+02  0.37064E-07
 0.25030001E+02  0.75169E-08
 0.25080000E+02 -0.55137E-08
 0.25129999E+02 -0.20417E-07
 0.25180000E+02 -0.30432E-07
 0.25230000E+02 -0.41633E-07
 0.25280001E+02 -0.50830E-07
 0.25330000E+02 -0.34240E-07
 0.25379999E+02 -0.36692E-07
 0.25430000E+02 -0.58614E-07
 0.25480000E+02 -0.57948E-07
 0.25530001E+02 -0.43779E-07
 0.25580000E+02 -0.21856E-07
 0.25629999E+02 -0.93015E-08
 0.25680000E+02 -0.10287E-07
 0.25730000E+02 -0.18946E-07
 0.25780001E+02 -0.40683E-07
 0.25830000E+02 -0.22934E-07
 0.25879999E+02  0.66005E-08
 0.25930000E+02  0.11034E-07
 0.25980000E+02  0.17184E-07
 0.26030001E+02 -0.28742E-09
 0.26080000E+02 -0.17993E-07
 0.26129999E+02 -0.26272E-07
 0.26180000E+02 -0.43217E-07
 0.26230000E+02 -0.31742E-07
 0.26280001E+02  0.16978E-08
 0.26330000E+02  0.36054E-07
 0.26379999E+02  0.46340E-07
 0.26430000E+02  0.28712E-07
 0.26480000E+02  0.15799E-07
 0.26530001E+02  0.92765E-08
 0.26580000E+02  0.31833E-08
 0.26629999E+02  0.62418E-08
 0.26680000E+02  0.22845E-07
 0.26730000E+02  0.38182E-07
 0.26780001E+02  0.38660E-07
 0.26830000E+02  0.33066E-07
 0.26879999E+02  0.23094E-07
 0.26930000E+02  0.29754E-07
 0.26980000E+02  0.33964E-07
 0.27030001E+02  0.19026E-07
 0.27080000E+02  0.37504E-07
 0.27129999E+02  0.54963E-07
 0.27180000E+02  0.50329E-07
 0.27230000E+02  0.32830E-07
 0.27280001E+02 -0.19981E-08
 0.27330000E+02 -0.85653E-08
 0.27379999E+02  0.49142E-09
 0.27430000E+02 -0.88827E-08
 0.27480000E+02 -0.16511E-07
 0.27530001E+02 -0.15651E-07
 0.27580000E+02  0.22337E-08
 0.27629999E+02  0.10030E-07
 0.27680000E+02 -0.41808E-08
 0.27730000E+02 -0.31830E-07
 0.27780001E+02 -0.79621E-07
 0.27830000E+02 -0.72891E-07
 0.27879999E+02 -0.65282E-07
 0.27930000E+02 -0.10525E-06
 0.27980000E+02 -0.18812E-06
 0.28030001E+02 -0.32913E-06
 0.28080000E+02 -0.62471E-06
 0.28129999E+02 -0.10120E-05
 0.28180000E+02 -0.94375E-06
 0.28230000E+02 -0.89381E-07
 0.28280001E+02  0.85062E-06
 0.28330000E+02  0.51081E-06
 0.28379999E+02  0.38347E-06
 0.28430000E+02  0.15458E-05
 0.28480000E+02  0.19206E-05
 0.28530001E+02  0.14292E-05
 0.28580000E+02  0.64017E-06
 0.28629999E+02 -0.18125E-06
 0.28680000E+02 -0.16976E-05
 0.28730000E+02 -0.28448E-05
 0.28780001E+02 -0.18433E-05
 0.28830000E+02 -0.98320E-06
 0.28879999E+02 -0.71488E-06
 0.28930000E+02 -0.16876E-06
 0.28980000E+02  0.24234E-06
 0.29030001E+02  0.21559E-06
 0.29080000E+02  0.15920E-05
 0.29129999E+02  0.38635E-05
 0.29180000E+02  0.28182E-05
 0.29230000E+02  0.92531E-07
 0.29280001E+02 -0.98040E-06
 0.29330000E+02 -0.79043E-06
 0.29379999E+02 -0.36281E-06
 0.29430000E+02 -0.63788E-06
 0.29480000E+02 -0.29355E-05
 0.29530001E+02 -0.45193E-05
 0.29580000E+02 -0.26328E-05
 0.29629999E+02 -0.48404E-06
 0.29680000E+02  0.23061E-05
 0.29730000E+02  0.41999E-05
 0.29780001E+02  0.30141E-05
 0.29830000E+02  0.40537E-05
 0.29879999E+02  0.52952E-05
 0.29930000E+02  0.34512E-05
 0.29980000E+02  0.23781E-05
 0.30030001E+02  0.46390E-06
 0.30080000E+02 -0.41950E-05
 0.30129999E+02 -0.83549E-05
 0.30180000E+02 -0.13451E-04
 0.30230000E+02 -0.14260E-04
 0.30280001E+02 -0.91616E-05
 0.30330000E+02 -0.75585E-05
 0.30379999E+02 -0.27188E-05
 0.30430000E+02  0.57461E-05
 0.30480000E+02  0.12911E-04
 0.30530001E+02  0.20499E-04
 0.30580000E+02  0.22449E-04
 0.30629999E+02  0.23242E-04
 0.30680000E+02  0.25257E-04
 0.30730000E+02  0.19357E-04
 0.30780001E+02  0.65049E-05
 0.30830000E+02 -0.78783E-05
 0.30879999E+02 -0.19491E-04
 0.30930000E+02 -0.30109E-04
 0.30980000E+02 -0.40657E-04
 0.31030001E+02 -0.43302E-04
 0.31080000E+02 -0.35334E-04
 0.31129999E+02 -0.20580E-04
 0.31180000E+02 -0.68079E-05
 0.31230000E+02  0.87446E-05
 0.31280001E+02  0.24938E-04
 0.31330000E+02  0.38257E-04
 0.31379999E+02  0.46536E-04
 0.31430000E+02  0.40785E-04
 0.31480000E+02  0.30547E-04
 0.31530001E+02  0.21052E-04
 0.31580000E+02  0.62293E-05
 0.31629999E+02 -0.10899E-04
 0.31680000E+02 -0.22636E-04
 0.31730000E+02 -0.27541E-04
 0.31780001E+02 -0.26744E-04
 0.31830000E+02 -0.25545E-04
 0.31879999E+02 -0.25060E-04
 0.31930000E+02 -0.21936E-04
 0.31980000E+02 -0.13210E-04
 0.32029999E+02 -0.83327E-05
 0.32080002E+02 -0.11302E-04
 0.32130001E+02  0.94821E-05
 0.32180000E+02  0.33078E-04
 0.32230000E+02  0.35728E-04
 0.32279999E+02  0.31002E-04
 0.32330002E+02  0.20147E-04
 0.32380001E+02  0.19300E-04
 0.32430000E+02  0.12706E-04
 0.32480000E+02 -0.62106E-05
 0.32529999E+02 -0.12706E-04
 0.32580002E+02 -0.13773E-04
 0.32630001E+02 -0.13997E-04
 0.32680000E+02 -0.86801E-05
 0.32730000E+02 -0.83662E-05
 0.32779999E+02 -0.14423E-04
 0.32830002E+02 -0.22921E-04
 0.32880001E+02 -0.23162E-04
 0.32930000E+02 -0.12318E-04
 0.32980000E+02 -0.37414E-05
 0.33029999E+02  0.93944E-05
 0.33080002E+02  0.15676E-04
 0.33130001E+02  0.14850E-04
 0.33180000E+02  0.14899E-04
 0.33230000E+02  0.94360E-05
 0.33279999E+02  0.83139E-05
 0.33330002E+02 -0.13624E-06
 0.33380001E+02  0.98891E-06
 0.33430000E+02  0.13455E-04
 0.33480000E+02  0.95091E-05
 0.33529999E+02  0.70633E-05
 0.33580002E+02  0.18545E-05
 0.33630001E+02 -0.99634E-05
 0.33680000E+02 -0.74473E-05
 0.33730000E+02 -0.78565E-05
 0.33779999E+02 -0.17813E-04
 0.33830002E+02 -0.89047E-05
 0.33880001E+02 -0.40384E-05
 0.33930000E+02 -0.14153E-04
 0.33980000E+02 -0.97221E-05
 0.34029999E+02 -0.38555E-05
 0.34080002E+02 -0.47391E-05
 0.34130001E+02 -0.10493E-05
 0.34180000E+02  0.73828E-05
 0.34230000E+02  0.13035E-04
 0.34279999E+02  0.15410E-04
 0.34330002E+02  0.14750E-04
 0.34380001E+02  0.16658E-04
 0.34430000E+02  0.22234E-04
 0.34480000E+02  0.10219E-04
 0.34529999E+02 -0.43172E-05
 0.34580002E+02  0.16127E-06
 0.34630001E+02  0.11486E-05
 0.34680000E+02 -0.83198E-05
 0.34730000E+02 -0.87410E-05
 0.34779999E+02 -0.98352E-05
 0.34830002E+02 -0.18235E-04
 0.34880001E+02 -0.15688E-04
 0.34930000E+02 -0.81958E-05
 0.34980000E+02 -0.20511E-06
 0.35029999E+02  0.93424E-05
 0.35080002E+02  0.14886E-04
 0.35130001E+02  0.14558E-04
 0.35180000E+02  0.66242E-05
 0.35230000E+02 -0.43400E-05
 0.35279999E+02 -0.38568E-05
 0.35330002E+02  0.47119E-05
 0.35380001E+02 -0.12011E-04
 0.35430000E+02 -0.26142E-04
 0.35480000E+02 -0.92573E-05
 0.35529999E+02  0.41797E-05
 0.35580002E+02  0.80182E-05
 0.35630001E+02  0.35895E-05
 0.35680000E+02  0.42047E-05
 0.35730000E+02  0.15626E-04
 0.35779999E+02  0.12902E-04
 0.35830002E+02 -0.74328E-06
 0.35880001E+02 -0.87911E-05
 0.35930000E+02 -0.61250E-05
 0.35980000E+02 -0.46882E-05
 0.36029999E+02 -0.40368E-05
 0.36080002E+02  0.39857E-06
 0.36130001E+02 -0.21653E-06
 0.36180000E+02 -0.34359E-05
 0.36230000E+02 -0.74004E-05
 0.36279999E+02 -0.34701E-05
 0.36330002E+02  0.22014E-05
 0.36380001E+02  0.32361E-05
 0.36430000E+02  0.69020E-05
 0.36480000E+02  0.10951E-05
 0.36529999E+02 -0.38486E-05
 0.36580002E+02  0.57744E-05
 0.36630001E+02  0.12411E-04
 0.36680000E+02  0.79212E-05
 0.36730000E+02 -0.84781E-06
 0.36779999E+02 -0.35566E-05
 0.36830002E+02  0.31811E-05
 0.36880001E+02  0.58932E-05
 0.36930000E+02 -0.62570E-05
 0.36980000E+02 -0.18456E-04
 0.37029999E+02 -0.94095E-05
 0.37080002E+02  0.91933E-05
 0.37130001E+02  0.60195E-05
 0.37180000E+02 -0.73962E-05
 0.37230000E+02 -0.51799E-05
 0.37279999E+02 -0.12223E-05
 0.37330002E+02 -0.27703E-05
 0.37380001E+02 -0.53556E-05
 0.37430000E+02  0.16781E-05
 0.37480000E+02  0.17748E-04
 0.37529999E+02  0.13419E-04
 0.37580002E+02 -0.58072E-05
 0.37630001E+02 -0.14968E-04
 0.37680000E+02 -0.64634E-05
 0.37730000E+02  0.10844E-04
 0.37779999E+02  0.13683E-04
 0.37830002E+02  0.45076E-05
 0.37880001E+02  0.40037E-05
 0.37930000E+02  0.12724E-04
 0.37980000E+02  0.50181E-05
 0.38029999E+02 -0.12328E-04
 0.38080002E+02 -0.47564E-05
 0.38130001E+02  0.11372E-04
 0.38180000E+02  0.10834E-04
 0.38230000E+02 -0.30123E-05
 0.38279999E+02 -0.16114E-04
 0.38330002E+02 -0.17327E-04
 0.38380001E+02 -0.14931E-04
 0.38430000E+02 -0.21099E-04
 0.38480000E+02 -0.17725E-04
 0.38529999E+02  0.76611E-05
 0.38580002E+02  0.17754E-04
 0.38630001E+02  0.48147E-05
 0.38680000E+02 -0.78438E-07
 0.38730000E+02  0.49842E-05
 0.38779999E+02  0.60339E-05
 0.38830002E+02  0.28969E-05
 0.38880001E+02 -0.24822E-05
 0.38930000E+02 -0.90851E-05
 0.38980000E+02 -0.13362E-04
 0.39029999E+02 -0.17012E-04
 0.39080002E+02 -0.67507E-05
 0.39130001E+02  0.11366E-04
 0.39180000E+02  0.16901E-04
 0.39230000E+02  0.13420E-04
 0.39279999E+02  0.53023E-05
 0.39330002E+02  0.44695E-05
 0.39380001E+02  0.10085E-04
 0.39430000E+02  0.82128E-05
 0.39480000E+02  0.18963E-05
 0.39529999E+02  0.34167E-05
 0.39580002E+02  0.10341E-04
 0.39630001E+02  0.79368E-05
 0.39680000E+02  0.12820E-05
 0.39730000E+02  0.16685E-05
 0.39779999E+02  0.44476E-05
 0.39830002E+02 -0.10007E-04
 0.39880001E+02 -0.34846E-04
 0.39930000E+02 -0.32815E-04
 0.39980000E+02 -0.53270E-05
 0.40029999E+02  0.17226E-04
 0.40080002E+02  0.18736E-04
 0.40130001E+02  0.60587E-05
 0.40180000E+02 -0.43812E-05
 0.40230000E+02 -0.11672E-04
 0.40279999E+02 -0.14981E-04
 0.40330002E+02 -0.12958E-04
 0.40380001E+02 -0.98110E-05
 0.40430000E+02  0.33121E-06
 0.40480000E+02  0.10479E-04
 0.40529999E+02  0.11207E-04
 0.40580002E+02  0.93789E-05
 0.40630001E+02  0.80855E-05
 0.40680000E+02  0.74330E-05
 0.40730000E+02  0.22899E-05
 0.40779999E+02  0.45809E-05
 0.40830002E+02  0.23336E-04
 0.40880001E+02  0.26271E-04
 0.40930000E+02  0.68919E-05
 0.40980000E+02 -0.10125E-04
 0.41029999E+02 -0.20513E-04
 0.41080002E+02 -0.20457E-04
 0.41130001E+02 -0.11064E-04
 0.41180000E+02 -0.14791E-04
 0.41230000E+02 -0.26173E-04
 0.41279999E+02 -0.19766E-04
 0.41330002E+02  0.21829E-05
 0.41380001E+02  0.21188E-04
 0.41430000E+02  0.21290E-04
 0.41480000E+02  0.15319E-04
 0.41529999E+02  0.19401E-04
 0.41580002E+02  0.22601E-04
 0.41630001E+02  0.10309E-04
 0.41680000E+02 -0.37668E-05
 0.41730000E+02 -0.29324E-05
 0.41779999E+02 -0.59329E-05
 0.41830002E+02 -0.18519E-04
 0.41880001E+02 -0.27653E-04
 0.41930000E+02 -0.25674E-04
 0.41980000E+02 -0.12774E-04
 0.42029999E+02 -0.41604E-05
 0.42080002E+02 -0.12309E-04
 0.42130001E+02 -0.16648E-04
 0.42180000E+02  0.51621E-05
 0.42230000E+02  0.24171E-04
 0.42279999E+02  0.24790E-04
 0.42330002E+02  0.20637E-04
 0.42380001E+02  0.16960E-04
 0.42430000E+02  0.21270E-04
 0.42480000E+02  0.21701E-04
 0.42529999E+02  0.16736E-04
 0.42580002E+02  0.13164E-04
 0.42630001E+02 -0.27998E-05
 0.42680000E+02 -0.25952E-04
 0.42730000E+02 -0.39024E-04
 0.42779999E+02 -0.34255E-04
 0.42830002E+02 -0.17481E-04
 0.42880001E+02 -0.48645E-05
 0.42930000E+02 -0.68409E-05
 0.42980000E+02 -0.14138E-04
 0.43029999E+02 -0.47723E-05
 0.43080002E+02  0.12960E-04
 0.43130001E+02  0.27181E-04
 0.43180000E+02  0.39884E-04
 0.43230000E+02  0.36066E-04
 0.43279999E+02  0.13962E-04
 0.43330002E+02 -0.10997E-04
 0.43380001E+02 -0.27465E-04
 0.43430000E+02 -0.26660E-04
 0.43480000E+02 -0.87300E-05
 0.43529999E+02  0.12344E-04
 0.43580002E+02  0.18341E-04
 0.43630001E+02  0.92612E-05
 0.43680000E+02  0.27764E-05
 0.43730000E+02 -0.15757E-05
 0.43779999E+02 -0.10374E-04
 0.43830002E+02 -0.16692E-04
 0.43880001E+02 -0.16407E-04
 0.43930000E+02 -0.17674E-04
 0.43980000E+02 -0.20443E-04
 0.44029999E+02 -0.94281E-05
 0.44080002E+02 -0.13399E-06
 0.44130001E+02 -0.11417E-06
 0.44180000E+02  0.10104E-04
 0.44230000E+02  0.20040E-04
 0.44279999E+02  0.18148E-04
 0.44330002E+02  0.14527E-04
 0.44380001E+02  0.12338E-04
 0.44430000E+02  0.77502E-05
 0.44480000E+02 -0.11935E-06
 0.44529999E+02 -0.78904E-05
 0.44580002E+02 -0.11009E-04
 0.44630001E+02 -0.14097E-04
 0.44680000E+02 -0.15686E-04
 0.44730000E+02 -0.88507E-05
 0.44779999E+02 -0.23825E-05
 0.44830002E+02  0.83462E-06
 0.44880001E+02  0.60566E-05
 0.44930000E+02  0.16751E-04
 0.44980000E+02  0.30524E-04
 0.45029999E+02  0.33929E-04
 0.45080002E+02  0.29325E-04
 0.45130001E+02  0.19295E-04
 0.45180000E+02  0.71564E-05
 0.45230000E+02 -0.96269E-06
 0.45279999E+02 -0.17655E-04
 0.45330002E+02 -0.36001E-04
 0.45380001E+02 -0.38420E-04
 0.45430000E+02 -0.26209E-04
 0.45480000E+02 -0.16136E-04
 0.45529999E+02 -0.15533E-04
 0.45580002E+02 -0.12588E-04
 0.45630001E+02 -0.10434E-04
 0.45680000E+02 -0.15888E-04
 0.45730000E+02 -0.15102E-04
 0.45779999E+02  0.19104E-05
 0.45830002E+02  0.18067E-04
 0.45880001E+02  0.20842E-04
 0.45930000E+02  0.21346E-04
 0.45980000E+02  0.23172E-04
 0.46029999E+02  0.24986E-04
 0.46080002E+02  0.23865E-04
 0.46130001E+02  0.12538E-04
 0.46180000E+02  0.37332E-05
 0.46230000E+02  0.10741E-05
 0.46279999E+02 -0.20373E-05
 0.46330002E+02 -0.50700E-05
 0.46380001E+02 -0.14025E-04
 0.46430000E+02 -0.15605E-04
 0.46480000E+02 -0.83798E-05
 0.46529999E+02 -0.51116E-05
 0.46580002E+02 -0.36245E-05
 0.46630001E+02 -0.97088E-05
 0.46680000E+02 -0.16068E-04
 0.46730000E+02 -0.17537E-04
 0.46779999E+02 -0.21433E-04
 0.46830002E+02 -0.20496E-04
 0.46880001E+02 -0.10543E-04
 0.46930000E+02  0.10245E-04
 0.46980000E+02  0.33506E-04
 0.47029999E+02  0.41484E-04
 0.47080002E+02  0.36597E-04
 0.47130001E+02  0.22506E-04
 0.47180000E+02  0.78548E-05
 0.47230000E+02  0.43513E-05
 0.47279999E+02 -0.45881E-05
 0.47330002E+02 -0.17867E-04
 0.47380001E+02 -0.19570E-04
 0.47430000E+02 -0.14891E-04
 0.47480000E+02 -0.62889E-05
 0.47529999E+02  0.30835E-06
 0.47580002E+02  0.12480E-05
 0.47630001E+02 -0.51433E-05
 0.47680000E+02 -0.16278E-04
 0.47730000E+02 -0.15685E-04
 0.47779999E+02 -0.79390E-06
 0.47830002E+02  0.15101E-04
 0.47880001E+02  0.17989E-04
 0.47930000E+02  0.16120E-04
 0.47980000E+02  0.18820E-04
 0.48029999E+02  0.17120E-04
 0.48080002E+02  0.48360E-05
 0.48130001E+02 -0.11253E-04
 0.48180000E+02 -0.15828E-04
 0.48230000E+02 -0.14685E-04
 0.48279999E+02 -0.13699E-04
 0.48330002E+02 -0.10614E-04
 0.48380001E+02 -0.56986E-05
 0.48430000E+02  0.22215E-05
 0.48480000E+02  0.34997E-05
 0.48529999E+02 -0.28546E-05
 0.48580002E+02 -0.85779E-05
 0.48630001E+02 -0.40413E-05
 0.48680000E+02  0.10993E-04
 0.48730000E+02  0.20613E-04
 0.48779999E+02  0.19724E-04
 0.48830002E+02  0.12227E-04
 0.48880001E+02  0.43651E-05
 0.48930000E+02  0.34614E-05
 0.48980000E+02  0.22927E-05
 0.49029999E+02 -0.74427E-05
 0.49080002E+02 -0.17365E-04
 0.49130001E+02 -0.24075E-04
 0.49180000E+02 -0.29798E-04
 0.49230000E+02 -0.28563E-04
 0.49279999E+02 -0.27224E-04
 0.49330002E+02 -0.24943E-04
 0.49380001E+02 -0.95231E-05
 0.49430000E+02  0.10362E-04
 0.49480000E+02  0.26997E-04
 0.49529999E+02  0.41510E-04
 0.49580002E+02  0.49713E-04
 0.49630001E+02  0.45475E-04
 0.49680000E+02  0.34979E-04
 0.49730000E+02  0.24391E-04
 0.49779999E+02  0.11195E-04
 0.49830002E+02 -0.25088E-05
 0.49880001E+02 -0.14027E-04
 0.49930000E+02 -0.18443E-04
 0.49980000E+02 -0.15983E-04
 0.50029999E+02 -0.12879E-04
 0.50080002E+02 -0.10290E-04
 0.50130001E+02 -0.83185E-05
 0.50180000E+02 -0.18028E-04
 0.50230000E+02 -0.34019E-04
 0.50279999E+02 -0.38786E-04
 0.50330002E+02 -0.35594E-04
 0.50380001E+02 -0.24125E-04
 0.50430000E+02 -0.11385E-04
 0.50480000E+02 -0.25106E-05
 0.50529999E+02  0.16935E-04
 0.50580002E+02  0.42676E-04
 0.50630001E+02  0.51831E-04
 0.50680000E+02  0.41114E-04
 0.50730000E+02  0.28414E-04
 0.50779999E+02  0.20534E-04
 0.50830002E+02  0.12987E-04
 0.50880001E+02 -0.99430E-06
 0.50930000E+02 -0.24064E-04
 0.50980000E+02 -0.41909E-04
 0.51029999E+02 -0.43334E-04
 0.51080002E+02 -0.33527E-04
 0.51130001E+02 -0.21390E-04
 0.51180000E+02 -0.12431E-04
 0.51230000E+02 -0.61812E-05
 0.51279999E+02 -0.44422E-05
 0.51330002E+02 -0.12890E-05
 0.51380001E+02  0.10109E-04
 0.51430000E+02  0.14851E-04
 0.51480000E+02  0.68571E-05
 0.51529999E+02  0.48464E-05
 0.51580002E+02  0.15752E-04
 0.51630001E+02  0.23511E-04
 0.51680000E+02  0.21663E-04
 0.51730000E+02  0.18039E-04
 0.51779999E+02  0.21573E-04
 0.51830002E+02  0.28587E-04
 0.51880001E+02  0.25926E-04
 0.51930000E+02  0.12399E-04
 0.51980000E+02 -0.71333E-05
 0.52029999E+02 -0.20856E-04
 0.52080002E+02 -0.30820E-04
 0.52130001E+02 -0.43362E-04
 0.52180000E+02 -0.42321E-04
 0.52230000E+02 -0.29280E-04
 0.52279999E+02 -0.14812E-04
 0.52330002E+02 -0.14358E-05
 0.52380001E+02  0.94045E-05
 0.52430000E+02  0.18061E-04
 0.52480000E+02  0.17622E-04
 0.52529999E+02  0.10619E-04
 0.52580002E+02  0.67065E-05
 0.52630001E+02  0.66596E-05
 0.52680000E+02  0.39057E-05
 0.52730000E+02  0.68659E-07
 0.52779999E+02  0.57032E-06
 0.52830002E+02  0.11873E-05
 0.52880001E+02 -0.37030E-05
 0.52930000E+02 -0.16297E-04
 0.52980000E+02 -0.26520E-04
 0.53029999E+02 -0.22735E-04
 0.53080002E+02 -0.31735E-05
 0.53130001E+02  0.22320E-04
 0.53180000E+02  0.43184E-04
 0.53230000E+02  0.57398E-04
 0.53279999E+02  0.62006E-04
 0.53330002E+02  0.54004E-04
 0.53380001E+02  0.34086E-04
 0.53430000E+02  0.16639E-04
 0.53480000E+02  0.83600E-06
 0.53529999E+02 -0.23994E-04
 0.53580002E+02 -0.41526E-04
 0.53630001E+02 -0.49346E-04
 0.53680000E+02 -0.61031E-04
 0.53730000E+02 -0.66727E-04
 0.53779999E+02 -0.54408E-04
 0.53830002E+02 -0.37007E-04
 0.53880001E+02 -0.20910E-04
 0.53930000E+02  0.53498E-05
 0.53980000E+02  0.40643E-04
 0.54029999E+02  0.71445E-04
 0.54080002E+02  0.81289E-04
 0.54130001E+02  0.63325E-04
 0.54180000E+02  0.33431E-04
 0.54230000E+02  0.23532E-05
 0.54279999E+02 -0.22771E-04
 0.54330002E+02 -0.26760E-04
 0.54380001E+02 -0.18398E-04
 0.54430000E+02 -0.11516E-04
 0.54480000E+02 -0.12008E-04
 0.54529999E+02 -0.19980E-04
 0.54580002E+02 -0.27504E-04
 0.54630001E+02 -0.35867E-04
 0.54680000E+02 -0.44975E-04
 0.54730000E+02 -0.44264E-04
 0.54779999E+02 -0.18713E-04
 0.54830002E+02  0.27280E-04
 0.54880001E+02  0.56605E-04
 0.54930000E+02  0.48869E-04
 0.54980000E+02  0.24384E-04
 0.55029999E+02  0.16201E-05
 0.55080002E+02 -0.83762E-05
 0.55130001E+02 -0.50090E-05
 0.55180000E+02  0.47844E-05
 0.55230000E+02  0.18331E-04
 0.55279999E+02  0.24957E-04
 0.55330002E+02  0.26483E-04
 0.55380001E+02  0.30057E-04
 0.55430000E+02  0.28155E-04
 0.55480000E+02  0.12508E-04
 0.55529999E+02 -0.21436E-04
 0.55580002E+02 -0.68014E-04
 0.55630001E+02 -0.99670E-04
 0.55680000E+02 -0.94056E-04
 0.55730000E+02 -0.57625E-04
 0.55779999E+02 -0.85252E-05
 0.55830002E+02  0.29383E-04
 0.55880001E+02  0.41292E-04
 0.55930000E+02  0.32311E-04
 0.55980000E+02  0.21498E-04
 0.56029999E+02  0.25456E-04
 0.56080002E+02  0.34853E-04
 0.56130001E+02  0.42839E-04
 0.56180000E+02  0.41458E-04
 0.56230000E+02  0.17895E-04
 0.56279999E+02 -0.11836E-04
 0.56330002E+02 -0.38170E-04
 0.56380001E+02 -0.52557E-04
 0.56430000E+02 -0.44297E-04
 0.56480000E+02 -0.23692E-04
 0.56529999E+02  0.40759E-05
 0.56580002E+02  0.31705E-04
 0.56630001E+02  0.45044E-04
 0.56680000E+02  0.37523E-04
 0.56730000E+02  0.18297E-04
 0.56779999E+02 -0.83679E-05
 0.56830002E+02 -0.38167E-04
 0.56880001E+02 -0.54978E-04
 0.56930000E+02 -0.56782E-04
 0.56980000E+02 -0.41429E-04
 0.57029999E+02 -0.99839E-05
 0.57080002E+02  0.33523E-04
 0.57130001E+02  0.78845E-04
 0.57180000E+02  0.95809E-04
 0.57230000E+02  0.74379E-04
 0.57279999E+02  0.35309E-04
 0.57330002E+02 -0.16791E-05
 0.57380001E+02 -0.28050E-04
 0.57430000E+02 -0.42055E-04
 0.57480000E+02 -0.49662E-04
 0.57529999E+02 -0.49604E-04
 0.57580002E+02 -0.41659E-04
 0.57630001E+02 -0.30513E-04
 0.57680000E+02 -0.91075E-05
 0.57730000E+02  0.18316E-04
 0.57779999E+02  0.39687E-04
 0.57830002E+02  0.48016E-04
 0.57880001E+02  0.34196E-04
 0.57930000E+02 -0.31166E-06
 0.57980000E+02 -0.44314E-04
 0.58029999E+02 -0.76381E-04
 0.58080002E+02 -0.75281E-04
 0.58130001E+02 -0.44208E-04
 0.58180000E+02  0.38759E-05
 0.58230000E+02  0.49911E-04
 0.58279999E+02  0.73127E-04
 0.58330002E+02  0.67703E-04
 0.58380001E+02  0.37074E-04
 0.58430000E+02  0.43461E-05
 0.58480000E+02 -0.46565E-05
 0.58529999E+02  0.12769E-05
 0.58580002E+02  0.13337E-05
 0.58630001E+02 -0.11530E-04
 0.58680000E+02 -0.32038E-04
 0.58730000E+02 -0.46111E-04
 0.58779999E+02 -0.45754E-04
 0.58830002E+02 -0.25293E-04
 0.58880001E+02  0.14330E-04
 0.58930000E+02  0.41381E-04
 0.58980000E+02  0.25620E-04
 0.59029999E+02 -0.13073E-04
 0.59080002E+02 -0.26996E-04
 0.59130001E+02  0.42022E-05
 0.59180000E+02  0.52806E-04
 0.59230000E+02  0.73757E-04
 0.59279999E+02  0.51109E-04
 0.59330002E+02  0.76001E-05
 0.59380001E+02 -0.17834E-04
 0.59430000E+02 -0.10538E-04
 0.59480000E+02  0.97337E-06
 0.59529999E+02 -0.17145E-04
 0.59580002E+02 -0.57243E-04
 0.59630001E+02 -0.82694E-04
 0.59680000E+02 -0.65722E-04
 0.59730000E+02 -0.18477E-04
 0.59779999E+02  0.17629E-04
 0.59830002E+02  0.41567E-04
 0.59880001E+02  0.71394E-04
 0.59930000E+02  0.10201E-03
 0.59980000E+02  0.11631E-03
 0.60029999E+02  0.88893E-04
 0.60080002E+02  0.20240E-04
 0.60130001E+02 -0.51801E-04
 0.60180000E+02 -0.91741E-04
 0.60230000E+02 -0.88351E-04
 0.60279999E+02 -0.46658E-04
 0.60330002E+02  0.55134E-05
 0.60380001E+02  0.35351E-04
 0.60430000E+02  0.28089E-04
 0.60480000E+02 -0.60283E-05
 0.60529999E+02 -0.45666E-04
 0.60580002E+02 -0.82475E-04
 0.60630001E+02 -0.98487E-04
 0.60680000E+02 -0.69359E-04
 0.60730000E+02  0.38037E-05
 0.60779999E+02  0.81495E-04
 0.60830002E+02  0.12153E-03
 0.60880001E+02  0.11270E-03
 0.60930000E+02  0.66185E-04
 0.60980000E+02  0.13101E-04
 0.61029999E+02 -0.21553E-04
 0.61080002E+02 -0.35530E-04
 0.61130001E+02 -0.46480E-04
 0.61180000E+02 -0.70183E-04
 0.61230000E+02 -0.94089E-04
 0.61279999E+02 -0.95991E-04
 0.61330002E+02 -0.68166E-04
 0.61380001E+02 -0.24186E-04
 0.61430000E+02  0.18992E-04
 0.61480000E+02  0.48698E-04
 0.61529999E+02  0.61625E-04
 0.61580002E+02  0.73359E-04
 0.61630001E+02  0.80863E-04
 0.61680000E+02  0.70220E-04
 0.61730000E+02  0.49605E-04
 0.61779999E+02  0.21254E-04
 0.61830002E+02 -0.52364E-05
 0.61880001E+02 -0.17603E-04
 0.61930000E+02 -0.34243E-04
 0.61980000E+02 -0.60173E-04
 0.62029999E+02 -0.66622E-04
 0.62080002E+02 -0.46345E-04
 0.62130001E+02 -0.28631E-04
 0.62180000E+02 -0.26391E-04
 0.62230000E+02 -0.36483E-04
 0.62279999E+02 -0.39251E-04
 0.62330002E+02 -0.21187E-04
 0.62380001E+02 -0.74353E-05
 0.62430000E+02 -0.50496E-05
 0.62480000E+02 -0.96420E-06
 0.62529999E+02  0.25939E-04
 0.62580002E+02  0.89313E-04
 0.62630001E+02  0.15847E-03
 0.62680000E+02  0.18813E-03
 0.62730000E+02  0.16223E-03
 0.62779999E+02  0.92732E-04
 0.62830002E+02  0.72390E-05
 0.62880001E+02 -0.60320E-04
 0.62930000E+02 -0.10548E-03
 0.62980000E+02 -0.14003E-03
 0.63029999E+02 -0.15267E-03
 0.63080002E+02 -0.12889E-03
 0.63130001E+02 -0.82143E-04
 0.63180000E+02 -0.50268E-04
 0.63230000E+02 -0.48509E-04
 0.63279999E+02 -0.55494E-04
 0.63330002E+02 -0.58584E-04
 0.63380001E+02 -0.48758E-04
 0.63430000E+02 -0.12537E-04
 0.63480000E+02  0.41001E-04
 0.63529999E+02  0.82936E-04
 0.63580002E+02  0.10859E-03
 0.63630001E+02  0.14254E-03
 0.63680000E+02  0.16598E-03
 0.63730000E+02  0.13842E-03
 0.63779999E+02  0.68233E-04
 0.63830002E+02 -0.17402E-05
 0.63880001E+02 -0.37460E-04
 0.63930000E+02 -0.42326E-04
 0.63980000E+02 -0.41706E-04
 0.64029999E+02 -0.44859E-04
 0.64080002E+02 -0.40562E-04
 0.64129997E+02 -0.27273E-04
 0.64180000E+02 -0.24590E-04
 0.64230003E+02 -0.37271E-04
 0.64279999E+02 -0.39694E-04
 0.64330002E+02 -0.21981E-04
 0.64379997E+02 -0.30655E-05
 0.64430000E+02 -0.18389E-05
 0.64480003E+02 -0.14987E-04
 0.64529999E+02 -0.25314E-04
 0.64580002E+02 -0.30583E-04
 0.64629997E+02 -0.29146E-04
 0.64680000E+02 -0.97296E-05
 0.64730003E+02  0.26994E-04
 0.64779999E+02  0.70838E-04
 0.64830002E+02  0.11229E-03
 0.64879997E+02  0.13072E-03
 0.64930000E+02  0.10679E-03
 0.64980003E+02  0.52967E-04
 0.65029999E+02 -0.25369E-05
 0.65080002E+02 -0.49657E-04
 0.65129997E+02 -0.86706E-04
 0.65180000E+02 -0.10393E-03
 0.65230003E+02 -0.94139E-04
 0.65279999E+02 -0.63689E-04
 0.65330002E+02 -0.32270E-04
 0.65379997E+02 -0.13637E-04
 0.65430000E+02 -0.87255E-05
 0.65480003E+02 -0.17018E-04
 0.65529999E+02 -0.29450E-04
 0.65580002E+02 -0.32130E-04
 0.65629997E+02 -0.12059E-04
 0.65680000E+02  0.36754E-04
 0.65730003E+02  0.91872E-04
 0.65779999E+02  0.11514E-03
 0.65830002E+02  0.86190E-04
 0.65879997E+02  0.24147E-04
 0.65930000E+02 -0.32049E-04
 0.65980003E+02 -0.54173E-04
 0.66029999E+02 -0.34438E-04
 0.66080002E+02  0.32694E-05
 0.66129997E+02  0.27737E-04
 0.66180000E+02  0.29151E-04
 0.66230003E+02  0.12110E-04
 0.66279999E+02 -0.12005E-04
 0.66330002E+02 -0.29727E-04
 0.66379997E+02 -0.42085E-04
 0.66430000E+02 -0.53039E-04
 0.66480003E+02 -0.49097E-04
 0.66529999E+02 -0.24451E-04
 0.66580002E+02  0.11353E-04
 0.66629997E+02  0.41287E-04
 0.66680000E+02  0.50655E-04
 0.66730003E+02  0.40890E-04
 0.66779999E+02  0.21020E-04
 0.66830002E+02  0.47883E-05
 0.66879997E+02 -0.93825E-05
 0.66930000E+02 -0.23476E-04
 0.66980003E+02 -0.21110E-04
 0.67029999E+02 -0.48424E-05
 0.67080002E+02  0.13385E-04
 0.67129997E+02  0.26948E-04
 0.67180000E+02  0.29036E-04
 0.67230003E+02  0.19505E-04
 0.67279999E+02  0.20064E-05
 0.67330002E+02 -0.20892E-04
 0.67379997E+02 -0.39104E-04
 0.67430000E+02 -0.38665E-04
 0.67480003E+02 -0.23216E-04
 0.67529999E+02 -0.77802E-05
 0.67580002E+02 -0.17596E-05
 0.67629997E+02 -0.35409E-05
 0.67680000E+02 -0.56749E-05
 0.67730003E+02  0.24787E-05
 0.67779999E+02  0.23553E-04
 0.67830002E+02  0.44635E-04
 0.67879997E+02  0.54407E-04
 0.67930000E+02  0.53012E-04
 0.67980003E+02  0.39642E-04
 0.68029999E+02  0.88634E-05
 0.68080002E+02 -0.23772E-04
 0.68129997E+02 -0.38142E-04
 0.68180000E+02 -0.36800E-04
 0.68230003E+02 -0.25837E-04
 0.68279999E+02 -0.12916E-04
 0.68330002E+02 -0.84249E-05
 0.68379997E+02 -0.12898E-04
 0.68430000E+02 -0.21321E-04
 0.68480003E+02 -0.28035E-04
 0.68529999E+02 -0.29581E-04
 0.68580002E+02 -0.30839E-04
 0.68629997E+02 -0.30487E-04
 0.68680000E+02 -0.15541E-04
 0.68730003E+02  0.15985E-04
 0.68779999E+02  0.48707E-04
 0.68830002E+02  0.66808E-04
 0.68879997E+02  0.68679E-04
 0.68930000E+02  0.61430E-04
 0.68980003E+02  0.49822E-04
 0.69029999E+02  0.29011E-04
 0.69080002E+02  0.73309E-06
 0.69129997E+02 -0.20552E-04
 0.69180000E+02 -0.32709E-04
 0.69230003E+02 -0.37659E-04
 0.69279999E+02 -0.33969E-04
 0.69330002E+02 -0.30911E-04
 0.69379997E+02 -0.36237E-04
 0.69430000E+02 -0.43943E-04
 0.69480003E+02 -0.49425E-04
 0.69529999E+02 -0.50279E-04
 0.69580002E+02 -0.43582E-04
 0.69629997E+02 -0.29216E-04
 0.69680000E+02 -0.77096E-05
 0.69730003E+02  0.12377E-04
 0.69779999E+02  0.25727E-04
 0.69830002E+02  0.39681E-04
 0.69879997E+02  0.53456E-04
 0.69930000E+02  0.56021E-04
 0.69980003E+02  0.51496E-04
 0.70029999E+02  0.50311E-04
 0.70080002E+02  0.47177E-04
 0.70129997E+02  0.33972E-04
 0.70180000E+02  0.12424E-04
 0.70230003E+02 -0.95214E-05
 0.70279999E+02 -0.21720E-04
 0.70330002E+02 -0.21543E-04
 0.70379997E+02 -0.22748E-04
 0.70430000E+02 -0.36029E-04
 0.70480003E+02 -0.56337E-04
 0.70529999E+02 -0.71666E-04
 0.70580002E+02 -0.70513E-04
 0.70629997E+02 -0.46210E-04
 0.70680000E+02  0.34952E-05
 0.70730003E+02  0.61910E-04
 0.70779999E+02  0.10073E-03
 0.70830002E+02  0.10922E-03
 0.70879997E+02  0.92443E-04
 0.70930000E+02  0.60331E-04
 0.70980003E+02  0.24623E-04
 0.71029999E+02 -0.81761E-05
 0.71080002E+02 -0.33598E-04
 0.71129997E+02 -0.48065E-04
 0.71180000E+02 -0.53965E-04
 0.71230003E+02 -0.52049E-04
 0.71279999E+02 -0.46117E-04
 0.71330002E+02 -0.41024E-04
 0.71379997E+02 -0.33619E-04
 0.71430000E+02 -0.19086E-04
 0.71480003E+02  0.19776E-05
 0.71529999E+02  0.18374E-04
 0.71580002E+02  0.17202E-04
 0.71629997E+02  0.78218E-08
 0.71680000E+02 -0.19209E-04
 0.71730003E+02 -0.29048E-04
 0.71779999E+02 -0.26524E-04
 0.71830002E+02 -0.15573E-04
 0.71879997E+02 -0.30482E-05
 0.71930000E+02  0.48211E-05
 0.71980003E+02  0.54001E-05
 0.72029999E+02  0.38049E-05
 0.72080002E+02  0.89239E-05
 0.72129997E+02  0.20714E-04
 0.72180000E+02  0.34445E-04
 0.72230003E+02  0.51491E-04
 0.72279999E+02  0.67130E-04
 0.72330002E+02  0.72428E-04
 0.72379997E+02  0.63334E-04
 0.72430000E+02  0.36222E-04
 0.72480003E+02 -0.50343E-05
 0.72529999E+02 -0.48858E-04
 0.72580002E+02 -0.80148E-04
 0.72629997E+02 -0.88717E-04
 0.72680000E+02 -0.80816E-04
 0.72730003E+02 -0.63126E-04
 0.72779999E+02 -0.38782E-04
 0.72830002E+02 -0.14171E-04
 0.72879997E+02  0.98828E-05
 0.72930000E+02  0.33770E-04
 0.72980003E+02  0.53923E-04
 0.73029999E+02  0.64015E-04
 0.73080002E+02  0.57111E-04
 0.73129997E+02  0.36508E-04
 0.73180000E+02  0.12985E-04
 0.73230003E+02 -0.52134E-05
 0.73279999E+02 -0.12419E-04
 0.73330002E+02 -0.13885E-04
 0.73379997E+02 -0.18793E-04
 0.73430000E+02 -0.23305E-04
 0.73480003E+02 -0.21784E-04
 0.73529999E+02 -0.14533E-04
 0.73580002E+02 -0.52055E-05
 0.73629997E+02  0.26358E-05
 0.73680000E+02  0.10553E-04
 0.73730003E+02  0.19353E-04
 0.73779999E+02  0.27359E-04
 0.73830002E+02  0.31586E-04
 0.73879997E+02  0.27884E-04
 0.73930000E+02  0.15225E-04
 0.73980003E+02 -0.26676E-05
 0.74029999E+02 -0.18355E-04
 0.74080002E+02 -0.26019E-04
 0.74129997E+02 -0.25689E-04
 0.74180000E+02 -0.19127E-04
 0.74230003E+02 -0.10879E-04
 0.74279999E+02 -0.51974E-05
 0.74330002E+02 -0.93287E-06
 0.74379997E+02  0.16616E-05
 0.74430000E+02  0.20913E-05
 0.74480003E+02  0.57065E-06
 0.74529999E+02 -0.14392E-05
 0.74580002E+02 -0.18969E-05
 0.74629997E+02  0.12860E-05
 0.74680000E+02  0.12099E-04
 0.74730003E+02  0.28072E-04
 0.74779999E+02  0.39506E-04
 0.74830002E+02  0.35928E-04
 0.74879997E+02  0.15412E-04
 0.74930000E+02 -0.13817E-04
 0.74980003E+02 -0.40065E-04
 0.75029999E+02 -0.52370E-04
 0.75080002E+02 -0.48599E-04
 0.75129997E+02 -0.33996E-04
 0.75180000E+02 -0.15796E-04
 0.75230003E+02 -0.29856E-05
 0.75279999E+02 -0.10727E-05
 0.75330002E+02 -0.63251E-05
 0.75379997E+02 -0.10260E-04
 0.75430000E+02 -0.54510E-05
 0.75480003E+02  0.10323E-04
 0.75529999E+02  0.26979E-04
 0.75580002E+02  0.36033E-04
 0.75629997E+02  0.37866E-04
 0.75680000E+02  0.31689E-04
 0.75730003E+02  0.19306E-04
 0.75779999E+02  0.25097E-05
 0.75830002E+02 -0.16166E-04
 0.75879997E+02 -0.29832E-04
 0.75930000E+02 -0.34145E-04
 0.75980003E+02 -0.28340E-04
 0.76029999E+02 -0.13521E-04
 0.76080002E+02  0.51499E-05
 0.76129997E+02  0.19179E-04
 0.76180000E+02  0.26040E-04
 0.76230003E+02  0.25065E-04
 0.76279999E+02  0.12569E-04
 0.76330002E+02 -0.62335E-05
 0.76379997E+02 -0.21468E-04
 0.76430000E+02 -0.26437E-04
 0.76480003E+02 -0.20004E-04
 0.76529999E+02 -0.76240E-05
 0.76580002E+02  0.77654E-05
 0.76629997E+02  0.23856E-04
 0.76680000E+02  0.36106E-04
 0.76730003E+02  0.41377E-04
 0.76779999E+02  0.37848E-04
 0.76830002E+02  0.26226E-04
 0.76879997E+02  0.10475E-04
 0.76930000E+02 -0.25198E-05
 0.76980003E+02 -0.78604E-05
 0.77029999E+02 -0.80216E-05
 0.77080002E+02 -0.11633E-04
 0.77129997E+02 -0.23362E-04
 0.77180000E+02 -0.35960E-04
 0.77230003E+02 -0.40666E-04
 0.77279999E+02 -0.34839E-04
 0.77330002E+02 -0.21016E-04
 0.77379997E+02 -0.74140E-05
 0.77430000E+02  0.34400E-06
 0.77480003E+02  0.39770E-05
 0.77529999E+02  0.85832E-05
 0.77580002E+02  0.16399E-04
 0.77629997E+02  0.24397E-04
 0.77680000E+02  0.29351E-04
 0.77730003E+02  0.29699E-04
 0.77779999E+02  0.26906E-04
 0.77830002E+02  0.20893E-04
 0.77879997E+02  0.10823E-04
 0.77930000E+02  0.57391E-06
 0.77980003E+02 -0.84004E-05
 0.78029999E+02 -0.14029E-04
 0.78080002E+02 -0.13016E-04
 0.78129997E+02 -0.83781E-05
 0.78180000E+02 -0.31611E-05
 0.78230003E+02  0.92404E-06
 0.78279999E+02 -0.12302E-05
 0.78330002E+02 -0.11262E-04
 0.78379997E+02 -0.24756E-04
 0.78430000E+02 -0.34989E-04
 0.78480003E+02 -0.36574E-04
 0.78529999E+02 -0.31130E-04
 0.78580002E+02 -0.22934E-04
 0.78629997E+02 -0.14289E-04
 0.78680000E+02 -0.55557E-05
 0.78730003E+02  0.25567E-05
 0.78779999E+02  0.72744E-05
 0.78830002E+02  0.74981E-05
 0.78879997E+02  0.44637E-05
 0.78930000E+02  0.14025E-05
 0.78980003E+02  0.20780E-05
 0.79029999E+02  0.76050E-05
 0.79080002E+02  0.15734E-04
 0.79129997E+02  0.23507E-04
 0.79180000E+02  0.29415E-04
 0.79230003E+02  0.32448E-04
 0.79279999E+02  0.31512E-04
 0.79330002E+02  0.27737E-04
 0.79379997E+02  0.24029E-04
 0.79430000E+02  0.19975E-04
 0.79480003E+02  0.14302E-04
 0.79529999E+02  0.64197E-05
 0.79580002E+02 -0.51401E-05
 0.79629997E+02 -0.18796E-04
 0.79680000E+02 -0.30582E-04
 0.79730003E+02 -0.36060E-04
 0.79779999E+02 -0.31992E-04
 0.79830002E+02 -0.17716E-04
 0.79879997E+02  0.29655E-05
 0.79930000E+02  0.21842E-04
 0.79980003E+02  0.32657E-04
 0.80029999E+02  0.32317E-04
 0.80080002E+02  0.22146E-04
 0.80129997E+02  0.89653E-05
 0.80180000E+02 -0.96399E-06
 0.80230003E+02 -0.69742E-05
 0.80279999E+02 -0.11681E-04
 0.80330002E+02 -0.18156E-04
 0.80379997E+02 -0.26822E-04
 0.80430000E+02 -0.33971E-04
 0.80480003E+02 -0.38151E-04
 0.80529999E+02 -0.38786E-04
 0.80580002E+02 -0.34139E-04
 0.80629997E+02 -0.25223E-04
 0.80680000E+02 -0.12885E-04
 0.80730003E+02  0.29077E-05
 0.80779999E+02  0.18790E-04
 0.80830002E+02  0.31447E-04
 0.80879997E+02  0.40095E-04
 0.80930000E+02  0.42722E-04
 0.80980003E+02  0.39479E-04
 0.81029999E+02  0.33236E-04
 0.81080002E+02  0.25157E-04
 0.81129997E+02  0.15242E-04
 0.81180000E+02  0.25654E-05
 0.81230003E+02 -0.13034E-04
 0.81279999E+02 -0.27503E-04
 0.81330002E+02 -0.34996E-04
 0.81379997E+02 -0.32904E-04
 0.81430000E+02 -0.24265E-04
 0.81480003E+02 -0.16618E-04
 0.81529999E+02 -0.14270E-04
 0.81580002E+02 -0.14348E-04
 0.81629997E+02 -0.11835E-04
 0.81680000E+02 -0.57558E-05
 0.81730003E+02  0.93144E-06
 0.81779999E+02  0.62113E-05
 0.81830002E+02  0.88183E-05
 0.81879997E+02  0.87321E-05
 0.81930000E+02  0.75206E-05
 0.81980003E+02  0.60356E-05
 0.82029999E+02  0.39294E-05
 0.82080002E+02  0.10105E-05
 0.82129997E+02 -0.22253E-05
 0.82180000E+02 -0.50511E-05
 0.82230003E+02 -0.63766E-05
 0.82279999E+02 -0.66504E-05
 0.82330002E+02 -0.51951E-05
 0.82379997E+02 -0.28764E-06
 0.82430000E+02  0.48298E-05
 0.82480003E+02  0.58389E-05
 0.82529999E+02  0.51437E-05
 0.82580002E+02  0.68302E-05
 0.82629997E+02  0.97593E-05
 0.82680000E+02  0.12336E-04
 0.82730003E+02  0.14970E-04
 0.82779999E+02  0.18384E-04
 0.82830002E+02  0.22543E-04
 0.82879997E+02  0.24941E-04
 0.82930000E+02  0.24534E-04
 0.82980003E+02  0.22252E-04
 0.83029999E+02  0.17769E-04
 0.83080002E+02  0.10888E-04
 0.83129997E+02  0.92369E-06
 0.83180000E+02 -0.11418E-04
 0.83230003E+02 -0.22585E-04
 0.83279999E+02 -0.31346E-04
 0.83330002E+02 -0.38209E-04
 0.83379997E+02 -0.41992E-04
 0.83430000E+02 -0.41608E-04
 0.83480003E+02 -0.36135E-04
 0.83529999E+02 -0.25995E-04
 0.83580002E+02 -0.14016E-04
 0.83629997E+02 -0.14431E-05
 0.83680000E+02  0.11674E-04
 0.83730003E+02  0.22309E-04
 0.83779999E+02  0.27600E-04
 0.83830002E+02  0.27284E-04
 0.83879997E+02  0.22411E-04
 0.83930000E+02  0.16923E-04
 0.83980003E+02  0.14004E-04
 0.84029999E+02  0.13311E-04
 0.84080002E+02  0.12689E-04
 0.84129997E+02  0.10862E-04
 0.84180000E+02  0.81216E-05
 0.84230003E+02  0.43497E-05
 0.84279999E+02  0.13527E-06
 0.84330002E+02 -0.38995E-05
 0.84379997E+02 -0.77688E-05
 0.84430000E+02 -0.10858E-04
 0.84480003E+02 -0.12419E-04
 0.84529999E+02 -0.12130E-04
 0.84580002E+02 -0.94340E-05
 0.84629997E+02 -0.44958E-05
 0.84680000E+02  0.17307E-05
 0.84730003E+02  0.75348E-05
 0.84779999E+02  0.10083E-04
 0.84830002E+02  0.82817E-05
 0.84879997E+02  0.38491E-05
 0.84930000E+02 -0.16264E-05
 0.84980003E+02 -0.77076E-05
 0.85029999E+02 -0.12548E-04
 0.85080002E+02 -0.15394E-04
 0.85129997E+02 -0.17445E-04
 0.85180000E+02 -0.18971E-04
 0.85230003E+02 -0.20699E-04
 0.85279999E+02 -0.22661E-04
 0.85330002E+02 -0.21855E-04
 0.85379997E+02 -0.15471E-04
 0.85430000E+02 -0.30635E-05
 0.85480003E+02  0.12802E-04
 0.85529999E+02  0.25133E-04
 0.85580002E+02  0.29442E-04
 0.85629997E+02  0.26991E-04
 0.85680000E+02  0.21507E-04
 0.85730003E+02  0.17513E-04
 0.85779999E+02  0.16643E-04
 0.85830002E+02  0.17085E-04
 0.85879997E+02  0.15545E-04
 0.85930000E+02  0.11331E-04
 0.85980003E+02  0.54420E-05
 0.86029999E+02 -0.29116E-05
 0.86080002E+02 -0.13293E-04
 0.86129997E+02 -0.23067E-04
 0.86180000E+02 -0.28753E-04
 0.86230003E+02 -0.28089E-04
 0.86279999E+02 -0.21075E-04
 0.86330002E+02 -0.96859E-05
 0.86379997E+02  0.17877E-05
 0.86430000E+02  0.87560E-05
 0.86480003E+02  0.90544E-05
 0.86529999E+02  0.42769E-05
 0.86580002E+02 -0.17407E-05
 0.86629997E+02 -0.55064E-05
 0.86680000E+02 -0.52855E-05
 0.86730003E+02 -0.15096E-05
 0.86779999E+02  0.30018E-05
 0.86830002E+02  0.41017E-05
 0.86879997E+02  0.70929E-06
 0.86930000E+02 -0.46327E-05
 0.86980003E+02 -0.92584E-05
 0.87029999E+02 -0.10678E-04
 0.87080002E+02 -0.76239E-05
 0.87129997E+02 -0.69817E-06
 0.87180000E+02  0.96951E-05
 0.87230003E+02  0.20160E-04
 0.87279999E+02  0.24389E-04
 0.87330002E+02  0.22257E-04
 0.87379997E+02  0.19576E-04
 0.87430000E+02  0.18903E-04
 0.87480003E+02  0.18561E-04
 0.87529999E+02  0.15813E-04
 0.87580002E+02  0.92509E-05
 0.87629997E+02  0.11263E-05
 0.87680000E+02 -0.55367E-05
 0.87730003E+02 -0.10091E-04
 0.87779999E+02 -0.12472E-04
 0.87830002E+02 -0.11869E-04
 0.87879997E+02 -0.91484E-05
 0.87930000E+02 -0.75844E-05
 0.87980003E+02 -0.86624E-05
 0.88029999E+02 -0.93785E-05
 0.88080002E+02 -0.67917E-05
 0.88129997E+02 -0.22137E-05
 0.88180000E+02  0.21494E-05
 0.88230003E+02  0.46925E-05
 0.88279999E+02  0.25480E-05
 0.88330002E+02 -0.48485E-05
 0.88379997E+02 -0.13813E-04
 0.88430000E+02 -0.19635E-04
 0.88480003E+02 -0.20067E-04
 0.88529999E+02 -0.17798E-04
 0.88580002E+02 -0.15593E-04
 0.88629997E+02 -0.12271E-04
 0.88680000E+02 -0.58260E-05
 0.88730003E+02  0.37634E-05
 0.88779999E+02  0.13098E-04
 0.88830002E+02  0.18458E-04
 0.88879997E+02  0.19539E-04
 0.88930000E+02  0.19271E-04
 0.88980003E+02  0.20982E-04
 0.89029999E+02  0.22901E-04
 0.89080002E+02  0.19910E-04
 0.89129997E+02  0.10764E-04
 0.89180000E+02 -0.80741E-06
 0.89230003E+02 -0.97849E-05
 0.89279999E+02 -0.14121E-04
 0.89330002E+02 -0.14331E-04
 0.89379997E+02 -0.12285E-04
 0.89430000E+02 -0.10938E-04
 0.89480003E+02 -0.95178E-05
 0.89529999E+02 -0.54888E-05
 0.89580002E+02 -0.67277E-08
 0.89629997E+02  0.48454E-05
 0.89680000E+02  0.76382E-05
 0.89730003E+02  0.86154E-05
 0.89779999E+02  0.10433E-04
 0.89830002E+02  0.13636E-04
 0.89879997E+02  0.15955E-04
 0.89930000E+02  0.15075E-04
 0.89980003E+02  0.99401E-05
 0.90029999E+02  0.21134E-05
 0.90080002E+02 -0.57540E-05
 0.90129997E+02 -0.12798E-04
 0.90180000E+02 -0.19464E-04
 0.90230003E+02 -0.25009E-04
 0.90279999E+02 -0.28327E-04
 0.90330002E+02 -0.29023E-04
 0.90379997E+02 -0.26257E-04
 0.90430000E+02 -0.19829E-04
 0.90480003E+02 -0.11134E-04
 0.90529999E+02 -0.25191E-05
 0.90580002E+02  0.55733E-05
 0.90629997E+02  0.14155E-04
 0.90680000E+02  0.22278E-04
 0.90730003E+02  0.27737E-04
 0.90779999E+02  0.28706E-04
 0.90830002E+02  0.26010E-04
 0.90879997E+02  0.21145E-04
 0.90930000E+02  0.14956E-04
 0.90980003E+02  0.99198E-05
 0.91029999E+02  0.72588E-05
 0.91080002E+02  0.56234E-05
 0.91129997E+02  0.23713E-05
 0.91180000E+02 -0.42724E-05
 0.91230003E+02 -0.12394E-04
 0.91279999E+02 -0.18464E-04
 0.91330002E+02 -0.21076E-04
 0.91379997E+02 -0.20946E-04
 0.91430000E+02 -0.18074E-04
 0.91480003E+02 -0.12155E-04
 0.91529999E+02 -0.61546E-05
 0.91580002E+02 -0.30371E-05
 0.91629997E+02 -0.15627E-05
 0.91680000E+02  0.48112E-06
 0.91730003E+02  0.36329E-05
 0.91779999E+02  0.63015E-05
 0.91830002E+02  0.70745E-05
 0.91879997E+02  0.76896E-05
 0.91930000E+02  0.97437E-05
 0.91980003E+02  0.12255E-04
 0.92029999E+02  0.13940E-04
 0.92080002E+02  0.14635E-04
 0.92129997E+02  0.15125E-04
 0.92180000E+02  0.14661E-04
 0.92230003E+02  0.11512E-04
 0.92279999E+02  0.58073E-05
 0.92330002E+02 -0.10374E-05
 0.92379997E+02 -0.74762E-05
 0.92430000E+02 -0.13560E-04
 0.92480003E+02 -0.19289E-04
 0.92529999E+02 -0.23198E-04
 0.92580002E+02 -0.24361E-04
 0.92629997E+02 -0.21812E-04
 0.92680000E+02 -0.16290E-04
 0.92730003E+02 -0.11083E-04
 0.92779999E+02 -0.83833E-05
 0.92830002E+02 -0.82099E-05
 0.92879997E+02 -0.75757E-05
 0.92930000E+02 -0.33594E-05
 0.92980003E+02  0.26799E-05
 0.93029999E+02  0.74454E-05
 0.93080002E+02  0.10622E-04
 0.93129997E+02  0.13687E-04
 0.93180000E+02  0.17767E-04
 0.93230003E+02  0.21473E-04
 0.93279999E+02  0.22465E-04
 0.93330002E+02  0.20194E-04
 0.93379997E+02  0.14264E-04
 0.93430000E+02  0.50064E-05
 0.93480003E+02 -0.53199E-05
 0.93529999E+02 -0.14932E-04
 0.93580002E+02 -0.21632E-04
 0.93629997E+02 -0.23812E-04
 0.93680000E+02 -0.22697E-04
 0.93730003E+02 -0.19081E-04
 0.93779999E+02 -0.12554E-04
 0.93830002E+02 -0.43098E-05
 0.93879997E+02  0.32928E-05
 0.93930000E+02  0.90737E-05
 0.93980003E+02  0.13720E-04
 0.94029999E+02  0.17724E-04
 0.94080002E+02  0.19124E-04
 0.94129997E+02  0.15141E-04
 0.94180000E+02  0.64152E-05
 0.94230003E+02 -0.25402E-05
 0.94279999E+02 -0.77452E-05
 0.94330002E+02 -0.80341E-05
 0.94379997E+02 -0.48959E-05
 0.94430000E+02 -0.29840E-06
 0.94480003E+02  0.48152E-05
 0.94529999E+02  0.90534E-05
 0.94580002E+02  0.11274E-04
 0.94629997E+02  0.11950E-04
 0.94680000E+02  0.13039E-04
 0.94730003E+02  0.14595E-04
 0.94779999E+02  0.13976E-04
 0.94830002E+02  0.99655E-05
 0.94879997E+02  0.38910E-05
 0.94930000E+02 -0.19343E-05
 0.94980003E+02 -0.66474E-05
 0.95029999E+02 -0.10771E-04
 0.95080002E+02 -0.14585E-04
 0.95129997E+02 -0.17676E-04
 0.95180000E+02 -0.18922E-04
 0.95230003E+02 -0.17949E-04
 0.95279999E+02 -0.14922E-04
 0.95330002E+02 -0.10362E-04
 0.95379997E+02 -0.54928E-05
 0.95430000E+02 -0.15361E-05
 0.95480003E+02  0.23609E-06
 0.95529999E+02  0.13879E-06
 0.95580002E+02  0.37739E-07
 0.95629997E+02  0.17044E-05
 0.95680000E+02  0.57041E-05
 0.95730003E+02  0.10843E-04
 0.95779999E+02  0.14947E-04
 0.95830002E+02  0.15046E-04
 0.95879997E+02  0.10427E-04
 0.95930000E+02  0.39517E-05
 0.95980003E+02 -0.13080E-05
 0.96029999E+02 -0.41079E-05
 0.96080002E+02 -0.48524E-05
 0.96129997E+02 -0.41316E-05
 0.96180000E+02 -0.24980E-05
 0.96230003E+02 -0.10917E-05
 0.96279999E+02 -0.12094E-05
 0.96330002E+02 -0.29823E-05
 0.96379997E+02 -0.52713E-05
 0.96430000E+02 -0.65288E-05
 0.96480003E+02 -0.58091E-05
 0.96529999E+02 -0.34709E-05
 0.96580002E+02 -0.21515E-06
 0.96629997E+02  0.27692E-05
 0.96680000E+02  0.48284E-05
 0.96730003E+02  0.60668E-05
 0.96779999E+02  0.60525E-05
 0.96830002E+02  0.50182E-05
 0.96879997E+02  0.31132E-05
 0.96930000E+02  0.35260E-06
 0.96980003E+02 -0.17887E-05
 0.97029999E+02 -0.19348E-05
 0.97080002E+02 -0.26209E-06
 0.97129997E+02  0.20670E-05
 0.97180000E+02  0.38979E-05
 0.97230003E+02  0.50233E-05
 0.97279999E+02  0.52806E-05
 0.97330002E+02  0.37968E-05
 0.97379997E+02  0.38486E-06
 0.97430000E+02 -0.39695E-05
 0.97480003E+02 -0.81123E-05
 0.97529999E+02 -0.10724E-04
 0.97580002E+02 -0.99736E-05
 0.97629997E+02 -0.56944E-05
 0.97680000E+02 -0.47405E-06
 0.97730003E+02  0.29436E-05
 0.97779999E+02  0.38993E-05
 0.97830002E+02  0.32387E-05
 0.97879997E+02  0.15764E-05
 0.97930000E+02 -0.17155E-06
 0.97980003E+02 -0.95242E-06
 0.98029999E+02 -0.63308E-06
 0.98080002E+02  0.52489E-06
 0.98129997E+02  0.19113E-05
 0.98180000E+02  0.25171E-05
 0.98230003E+02  0.16544E-05
 0.98279999E+02  0.19028E-06
 0.98330002E+02 -0.57856E-06
 0.98379997E+02 -0.55016E-06
 0.98430000E+02 -0.24941E-06
 0.98480003E+02 -0.30022E-06
 0.98529999E+02 -0.11534E-05
 0.98580002E+02 -0.18524E-05
 0.98629997E+02 -0.11934E-05
 0.98680000E+02  0.17896E-06
 0.98730003E+02  0.15764E-05
 0.98779999E+02  0.34726E-05
 0.98830002E+02  0.65383E-05
 0.98879997E+02  0.10021E-04
 0.98930000E+02  0.11820E-04
 0.98980003E+02  0.10546E-04
 0.99029999E+02  0.66598E-05
 0.99080002E+02  0.16110E-05
 0.99129997E+02 -0.32387E-05
 0.99180000E+02 -0.69454E-05
 0.99230003E+02 -0.94412E-05
 0.99279999E+02 -0.10493E-04
 0.99330002E+02 -0.93478E-05
 0.99379997E+02 -0.63756E-05
 0.99430000E+02 -0.30461E-05
 0.99480003E+02 -0.51920E-06
 0.99529999E+02  0.80928E-06
 0.99580002E+02  0.78951E-06
 0.99629997E+02 -0.56911E-06
 0.99680000E+02 -0.20899E-05
 0.99730003E+02 -0.29431E-05
 0.99779999E+02 -0.38950E-05
 0.99830002E+02 -0.56144E-05
 0.99879997E+02 -0.86191E-05
 0.99930000E+02 -0.13036E-04
 0.99980003E+02 -0.17703E-04
 0.10003000E+03 -0.20371E-04
 0.10008000E+03 -0.19075E-04
 0.10013000E+03 -0.13999E-04
 0.10018000E+03 -0.66471E-05
 0.10023000E+03  0.14706E-05
 0.10028000E+03  0.89227E-05
 0.10033000E+03  0.14456E-04
 0.10038000E+03  0.17086E-04
 0.10043000E+03  0.16781E-04
 0.10048000E+03  0.14578E-04
 0.10053000E+03  0.12805E-04
 0.10058000E+03  0.13546E-04
 0.10063000E+03  0.16625E-04
 0.10068000E+03  0.19831E-04
 0.10073000E+03  0.20386E-04
 0.10078000E+03  0.17607E-04
 0.10083000E+03  0.12280E-04
 0.10088000E+03  0.59149E-05
 0.10093000E+03  0.77654E-06
 0.10098000E+03 -0.24847E-05
 0.10103000E+03 -0.44477E-05
 0.10108000E+03 -0.52907E-05
 0.10113000E+03 -0.47824E-05
 0.10118000E+03 -0.28654E-05
 0.10123000E+03 -0.56268E-06
 0.10128000E+03  0.13361E-05
 0.10133000E+03  0.30896E-05
 0.10138000E+03  0.41586E-05
 0.10143000E+03  0.36088E-05
 0.10148000E+03  0.13469E-05
 0.10153000E+03 -0.23425E-05
 0.10158000E+03 -0.66755E-05
 0.10163000E+03 -0.10881E-04
 0.10168000E+03 -0.15288E-04
 0.10173000E+03 -0.19779E-04
 0.10178000E+03 -0.22329E-04
 0.10183000E+03 -0.21736E-04
 0.10188000E+03 -0.18998E-04
 0.10193000E+03 -0.15130E-04
 0.10198000E+03 -0.10887E-04
 0.10203000E+03 -0.65798E-05
 0.10208000E+03 -0.18323E-05
 0.10213000E+03  0.27879E-05
 0.10218000E+03  0.65288E-05
 0.10223000E+03  0.10423E-04
 0.10228000E+03  0.15217E-04
 0.10233000E+03  0.19581E-04
 0.10238000E+03  0.22250E-04
 0.10243000E+03  0.23076E-04
 0.10248000E+03  0.22209E-04
 0.10253000E+03  0.19281E-04
 0.10258000E+03  0.13674E-04
 0.10263000E+03  0.52681E-05
 0.10268000E+03 -0.45120E-05
 0.10273000E+03 -0.12880E-04
 0.10278000E+03 -0.18557E-04
 0.10283000E+03 -0.21784E-04
 0.10288000E+03 -0.22755E-04
 0.10293000E+03 -0.21593E-04
 0.10298000E+03 -0.18754E-04
 0.10303000E+03 -0.15167E-04
 0.10308000E+03 -0.10735E-04
 0.10313000E+03 -0.48697E-05
 0.10318000E+03  0.16024E-05
 0.10323000E+03  0.72798E-05
 0.10328000E+03  0.11106E-04
 0.10333000E+03  0.12481E-04
 0.10338000E+03  0.11386E-04
 0.10343000E+03  0.81705E-05
 0.10348000E+03  0.38008E-05
 0.10353000E+03 -0.45288E-06
 0.10358000E+03 -0.35912E-05
 0.10363000E+03 -0.48539E-05
 0.10368000E+03 -0.42187E-05
 0.10373000E+03 -0.20429E-05
 0.10378000E+03  0.13886E-05
 0.10383000E+03  0.52980E-05
 0.10388000E+03  0.84796E-05
 0.10393000E+03  0.99547E-05
 0.10398000E+03  0.92202E-05
 0.10403000E+03  0.62505E-05
 0.10408000E+03  0.19790E-05
 0.10413000E+03 -0.21406E-05
 0.10418000E+03 -0.45130E-05
 0.10423000E+03 -0.40662E-05
 0.10428000E+03 -0.15398E-05
 0.10433000E+03  0.13110E-05
 0.10438000E+03  0.31082E-05
 0.10443000E+03  0.34786E-05
 0.10448000E+03  0.30159E-05
 0.10453000E+03  0.28301E-05
 0.10458000E+03  0.35438E-05
 0.10463000E+03  0.50138E-05
 0.10468000E+03  0.70623E-05
 0.10473000E+03  0.96057E-05
 0.10478000E+03  0.12020E-04
 0.10483000E+03  0.12503E-04
 0.10488000E+03  0.98004E-05
 0.10493000E+03  0.44950E-05
 0.10498000E+03 -0.18459E-05
 0.10503000E+03 -0.77224E-05
 0.10508000E+03 -0.12257E-04
 0.10513000E+03 -0.15016E-04
 0.10518000E+03 -0.16084E-04
 0.10523000E+03 -0.15824E-04
 0.10528000E+03 -0.15179E-04
 0.10533000E+03 -0.14876E-04
 0.10538000E+03 -0.14334E-04
 0.10543000E+03 -0.12558E-04
 0.10548000E+03 -0.89555E-05
 0.10553000E+03 -0.40693E-05
 0.10558000E+03  0.12769E-05
 0.10563000E+03  0.65002E-05
 0.10568000E+03  0.10548E-04
 0.10573000E+03  0.12429E-04
 0.10578000E+03  0.11806E-04
 0.10583000E+03  0.89762E-05
 0.10588000E+03  0.50759E-05
 0.10593000E+03  0.14813E-05
 0.10598000E+03 -0.12178E-05
 0.10603000E+03 -0.31366E-05
 0.10608000E+03 -0.48282E-05
 0.10613000E+03 -0.59984E-05
 0.10618000E+03 -0.55514E-05
 0.10623000E+03 -0.35001E-05
 0.10628000E+03 -0.55972E-06
 0.10633000E+03  0.23689E-05
 0.10638000E+03  0.44081E-05
 0.10643000E+03  0.57673E-05
 0.10648000E+03  0.68319E-05
 0.10653000E+03  0.71879E-05
 0.10658000E+03  0.64339E-05
 0.10663000E+03  0.47066E-05
 0.10668000E+03  0.28114E-05
 0.10673000E+03  0.17914E-05
 0.10678000E+03  0.20534E-05
 0.10683000E+03  0.30788E-05
 0.10688000E+03  0.41868E-05
 0.10693000E+03  0.51694E-05
 0.10698000E+03  0.54493E-05
 0.10703000E+03  0.40194E-05
 0.10708000E+03  0.79924E-06
 0.10713000E+03 -0.30862E-05
 0.10718000E+03 -0.69395E-05
 0.10723000E+03 -0.10309E-04
 0.10728000E+03 -0.12035E-04
 0.10733000E+03 -0.11642E-04
 0.10738000E+03 -0.94459E-05
 0.10743000E+03 -0.64400E-05
 0.10748000E+03 -0.37276E-05
 0.10753000E+03 -0.16023E-05
 0.10758000E+03  0.95612E-07
 0.10763000E+03  0.18590E-05
 0.10768000E+03  0.39753E-05
 0.10773000E+03  0.61398E-05
 0.10778000E+03  0.74714E-05
 0.10783000E+03  0.75873E-05
 0.10788000E+03  0.67453E-05
 0.10793000E+03  0.54414E-05
 0.10798000E+03  0.42635E-05
 0.10803000E+03  0.29915E-05
 0.10808000E+03  0.12880E-05
 0.10813000E+03 -0.86927E-06
 0.10818000E+03 -0.30699E-05
 0.10823000E+03 -0.45539E-05
 0.10828000E+03 -0.53828E-05
 0.10833000E+03 -0.62340E-05
 0.10838000E+03 -0.70337E-05
 0.10843000E+03 -0.72043E-05
 0.10848000E+03 -0.62702E-05
 0.10853000E+03 -0.36785E-05
 0.10858000E+03  0.34827E-06
 0.10863000E+03  0.47843E-05
 0.10868000E+03  0.87254E-05
 0.10873000E+03  0.11105E-04
 0.10878000E+03  0.11433E-04
 0.10883000E+03  0.10637E-04
 0.10888000E+03  0.92267E-05
 0.10893000E+03  0.69867E-05
 0.10898000E+03  0.36988E-05
 0.10903000E+03 -0.72857E-06
 0.10908000E+03 -0.55121E-05
 0.10913000E+03 -0.98487E-05
 0.10918000E+03 -0.13214E-04
 0.10923000E+03 -0.14626E-04
 0.10928000E+03 -0.13700E-04
 0.10933000E+03 -0.11527E-04
 0.10938000E+03 -0.88950E-05
 0.10943000E+03 -0.58064E-05
 0.10948000E+03 -0.27065E-05
 0.10953000E+03  0.33309E-06
 0.10958000E+03  0.36522E-05
 0.10963000E+03  0.72094E-05
 0.10968000E+03  0.10811E-04
 0.10973000E+03  0.13160E-04
 0.10978000E+03  0.12264E-04
 0.10983000E+03  0.82237E-05
 0.10988000E+03  0.29608E-05
 0.10993000E+03 -0.16602E-05
 0.10998000E+03 -0.47309E-05
 0.11003000E+03 -0.64393E-05
 0.11008000E+03 -0.72160E-05
 0.11013000E+03 -0.74839E-05
 0.11018000E+03 -0.76840E-05
 0.11023000E+03 -0.78851E-05
 0.11028000E+03 -0.76094E-05
 0.11033000E+03 -0.63197E-05
 0.11038000E+03 -0.34650E-05
 0.11043000E+03  0.10620E-05
 0.11048000E+03  0.61190E-05
 0.11053000E+03  0.10114E-04
 0.11058000E+03  0.12238E-04
 0.11063000E+03  0.12706E-04
 0.11068000E+03  0.12003E-04
 0.11073000E+03  0.10434E-04
 0.11078000E+03  0.87386E-05
 0.11083000E+03  0.76686E-05
 0.11088000E+03  0.70212E-05
 0.11093000E+03  0.62978E-05
 0.11098000E+03  0.46150E-05
 0.11103000E+03  0.10253E-05
 0.11108000E+03 -0.40619E-05
 0.11113000E+03 -0.90138E-05
 0.11118000E+03 -0.12045E-04
 0.11123000E+03 -0.12694E-04
 0.11128000E+03 -0.11469E-04
 0.11133000E+03 -0.90035E-05
 0.11138000E+03 -0.61149E-05
 0.11143000E+03 -0.34758E-05
 0.11148000E+03 -0.18001E-05
 0.11153000E+03 -0.11507E-05
 0.11158000E+03 -0.76123E-06
 0.11163000E+03  0.30406E-06
 0.11168000E+03  0.23782E-05
 0.11173000E+03  0.47118E-05
 0.11178000E+03  0.60883E-05
 0.11183000E+03  0.51581E-05
 0.11188000E+03  0.15881E-05
 0.11193000E+03 -0.32074E-05
 0.11198000E+03 -0.70144E-05
 0.11203000E+03 -0.81668E-05
 0.11208000E+03 -0.64981E-05
 0.11213000E+03 -0.32455E-05
 0.11218000E+03  0.12966E-06
 0.11223000E+03  0.27340E-05
 0.11228000E+03  0.39575E-05
 0.11233000E+03  0.40047E-05
 0.11238000E+03  0.36012E-05
 0.11243000E+03  0.33674E-05
 0.11248000E+03  0.35883E-05
 0.11253000E+03  0.37017E-05
 0.11258000E+03  0.34282E-05
 0.11263000E+03  0.28310E-05
 0.11268000E+03  0.18707E-05
 0.11273000E+03  0.76482E-06
 0.11278000E+03 -0.42429E-06
 0.11283000E+03 -0.14268E-05
 0.11288000E+03 -0.15875E-05
 0.11293000E+03 -0.79334E-06
 0.11298000E+03  0.10288E-06
 0.11303000E+03  0.10678E-06
 0.11308000E+03 -0.13046E-05
 0.11313000E+03 -0.39254E-05
 0.11318000E+03 -0.61874E-05
 0.11323000E+03 -0.65869E-05
 0.11328000E+03 -0.51185E-05
 0.11333000E+03 -0.26343E-05
 0.11338000E+03 -0.19222E-06
 0.11343000E+03  0.16737E-05
 0.11348000E+03  0.28251E-05
 0.11353000E+03  0.33078E-05
 0.11358000E+03  0.33414E-05
 0.11363000E+03  0.31182E-05
 0.11368000E+03  0.30296E-05
 0.11373000E+03  0.30231E-05
 0.11378000E+03  0.22820E-05
 0.11383000E+03  0.29822E-06
 0.11388000E+03 -0.22414E-05
 0.11393000E+03 -0.40224E-05
 0.11398000E+03 -0.42423E-05
 0.11403000E+03 -0.31143E-05
 0.11408000E+03 -0.13987E-05
 0.11413000E+03  0.46138E-06
 0.11418000E+03  0.22915E-05
 0.11423000E+03  0.37772E-05
 0.11428000E+03  0.44403E-05
 0.11433000E+03  0.43873E-05
 0.11438000E+03  0.42702E-05
 0.11443000E+03  0.39194E-05
 0.11448000E+03  0.28574E-05
 0.11453000E+03  0.96224E-06
 0.11458000E+03 -0.19366E-05
 0.11463000E+03 -0.53964E-05
 0.11468000E+03 -0.81836E-05
 0.11473000E+03 -0.93368E-05
 0.11478000E+03 -0.84893E-05
 0.11483000E+03 -0.58508E-05
 0.11488000E+03 -0.21649E-05
 0.11493000E+03  0.20286E-05
 0.11498000E+03  0.61099E-05
 0.11503000E+03  0.89772E-05
 0.11508000E+03  0.96539E-05
 0.11513000E+03  0.80532E-05
 0.11518000E+03  0.48234E-05
 0.11523000E+03  0.69964E-06
 0.11528000E+03 -0.32936E-05
 0.11533000E+03 -0.59897E-05
 0.11538000E+03 -0.66496E-05
 0.11543000E+03 -0.53470E-05
 0.11548000E+03 -0.28571E-05
 0.11553000E+03 -0.21569E-06
 0.11558000E+03  0.19905E-05
 0.11563000E+03  0.36251E-05
 0.11568000E+03  0.44283E-05
 0.11573000E+03  0.43820E-05
 0.11578000E+03  0.38750E-05
 0.11583000E+03  0.31712E-05
 0.11588000E+03  0.22642E-05
 0.11593000E+03  0.15987E-05
 0.11598000E+03  0.18321E-05
 0.11603000E+03  0.29957E-05
 0.11608000E+03  0.44104E-05
 0.11613000E+03  0.50932E-05
 0.11618000E+03  0.45954E-05
 0.11623000E+03  0.33164E-05
 0.11628000E+03  0.18323E-05
 0.11633000E+03 -0.13475E-07
 0.11638000E+03 -0.24141E-05
 0.11643000E+03 -0.47936E-05
 0.11648000E+03 -0.66225E-05
 0.11653000E+03 -0.76202E-05
 0.11658000E+03 -0.75022E-05
 0.11663000E+03 -0.62101E-05
 0.11668000E+03 -0.40323E-05
 0.11673000E+03 -0.16459E-05
 0.11678000E+03  0.17534E-06
 0.11683000E+03  0.99636E-06
 0.11688000E+03  0.92056E-06
 0.11693000E+03  0.45390E-06
 0.11698000E+03 -0.16422E-06
 0.11703000E+03 -0.11763E-05
 0.11708000E+03 -0.22830E-05
 0.11713000E+03 -0.28080E-05
 0.11718000E+03 -0.27665E-05
 0.11723000E+03 -0.26775E-05
 0.11728000E+03 -0.29924E-05
 0.11733000E+03 -0.34619E-05
 0.11738000E+03 -0.35438E-05
 0.11743000E+03 -0.32168E-05
 0.11748000E+03 -0.26325E-05
 0.11753000E+03 -0.19933E-05
 0.11758000E+03 -0.15649E-05
 0.11763000E+03 -0.13359E-05
 0.11768000E+03 -0.10978E-05
 0.11773000E+03 -0.72200E-06
 0.11778000E+03 -0.26759E-06
 0.11783000E+03  0.46306E-06
 0.11788000E+03  0.16481E-05
 0.11793000E+03  0.29714E-05
 0.11798000E+03  0.41189E-05
 0.11803000E+03  0.50160E-05
 0.11808000E+03  0.57948E-05
 0.11813000E+03  0.61128E-05
 0.11818000E+03  0.55992E-05
 0.11823000E+03  0.45332E-05
 0.11828000E+03  0.32256E-05
 0.11833000E+03  0.20028E-05
 0.11838000E+03  0.12847E-05
 0.11843000E+03  0.15527E-05
 0.11848000E+03  0.28805E-05
 0.11853000E+03  0.46546E-05
 0.11858000E+03  0.60398E-05
 0.11863000E+03  0.63983E-05
 0.11868000E+03  0.55547E-05
 0.11873000E+03  0.35989E-05
 0.11878000E+03  0.80900E-06
 0.11883000E+03 -0.22623E-05
 0.11888000E+03 -0.49196E-05
 0.11893000E+03 -0.66333E-05
 0.11898000E+03 -0.72137E-05
 0.11903000E+03 -0.63146E-05
 0.11908000E+03 -0.38961E-05
 0.11913000E+03 -0.92127E-06
 0.11918000E+03  0.14476E-05
 0.11923000E+03  0.27623E-05
 0.11928000E+03  0.33112E-05
 0.11933000E+03  0.31665E-05
 0.11938000E+03  0.21028E-05
 0.11943000E+03  0.10117E-06
 0.11948000E+03 -0.26141E-05
 0.11953000E+03 -0.55700E-05
 0.11958000E+03 -0.83316E-05
 0.11963000E+03 -0.10450E-04
 0.11968000E+03 -0.11481E-04
 0.11973000E+03 -0.11386E-04
 0.11978000E+03 -0.10583E-04
 0.11983000E+03 -0.93418E-05
 0.11988000E+03 -0.75500E-05
 0.11993000E+03 -0.50441E-05
 0.11998000E+03 -0.19139E-05
 0.12003000E+03  0.14502E-05
 0.12008000E+03  0.46319E-05
 0.12013000E+03  0.74702E-05
 0.12018000E+03  0.99515E-05
 0.12023000E+03  0.11818E-04
 0.12028000E+03  0.12886E-04
 0.12033000E+03  0.13392E-04
 0.12038000E+03  0.13289E-04
 0.12043000E+03  0.12005E-04
 0.12048000E+03  0.94646E-05
 0.12053000E+03  0.60795E-05
 0.12058000E+03  0.21785E-05
 0.12063000E+03 -0.18445E-05
 0.12068000E+03 -0.55005E-05
 0.12073000E+03 -0.82100E-05
 0.12078000E+03 -0.94573E-05
 0.12083000E+03 -0.90626E-05
 0.12088000E+03 -0.71677E-05
 0.12093000E+03 -0.42008E-05
 0.12098000E+03 -0.10509E-05
 0.12103000E+03  0.12542E-05
 0.12108000E+03  0.20874E-05
 0.12113000E+03  0.14610E-05
 0.12118000E+03  0.54870E-07
 0.12123000E+03 -0.11696E-05
 0.12128000E+03 -0.14413E-05
 0.12133000E+03 -0.87081E-06
 0.12138000E+03 -0.29004E-06
 0.12143000E+03  0.11715E-06
 0.12148000E+03  0.69762E-06
 0.12153000E+03  0.15639E-05
 0.12158000E+03  0.22620E-05
 0.12163000E+03  0.20339E-05
 0.12168000E+03  0.79349E-06
 0.12173000E+03 -0.10273E-05
 0.12178000E+03 -0.27140E-05
 0.12183000E+03 -0.33956E-05
 0.12188000E+03 -0.26360E-05
 0.12193000E+03 -0.78200E-06
 0.12198000E+03  0.12732E-05
 0.12203000E+03  0.27343E-05
 0.12208000E+03  0.32453E-05
 0.12213000E+03  0.29729E-05
 0.12218000E+03  0.21564E-05
 0.12223000E+03  0.86116E-06
 0.12228000E+03 -0.57524E-06
 0.12233000E+03 -0.15351E-05
 0.12238000E+03 -0.16527E-05
 0.12243000E+03 -0.99318E-06
 0.12248000E+03 -0.21484E-09
 0.12253000E+03  0.63827E-06
 0.12258000E+03  0.59461E-06
 0.12263000E+03  0.79924E-07
 0.12268000E+03 -0.68852E-06
 0.12273000E+03 -0.16775E-05
 0.12278000E+03 -0.27466E-05
 0.12283000E+03 -0.39458E-05
 0.12288000E+03 -0.53573E-05
 0.12293000E+03 -0.65005E-05
 0.12298000E+03 -0.67959E-05
 0.12303000E+03 -0.59798E-05
 0.12308000E+03 -0.41268E-05
 0.12313000E+03 -0.13534E-05
 0.12318000E+03  0.20539E-05
 0.12323000E+03  0.54399E-05
 0.12328000E+03  0.82851E-05
 0.12333000E+03  0.10127E-04
 0.12338000E+03  0.10399E-04
 0.12343000E+03  0.89884E-05
 0.12348000E+03  0.66528E-05
 0.12353000E+03  0.44014E-05
 0.12358000E+03  0.26160E-05
 0.12363000E+03  0.10798E-05
 0.12368000E+03 -0.50852E-06
 0.12373000E+03 -0.23576E-05
 0.12378000E+03 -0.46073E-05
 0.12383000E+03 -0.71354E-05
 0.12388000E+03 -0.94146E-05
 0.12393000E+03 -0.10795E-04
 0.12398000E+03 -0.10763E-04
 0.12403000E+03 -0.90110E-05
 0.12408000E+03 -0.58364E-05
 0.12413000E+03 -0.21863E-05
 0.12418000E+03  0.98575E-06
 0.12423000E+03  0.31178E-05
 0.12428000E+03  0.42913E-05
 0.12433000E+03  0.50109E-05
 0.12438000E+03  0.56446E-05
 0.12443000E+03  0.64853E-05
 0.12448000E+03  0.77337E-05
 0.12453000E+03  0.93206E-05
 0.12458000E+03  0.10881E-04
 0.12463000E+03  0.11761E-04
 0.12468000E+03  0.11456E-04
 0.12473000E+03  0.99186E-05
 0.12478000E+03  0.75570E-05
 0.12483000E+03  0.49379E-05
 0.12488000E+03  0.21756E-05
 0.12493000E+03 -0.80988E-06
 0.12498000E+03 -0.38162E-05
 0.12503000E+03 -0.66623E-05
 0.12508000E+03 -0.91688E-05
 0.12513000E+03 -0.11058E-04
 0.12518000E+03 -0.12259E-04
 0.12523000E+03 -0.12713E-04
 0.12528000E+03 -0.12286E-04
 0.12533000E+03 -0.11021E-04
 0.12538000E+03 -0.89035E-05
 0.12543000E+03 -0.59053E-05
 0.12548000E+03 -0.23361E-05
 0.12553000E+03  0.10317E-05
 0.12558000E+03  0.32186E-05
 0.12563000E+03  0.41531E-05
 0.12568000E+03  0.45207E-05
 0.12573000E+03  0.45328E-05
 0.12578000E+03  0.41929E-05
 0.12583000E+03  0.37199E-05
 0.12588000E+03  0.31683E-05
 0.12593000E+03  0.24535E-05
 0.12598000E+03  0.16321E-05
 0.12603000E+03  0.78337E-06
 0.12608000E+03  0.13581E-06
 0.12613000E+03 -0.92395E-07
 0.12618000E+03 -0.39361E-07
 0.12623000E+03 -0.85589E-07
 0.12628000E+03 -0.66633E-06
 0.12633000E+03 -0.17825E-05
 0.12638000E+03 -0.26701E-05
 0.12643000E+03 -0.24718E-05
 0.12648000E+03 -0.13232E-05
 0.12653000E+03  0.12848E-06
 0.12658000E+03  0.16594E-05
 0.12663000E+03  0.33126E-05
 0.12668000E+03  0.52551E-05
 0.12673000E+03  0.76078E-05
 0.12678000E+03  0.97393E-05
 0.12683000E+03  0.10436E-04
 0.12688000E+03  0.92529E-05
 0.12693000E+03  0.67697E-05
 0.12698000E+03  0.38389E-05
 0.12703000E+03  0.87752E-06
 0.12708000E+03 -0.22664E-05
 0.12713000E+03 -0.56903E-05
 0.12718000E+03 -0.92640E-05
 0.12723000E+03 -0.12643E-04
 0.12728000E+03 -0.15324E-04
 0.12733000E+03 -0.16981E-04
 0.12738000E+03 -0.17548E-04
 0.12743000E+03 -0.17092E-04
 0.12748000E+03 -0.15489E-04
 0.12753000E+03 -0.12594E-04
 0.12758000E+03 -0.83631E-05
 0.12763000E+03 -0.29319E-05
 0.12768000E+03  0.30023E-05
 0.12773000E+03  0.86306E-05
 0.12778000E+03  0.13371E-04
 0.12783000E+03  0.16932E-04
 0.12788000E+03  0.19298E-04
 0.12793000E+03  0.20258E-04
 0.12798000E+03  0.19519E-04
 0.12803000E+03  0.17095E-04
 0.12808000E+03  0.13297E-04
 0.12813000E+03  0.86573E-05
 0.12818001E+03  0.36416E-05
 0.12823000E+03 -0.13775E-05
 0.12828000E+03 -0.58385E-05
 0.12833000E+03 -0.93348E-05
 0.12838000E+03 -0.11749E-04
 0.12843001E+03 -0.12892E-04
 0.12848000E+03 -0.12785E-04
 0.12853000E+03 -0.11717E-04
 0.12858000E+03 -0.96266E-05
 0.12863000E+03 -0.62329E-05
 0.12868001E+03 -0.17344E-05
 0.12873000E+03  0.30200E-05
 0.12878000E+03  0.71381E-05
 0.12883000E+03  0.10334E-04
 0.12888000E+03  0.12298E-04
 0.12893001E+03  0.12592E-04
 0.12898000E+03  0.11261E-04
 0.12903000E+03  0.85745E-05
 0.12908000E+03  0.49589E-05
 0.12913000E+03  0.91039E-06
 0.12918001E+03 -0.30101E-05
 0.12923000E+03 -0.61642E-05
 0.12928000E+03 -0.82581E-05
 0.12933000E+03 -0.92199E-05
 0.12938000E+03 -0.90561E-05
 0.12943001E+03 -0.80539E-05
 0.12948000E+03 -0.68177E-05
 0.12953000E+03 -0.60624E-05
 0.12958000E+03 -0.58857E-05
 0.12963000E+03 -0.57046E-05
 0.12968001E+03 -0.49262E-05
 0.12973000E+03 -0.33260E-05
 0.12978000E+03 -0.13615E-05
 0.12983000E+03  0.47860E-06
 0.12988000E+03  0.21343E-05
 0.12993001E+03  0.35216E-05
 0.12998000E+03  0.47006E-05
 0.13003000E+03  0.57912E-05
 0.13008000E+03  0.66381E-05
 0.13013000E+03  0.69597E-05
 0.13018001E+03  0.65626E-05
 0.13023000E+03  0.54084E-05
 0.13028000E+03  0.35691E-05
 0.13033000E+03  0.15724E-05
 0.13038000E+03  0.16601E-06
 0.13043001E+03 -0.31413E-06
 0.13048000E+03  0.53393E-07
 0.13053000E+03  0.75099E-06
 0.13058000E+03  0.11618E-05
 0.13063000E+03  0.11004E-05
 0.13068001E+03  0.68304E-06
 0.13073000E+03 -0.30768E-06
 0.13078000E+03 -0.23181E-05
 0.13083000E+03 -0.50942E-05
 0.13088000E+03 -0.76967E-05
 0.13093001E+03 -0.95405E-05
 0.13098000E+03 -0.10592E-04
 0.13103000E+03 -0.10620E-04
 0.13108000E+03 -0.93829E-05
 0.13113000E+03 -0.69530E-05
 0.13118001E+03 -0.38000E-05
 0.13123000E+03 -0.75270E-06
 0.13128000E+03  0.19206E-05
 0.13133000E+03  0.42454E-05
 0.13138000E+03  0.59559E-05
 0.13143001E+03  0.69973E-05
 0.13148000E+03  0.75821E-05
 0.13153000E+03  0.78851E-05
 0.13158000E+03  0.78362E-05
 0.13163000E+03  0.73132E-05
 0.13168001E+03  0.64726E-05
 0.13173000E+03  0.55390E-05
 0.13178000E+03  0.45573E-05
 0.13183000E+03  0.33521E-05
 0.13188000E+03  0.18353E-05
 0.13193001E+03  0.18180E-06
 0.13198000E+03 -0.14123E-05
 0.13203000E+03 -0.27742E-05
 0.13208000E+03 -0.36964E-05
 0.13213000E+03 -0.37782E-05
 0.13218001E+03 -0.28877E-05
 0.13223000E+03 -0.12624E-05
 0.13228000E+03  0.89556E-06
 0.13233000E+03  0.29130E-05
 0.13238000E+03  0.39121E-05
 0.13243001E+03  0.39167E-05
 0.13248000E+03  0.37172E-05
 0.13253000E+03  0.36299E-05
 0.13258000E+03  0.35269E-05
 0.13263000E+03  0.34499E-05
 0.13268001E+03  0.33062E-05
 0.13273000E+03  0.28818E-05
 0.13278000E+03  0.17415E-05
 0.13283000E+03 -0.20920E-06
 0.13288000E+03 -0.23278E-05
 0.13293001E+03 -0.42225E-05
 0.13298000E+03 -0.56951E-05
 0.13303000E+03 -0.67677E-05
 0.13308000E+03 -0.73763E-05
 0.13313000E+03 -0.72251E-05
 0.13318001E+03 -0.67387E-05
 0.13323000E+03 -0.62279E-05
 0.13328000E+03 -0.58836E-05
 0.13333000E+03 -0.58998E-05
 0.13338000E+03 -0.59495E-05
 0.13343001E+03 -0.58934E-05
 0.13348000E+03 -0.55268E-05
 0.13353000E+03 -0.49758E-05
 0.13358000E+03 -0.46656E-05
 0.13363000E+03 -0.43381E-05
 0.13368001E+03 -0.35582E-05
 0.13373000E+03 -0.16449E-05
 0.13378000E+03  0.13904E-05
 0.13383000E+03  0.46873E-05
 0.13388000E+03  0.80854E-05
 0.13393001E+03  0.10962E-04
 0.13398000E+03  0.12763E-04
 0.13403000E+03  0.13401E-04
 0.13408000E+03  0.12747E-04
 0.13413000E+03  0.11661E-04
 0.13418001E+03  0.10207E-04
 0.13423000E+03  0.79485E-05
 0.13428000E+03  0.50715E-05
 0.13433000E+03  0.15329E-05
 0.13438000E+03 -0.16949E-05
 0.13443001E+03 -0.40744E-05
 0.13448000E+03 -0.60930E-05
 0.13453000E+03 -0.71551E-05
 0.13458000E+03 -0.68785E-05
 0.13463000E+03 -0.58862E-05
 0.13468001E+03 -0.47231E-05
 0.13473000E+03 -0.33072E-05
 0.13478000E+03 -0.21598E-05
 0.13483000E+03 -0.17997E-05
 0.13488000E+03 -0.18909E-05
 0.13493001E+03 -0.19202E-05
 0.13498000E+03 -0.15678E-05
 0.13503000E+03 -0.11197E-05
 0.13508000E+03 -0.17947E-06
 0.13513000E+03  0.85615E-06
 0.13518001E+03  0.10385E-05
 0.13523000E+03  0.86329E-06
 0.13528000E+03  0.45745E-06
 0.13533000E+03 -0.70904E-06
 0.13538000E+03 -0.24141E-05
 0.13543001E+03 -0.34845E-05
 0.13548000E+03 -0.35046E-05
 0.13553000E+03 -0.31585E-05
 0.13558000E+03 -0.26428E-05
 0.13563000E+03 -0.19751E-05
 0.13568001E+03 -0.16014E-05
 0.13573000E+03 -0.11235E-05
 0.13578000E+03 -0.33124E-06
 0.13583000E+03 -0.12358E-06
 0.13588000E+03  0.17633E-06
 0.13593001E+03  0.80111E-06
 0.13598000E+03  0.67338E-06
 0.13603000E+03  0.72328E-06
 0.13608000E+03  0.15170E-05
 0.13613000E+03  0.25185E-05
 0.13618001E+03  0.34800E-05
 0.13623000E+03  0.39917E-05
 0.13628000E+03  0.46309E-05
 0.13633000E+03  0.52179E-05
 0.13638000E+03  0.44523E-05
 0.13643001E+03  0.30946E-05
 0.13648000E+03  0.22002E-05
 0.13653000E+03  0.10993E-05
 0.13658000E+03  0.29135E-06
 0.13663000E+03 -0.13908E-06
 0.13668001E+03 -0.11308E-05
 0.13673000E+03 -0.18503E-05
 0.13678000E+03 -0.21643E-05
 0.13683000E+03 -0.23073E-05
 0.13688000E+03 -0.25762E-05
 0.13693001E+03 -0.28844E-05
 0.13698000E+03 -0.24180E-05
 0.13703000E+03 -0.20867E-05
 0.13708000E+03 -0.19727E-05
 0.13713000E+03 -0.14417E-05
 0.13718001E+03 -0.83020E-06
 0.13723000E+03  0.30336E-07
 0.13728000E+03  0.14425E-05
 0.13733000E+03  0.31300E-05
 0.13738000E+03  0.41935E-05
 0.13743001E+03  0.47785E-05
 0.13748000E+03  0.54468E-05
 0.13753000E+03  0.56713E-05
 0.13758000E+03  0.53757E-05
 0.13763000E+03  0.44417E-05
 0.13768001E+03  0.32331E-05
 0.13773000E+03  0.22730E-05
 0.13778000E+03  0.16475E-05
 0.13783000E+03  0.97184E-06
 0.13788000E+03 -0.47795E-06
 0.13793001E+03 -0.19735E-05
 0.13798000E+03 -0.32030E-05
 0.13803000E+03 -0.48008E-05
 0.13808000E+03 -0.70283E-05
 0.13813000E+03 -0.91114E-05
 0.13818001E+03 -0.96855E-05
 0.13823000E+03 -0.86365E-05
 0.13828000E+03 -0.67262E-05
 0.13833000E+03 -0.45620E-05
 0.13838000E+03 -0.24381E-05
 0.13843001E+03 -0.16970E-06
 0.13848000E+03  0.24107E-05
 0.13853000E+03  0.45085E-05
 0.13858000E+03  0.58857E-05
 0.13863000E+03  0.65217E-05
 0.13868001E+03  0.58577E-05
 0.13873000E+03  0.45086E-05
 0.13878000E+03  0.30839E-05
 0.13883000E+03  0.15845E-05
 0.13888000E+03 -0.15247E-06
 0.13893001E+03 -0.18735E-05
 0.13898000E+03 -0.30875E-05
 0.13903000E+03 -0.39447E-05
 0.13908000E+03 -0.44776E-05
 0.13913000E+03 -0.43688E-05
 0.13918001E+03 -0.37510E-05
 0.13923000E+03 -0.28123E-05
 0.13928000E+03 -0.17169E-05
 0.13933000E+03 -0.88623E-06
 0.13938000E+03 -0.68411E-07
 0.13943001E+03  0.61769E-06
 0.13948000E+03  0.89115E-06
 0.13953000E+03  0.10469E-05
 0.13958000E+03  0.12763E-05
 0.13963000E+03  0.15826E-05
 0.13968001E+03  0.19584E-05
 0.13973000E+03  0.31101E-05
 0.13978000E+03  0.43957E-05
 0.13983000E+03  0.42233E-05
 0.13988000E+03  0.33465E-05
 0.13993001E+03  0.27275E-05
 0.13998000E+03  0.21606E-05
 0.14003000E+03  0.10771E-05
 0.14008000E+03 -0.50876E-06
 0.14013000E+03 -0.11742E-05
 0.14018001E+03 -0.76838E-06
 0.14023000E+03 -0.78605E-06
 0.14028000E+03 -0.88986E-06
 0.14033000E+03 -0.15062E-06
 0.14038000E+03  0.79082E-06
 0.14043001E+03  0.11319E-05
 0.14048000E+03  0.28029E-06
 0.14053000E+03 -0.11050E-05
 0.14058000E+03 -0.18636E-05
 0.14063000E+03 -0.18364E-05
 0.14068001E+03 -0.16998E-05
 0.14073000E+03 -0.17645E-05
 0.14078000E+03 -0.76174E-06
 0.14083000E+03  0.12461E-05
 0.14088000E+03  0.28202E-05
 0.14093001E+03  0.38925E-05
 0.14098000E+03  0.47233E-05
 0.14103000E+03  0.55947E-05
 0.14108000E+03  0.60221E-05
 0.14113000E+03  0.49903E-05
 0.14118001E+03  0.34533E-05
 0.14123000E+03  0.22421E-05
 0.14128000E+03  0.70160E-06
 0.14133000E+03 -0.16591E-05
 0.14138000E+03 -0.42019E-05
 0.14143001E+03 -0.56799E-05
 0.14148000E+03 -0.56902E-05
 0.14153000E+03 -0.48574E-05
 0.14158000E+03 -0.43485E-05
 0.14163000E+03 -0.44805E-05
 0.14168001E+03 -0.44626E-05
 0.14173000E+03 -0.42327E-05
 0.14178000E+03 -0.46706E-05
 0.14183000E+03 -0.52346E-05
 0.14188000E+03 -0.51103E-05
 0.14193001E+03 -0.49917E-05
 0.14198000E+03 -0.41402E-05
 0.14203000E+03 -0.23371E-05
 0.14208000E+03 -0.78184E-06
 0.14213000E+03  0.79446E-06
 0.14218001E+03  0.19955E-05
 0.14223000E+03  0.26994E-05
 0.14228000E+03  0.38990E-05
 0.14233000E+03  0.56952E-05
 0.14238000E+03  0.66876E-05
 0.14243001E+03  0.59978E-05
 0.14248000E+03  0.49417E-05
 0.14253000E+03  0.39792E-05
 0.14258000E+03  0.27112E-05
 0.14263000E+03  0.87710E-06
 0.14268001E+03 -0.14439E-05
 0.14273000E+03 -0.34539E-05
 0.14278000E+03 -0.51363E-05
 0.14283000E+03 -0.65768E-05
 0.14288000E+03 -0.72627E-05
 0.14293001E+03 -0.70392E-05
 0.14298000E+03 -0.58376E-05
 0.14303000E+03 -0.43304E-05
 0.14308000E+03 -0.30820E-05
 0.14313000E+03 -0.13730E-05
 0.14318001E+03  0.55273E-06
 0.14323000E+03  0.19729E-05
 0.14328000E+03  0.33897E-05
 0.14333000E+03  0.51527E-05
 0.14338000E+03  0.65311E-05
 0.14343001E+03  0.73229E-05
 0.14348000E+03  0.76291E-05
 0.14353000E+03  0.73070E-05
 0.14358000E+03  0.62148E-05
 0.14363000E+03  0.45759E-05
 0.14368001E+03  0.30059E-05
 0.14373000E+03  0.15332E-05
 0.14378000E+03  0.48443E-06
 0.14383000E+03  0.12021E-06
 0.14388000E+03 -0.23094E-07
 0.14393001E+03 -0.52993E-06
 0.14398000E+03 -0.12751E-05
 0.14403000E+03 -0.19709E-05
 0.14408000E+03 -0.24145E-05
 0.14413000E+03 -0.22378E-05
 0.14418001E+03 -0.17359E-05
 0.14423000E+03 -0.10093E-05
 0.14428000E+03 -0.11874E-06
 0.14433000E+03  0.41022E-06
 0.14438000E+03  0.42786E-06
 0.14443001E+03  0.18907E-06
 0.14448000E+03 -0.21340E-06
 0.14453000E+03 -0.50657E-06
 0.14458000E+03 -0.36455E-06
 0.14463000E+03  0.11926E-06
 0.14468001E+03  0.95138E-06
 0.14473000E+03  0.19885E-05
 0.14478000E+03  0.25123E-05
 0.14483000E+03  0.28624E-05
 0.14488000E+03  0.36915E-05
 0.14493001E+03  0.34486E-05
 0.14498000E+03  0.19877E-05
 0.14503000E+03  0.49457E-06
 0.14508000E+03 -0.11617E-05
 0.14513000E+03 -0.26990E-05
 0.14518001E+03 -0.41219E-05
 0.14523000E+03 -0.51136E-05
 0.14528000E+03 -0.54462E-05
 0.14533000E+03 -0.56472E-05
 0.14538000E+03 -0.56573E-05
 0.14543001E+03 -0.51943E-05
 0.14548000E+03 -0.44284E-05
 0.14553000E+03 -0.35288E-05
 0.14558000E+03 -0.24750E-05
 0.14563000E+03 -0.17191E-05
 0.14568001E+03 -0.11573E-05
 0.14573000E+03 -0.82719E-06
 0.14578000E+03 -0.74847E-06
 0.14583000E+03 -0.27559E-06
 0.14588000E+03  0.47943E-06
 0.14593001E+03  0.13552E-05
 0.14598000E+03  0.21983E-05
 0.14603000E+03  0.28130E-05
 0.14608000E+03  0.34156E-05
 0.14613000E+03  0.39808E-05
 0.14618001E+03  0.42269E-05
 0.14623000E+03  0.40675E-05
 0.14628000E+03  0.38554E-05
 0.14633000E+03  0.38200E-05
 0.14638000E+03  0.36229E-05
 0.14643001E+03  0.31689E-05
 0.14648000E+03  0.30041E-05
 0.14653000E+03  0.30407E-05
 0.14658000E+03  0.26844E-05
 0.14663000E+03  0.23413E-05
 0.14668001E+03  0.23097E-05
 0.14673000E+03  0.21870E-05
 0.14678000E+03  0.18961E-05
 0.14683000E+03  0.11648E-05
 0.14688000E+03 -0.32807E-07
 0.14693001E+03 -0.10974E-05
 0.14698000E+03 -0.21682E-05
 0.14703000E+03 -0.34163E-05
 0.14708000E+03 -0.42902E-05
 0.14713000E+03 -0.47594E-05
 0.14718001E+03 -0.49653E-05
 0.14723000E+03 -0.45829E-05
 0.14728000E+03 -0.36811E-05
 0.14733000E+03 -0.23154E-05
 0.14738000E+03 -0.10108E-05
 0.14743001E+03 -0.46187E-06
 0.14748000E+03 -0.60954E-08
 0.14753000E+03  0.39178E-06
 0.14758000E+03  0.30656E-06
 0.14763000E+03  0.24586E-08
 0.14768001E+03 -0.36704E-06
 0.14773000E+03 -0.72177E-06
 0.14778000E+03 -0.10290E-05
 0.14783000E+03 -0.98190E-06
 0.14788000E+03 -0.63845E-06
 0.14793001E+03 -0.44680E-06
 0.14798000E+03 -0.74975E-06
 0.14803000E+03 -0.17973E-05
 0.14808000E+03 -0.31416E-05
 0.14813000E+03 -0.42795E-05
 0.14818001E+03 -0.50348E-05
 0.14823000E+03 -0.52694E-05
 0.14828000E+03 -0.51287E-05
 0.14833000E+03 -0.42436E-05
 0.14838000E+03 -0.23452E-05
 0.14843001E+03 -0.12874E-06
 0.14848000E+03  0.19270E-05
 0.14853000E+03  0.37782E-05
 0.14858000E+03  0.52886E-05
 0.14863000E+03  0.62621E-05
 0.14868001E+03  0.66261E-05
 0.14873000E+03  0.63762E-05
 0.14878000E+03  0.60872E-05
 0.14883000E+03  0.57574E-05
 0.14888000E+03  0.51164E-05
 0.14893001E+03  0.45504E-05
 0.14898000E+03  0.37121E-05
 0.14903000E+03  0.28673E-05
 0.14908000E+03  0.19182E-05
 0.14913000E+03  0.62719E-06
 0.14918001E+03 -0.24209E-06
 0.14923000E+03 -0.10117E-05
 0.14928000E+03 -0.15569E-05
 0.14933000E+03 -0.15328E-05
 0.14938000E+03 -0.12291E-05
 0.14943001E+03 -0.88571E-06
 0.14948000E+03 -0.91349E-06
 0.14953000E+03 -0.10317E-05
 0.14958000E+03 -0.64866E-06
 0.14963000E+03  0.64057E-07
 0.14968001E+03  0.39440E-06
 0.14973000E+03  0.20276E-06
 0.14978000E+03  0.10899E-06
 0.14983000E+03  0.18873E-06
 0.14988000E+03  0.10170E-06
 0.14993001E+03 -0.20131E-06
 0.14998000E+03 -0.90483E-06
