-0.19996643E-01  0.12137E-05
 0.30003358E-01  0.73516E-06
 0.80003358E-01  0.28168E-06
 0.13000336E+00  0.44998E-07
 0.18000336E+00 -0.13588E-06
 0.23000336E+00 -0.26961E-06
 0.28000337E+00 -0.31025E-06
 0.33000335E+00 -0.34362E-06
 0.38000336E+00 -0.37721E-06
 0.43000337E+00 -0.33701E-06
 0.48000336E+00 -0.20896E-06
 0.53000337E+00 -0.20116E-06
 0.58000338E+00 -0.14061E-06
 0.63000339E+00 -0.11316E-06
 0.68000335E+00 -0.40306E-07
 0.73000336E+00 -0.23370E-07
 0.78000337E+00 -0.50603E-08
 0.83000338E+00  0.66376E-07
 0.88000339E+00 -0.27629E-07
 0.93000335E+00  0.79824E-07
 0.98000336E+00 -0.27972E-07
 0.10300034E+01 -0.30799E-07
 0.10800034E+01  0.10196E-06
 0.11300033E+01  0.34478E-08
 0.11800034E+01  0.86413E-07
 0.12300034E+01 -0.71041E-07
 0.12800034E+01 -0.20290E-07
 0.13300034E+01  0.60443E-07
 0.13800033E+01 -0.23144E-07
 0.14300034E+01  0.85856E-07
 0.14800034E+01 -0.47211E-08
 0.15300034E+01  0.12371E-07
 0.15800034E+01 -0.51272E-07
 0.16300033E+01 -0.75635E-07
 0.16800034E+01  0.17870E-07
 0.17300034E+01 -0.22274E-07
 0.17800034E+01  0.15443E-07
 0.18300034E+01 -0.18507E-07
 0.18800033E+01 -0.43967E-07
 0.19300034E+01 -0.18963E-07
 0.19800034E+01 -0.38408E-07
 0.20300033E+01 -0.50579E-07
 0.20800035E+01  0.21795E-08
 0.21300035E+01 -0.19589E-08
 0.21800034E+01  0.26580E-07
 0.22300034E+01  0.37547E-08
 0.22800033E+01 -0.11584E-07
 0.23300035E+01  0.64261E-07
 0.23800035E+01 -0.27941E-07
 0.24300034E+01  0.35335E-07
 0.24800034E+01  0.54377E-07
 0.25300033E+01  0.39541E-07
 0.25800035E+01  0.36399E-07
 0.26300035E+01 -0.18674E-07
 0.26800034E+01  0.17931E-07
 0.27300034E+01 -0.12156E-07
 0.27800033E+01  0.60244E-07
 0.28300035E+01  0.40960E-07
 0.28800035E+01  0.23312E-07
 0.29300034E+01 -0.37228E-07
 0.29800034E+01 -0.11126E-06
 0.30300033E+01 -0.69631E-08
 0.30800035E+01 -0.78774E-07
 0.31300035E+01 -0.43300E-07
 0.31800034E+01  0.73252E-07
 0.32300034E+01  0.62937E-07
 0.32800033E+01  0.74742E-07
 0.33300035E+01  0.36121E-07
 0.33800035E+01  0.42271E-07
 0.34300034E+01  0.43615E-07
 0.34800034E+01  0.19885E-07
 0.35300033E+01  0.42062E-07
 0.35800035E+01 -0.13977E-10
 0.36300035E+01 -0.78993E-08
 0.36800034E+01 -0.78299E-09
 0.37300034E+01 -0.38731E-07
 0.37800033E+01 -0.13801E-07
 0.38300035E+01  0.28977E-08
 0.38800035E+01 -0.97027E-08
 0.39300034E+01  0.10476E-09
 0.39800034E+01  0.41799E-09
 0.40300035E+01 -0.93620E-08
 0.40800033E+01 -0.97098E-08
 0.41300035E+01  0.21087E-07
 0.41800036E+01  0.25385E-08
 0.42300034E+01 -0.91637E-08
 0.42800035E+01  0.18684E-07
 0.43300033E+01 -0.21060E-07
 0.43800035E+01  0.17214E-07
 0.44300036E+01  0.76586E-07
 0.44800034E+01  0.27740E-07
 0.45300035E+01  0.61203E-08
 0.45800033E+01 -0.10624E-07
 0.46300035E+01 -0.40405E-07
 0.46800036E+01  0.29687E-07
 0.47300034E+01  0.14958E-07
 0.47800035E+01 -0.10810E-07
 0.48300033E+01 -0.97558E-08
 0.48800035E+01 -0.69970E-07
 0.49300036E+01  0.88410E-08
 0.49800034E+01 -0.74618E-07
 0.50300035E+01 -0.14921E-06
 0.50800033E+01 -0.94737E-07
 0.51300035E+01 -0.12063E-06
 0.51800036E+01 -0.34040E-07
 0.52300034E+01 -0.33466E-07
 0.52800035E+01 -0.74177E-07
 0.53300033E+01 -0.64487E-07
 0.53800035E+01 -0.67018E-07
 0.54300036E+01 -0.10337E-07
 0.54800034E+01  0.43557E-07
 0.55300035E+01  0.37221E-07
 0.55800033E+01  0.22607E-07
 0.56300035E+01  0.50523E-08
 0.56800036E+01 -0.30312E-08
 0.57300034E+01  0.33409E-07
 0.57800035E+01  0.36589E-07
 0.58300033E+01  0.34495E-07
 0.58800035E+01 -0.13785E-07
 0.59300036E+01 -0.30573E-08
 0.59800034E+01  0.84444E-07
 0.60300035E+01  0.11627E-06
 0.60800033E+01  0.11143E-06
 0.61300035E+01  0.73905E-07
 0.61800036E+01  0.51064E-07
 0.62300034E+01  0.40669E-07
 0.62800035E+01  0.92490E-08
 0.63300033E+01 -0.29153E-07
 0.63800035E+01  0.22568E-07
 0.64300036E+01 -0.16500E-07
 0.64800034E+01 -0.21133E-07
 0.65300035E+01 -0.76841E-08
 0.65800033E+01 -0.72450E-07
 0.66300035E+01  0.34279E-07
 0.66800036E+01 -0.82260E-07
 0.67300034E+01 -0.35004E-07
 0.67800035E+01  0.92416E-07
 0.68300033E+01 -0.62474E-07
 0.68800035E+01  0.99233E-08
 0.69300036E+01 -0.77067E-08
 0.69800034E+01 -0.45452E-07
 0.70300035E+01  0.48172E-08
 0.70800033E+01  0.30702E-07
 0.71300035E+01  0.30910E-07
 0.71800036E+01 -0.39877E-07
 0.72300034E+01 -0.38305E-07
 0.72800035E+01 -0.42177E-07
 0.73300033E+01  0.49845E-07
 0.73800035E+01  0.51144E-07
 0.74300036E+01  0.17629E-07
 0.74800034E+01  0.89018E-07
 0.75300035E+01  0.11866E-07
 0.75800033E+01  0.33051E-07
 0.76300035E+01  0.60695E-07
 0.76800036E+01  0.21027E-07
 0.77300034E+01  0.36073E-07
 0.77800035E+01 -0.13278E-07
 0.78300033E+01 -0.12827E-07
 0.78800035E+01 -0.19067E-07
 0.79300036E+01 -0.21935E-07
 0.79800034E+01  0.26902E-09
 0.80300035E+01 -0.45594E-07
 0.80800037E+01  0.13009E-07
 0.81300039E+01  0.32439E-07
 0.81800032E+01 -0.45242E-07
 0.82300034E+01  0.16784E-08
 0.82800035E+01 -0.23273E-07
 0.83300037E+01 -0.44966E-07
 0.83800039E+01  0.37840E-07
 0.84300032E+01 -0.38622E-07
 0.84800034E+01 -0.28057E-07
 0.85300035E+01  0.23547E-07
 0.85800037E+01 -0.89286E-07
 0.86300039E+01 -0.59780E-07
 0.86800032E+01 -0.41227E-07
 0.87300034E+01 -0.31586E-07
 0.87800035E+01 -0.41645E-08
 0.88300037E+01 -0.38367E-07
 0.88800039E+01  0.40661E-07
 0.89300032E+01 -0.12588E-07
 0.89800034E+01  0.41809E-07
 0.90300035E+01  0.10994E-06
 0.90800037E+01  0.13107E-07
 0.91300039E+01  0.71704E-07
 0.91800032E+01 -0.47029E-08
 0.92300034E+01 -0.11948E-07
 0.92800035E+01 -0.40953E-08
 0.93300037E+01 -0.26185E-07
 0.93800039E+01  0.72366E-07
 0.94300032E+01 -0.10300E-07
 0.94800034E+01  0.11720E-08
 0.95300035E+01 -0.50055E-07
 0.95800037E+01 -0.70930E-07
 0.96300039E+01  0.49103E-07
 0.96800032E+01 -0.61287E-07
 0.97300034E+01 -0.33259E-07
 0.97800035E+01  0.19220E-07
 0.98300037E+01 -0.11534E-07
 0.98800039E+01  0.27761E-07
 0.99300032E+01 -0.14920E-07
 0.99800034E+01 -0.42288E-07
 0.10030004E+02 -0.24612E-07
 0.10080004E+02  0.14339E-08
 0.10130004E+02  0.49855E-07
 0.10180003E+02  0.37911E-07
 0.10230003E+02 -0.13379E-07
 0.10280004E+02  0.45918E-07
 0.10330004E+02  0.32512E-07
 0.10380004E+02 -0.18885E-07
 0.10430003E+02  0.23677E-07
 0.10480003E+02 -0.46437E-08
 0.10530004E+02  0.56747E-07
 0.10580004E+02  0.48588E-07
 0.10630004E+02 -0.50073E-07
 0.10680003E+02  0.38291E-07
 0.10730003E+02  0.10319E-07
 0.10780004E+02 -0.36747E-08
 0.10830004E+02  0.50115E-07
 0.10880004E+02 -0.89393E-08
 0.10930003E+02 -0.11335E-08
 0.10980003E+02  0.11524E-07
 0.11030004E+02  0.36621E-07
 0.11080004E+02  0.26300E-07
 0.11130004E+02  0.92113E-08
 0.11180003E+02 -0.12436E-07
 0.11230003E+02 -0.74261E-07
 0.11280004E+02 -0.84073E-07
 0.11330004E+02 -0.11186E-06
 0.11380004E+02 -0.92449E-07
 0.11430003E+02 -0.25420E-08
 0.11480003E+02  0.31053E-07
 0.11530004E+02 -0.31464E-07
 0.11580004E+02 -0.49535E-07
 0.11630004E+02 -0.97960E-08
 0.11680003E+02  0.38760E-07
 0.11730003E+02  0.98885E-08
 0.11780004E+02 -0.18626E-08
 0.11830004E+02  0.46854E-07
 0.11880004E+02 -0.21957E-07
 0.11930003E+02 -0.18964E-07
 0.11980003E+02  0.15878E-08
 0.12030004E+02  0.21803E-07
 0.12080004E+02  0.47667E-08
 0.12130004E+02  0.45979E-07
 0.12180003E+02  0.86225E-07
 0.12230003E+02 -0.28981E-07
 0.12280004E+02  0.25147E-08
 0.12330004E+02 -0.13298E-07
 0.12380004E+02 -0.21178E-07
 0.12430003E+02 -0.70228E-08
 0.12480003E+02 -0.44332E-07
 0.12530004E+02 -0.44008E-07
 0.12580004E+02 -0.47577E-09
 0.12630004E+02  0.62099E-07
 0.12680003E+02  0.57055E-07
 0.12730003E+02  0.46850E-07
 0.12780004E+02 -0.16777E-07
 0.12830004E+02 -0.80913E-08
 0.12880004E+02 -0.24948E-07
 0.12930003E+02 -0.55051E-08
 0.12980003E+02  0.69877E-07
 0.13030004E+02  0.46161E-07
 0.13080004E+02  0.46739E-07
 0.13130004E+02  0.32215E-07
 0.13180003E+02  0.35431E-07
 0.13230003E+02 -0.95184E-08
 0.13280004E+02  0.89714E-08
 0.13330004E+02  0.10560E-07
 0.13380004E+02 -0.51739E-07
 0.13430003E+02 -0.35414E-07
 0.13480003E+02 -0.29659E-07
 0.13530004E+02  0.17795E-07
 0.13580004E+02  0.33670E-07
 0.13630004E+02 -0.50089E-08
 0.13680003E+02 -0.35382E-07
 0.13730003E+02 -0.52019E-07
 0.13780004E+02 -0.54134E-07
 0.13830004E+02  0.28438E-07
 0.13880004E+02  0.35103E-08
 0.13930003E+02 -0.70453E-07
 0.13980003E+02 -0.21510E-07
 0.14030004E+02 -0.52056E-07
 0.14080004E+02 -0.40010E-07
 0.14130004E+02  0.39555E-08
 0.14180003E+02  0.49740E-07
 0.14230003E+02 -0.10041E-07
 0.14280004E+02 -0.43994E-07
 0.14330004E+02  0.62021E-08
 0.14380004E+02  0.11636E-07
 0.14430003E+02  0.93368E-07
 0.14480003E+02 -0.28034E-07
 0.14530004E+02 -0.24860E-07
 0.14580004E+02  0.34441E-08
 0.14630004E+02 -0.10511E-07
 0.14680003E+02  0.10075E-06
 0.14730003E+02  0.20376E-07
 0.14780004E+02  0.24089E-07
 0.14830004E+02 -0.15652E-07
 0.14880004E+02  0.30524E-09
 0.14930003E+02  0.35582E-07
 0.14980003E+02 -0.38953E-07
 0.15030004E+02 -0.33890E-07
 0.15080004E+02 -0.65322E-07
 0.15130004E+02 -0.10204E-07
 0.15180003E+02  0.36833E-08
 0.15230003E+02 -0.26302E-07
 0.15280004E+02  0.32180E-07
 0.15330004E+02  0.42035E-07
 0.15380004E+02 -0.13114E-07
 0.15430003E+02 -0.14803E-07
 0.15480003E+02 -0.71596E-07
 0.15530004E+02 -0.94311E-07
 0.15580004E+02  0.16077E-07
 0.15630004E+02  0.17542E-07
 0.15680003E+02  0.12696E-07
 0.15730003E+02  0.22013E-08
 0.15780004E+02  0.68711E-10
 0.15830004E+02  0.94385E-08
 0.15880004E+02  0.53285E-07
 0.15930003E+02  0.10299E-06
 0.15980003E+02  0.92772E-07
 0.16030005E+02  0.45742E-07
 0.16080004E+02 -0.45791E-07
 0.16130003E+02  0.97981E-08
 0.16180004E+02 -0.98488E-08
 0.16230003E+02 -0.55479E-07
 0.16280005E+02 -0.67953E-07
 0.16330004E+02 -0.15982E-07
 0.16380003E+02  0.58821E-07
 0.16430004E+02  0.11350E-07
 0.16480003E+02  0.13756E-06
 0.16530005E+02  0.33971E-07
 0.16580004E+02 -0.37980E-07
 0.16630003E+02  0.30336E-07
 0.16680004E+02 -0.51236E-07
 0.16730003E+02  0.25901E-07
 0.16780005E+02  0.96284E-08
 0.16830004E+02  0.83661E-08
 0.16880003E+02  0.20811E-07
 0.16930004E+02 -0.19260E-08
 0.16980003E+02  0.45320E-07
 0.17030005E+02 -0.56086E-08
 0.17080004E+02  0.10722E-07
 0.17130003E+02  0.24313E-07
 0.17180004E+02 -0.23435E-07
 0.17230003E+02 -0.29098E-07
 0.17280005E+02 -0.96840E-07
 0.17330004E+02 -0.57704E-07
 0.17380003E+02  0.68088E-09
 0.17430004E+02 -0.40314E-07
 0.17480003E+02  0.50701E-08
 0.17530005E+02 -0.76447E-07
 0.17580004E+02 -0.11542E-06
 0.17630003E+02 -0.23321E-07
 0.17680004E+02 -0.50709E-07
 0.17730003E+02  0.42367E-08
 0.17780005E+02  0.13273E-07
 0.17830004E+02 -0.12636E-07
 0.17880003E+02  0.68053E-07
 0.17930004E+02  0.69374E-07
 0.17980003E+02  0.32816E-07
 0.18030005E+02  0.27551E-08
 0.18080004E+02  0.38163E-07
 0.18130003E+02  0.59000E-07
 0.18180004E+02 -0.43944E-08
 0.18230003E+02 -0.41146E-08
 0.18280005E+02  0.22656E-07
 0.18330004E+02  0.28059E-07
 0.18380003E+02  0.48368E-07
 0.18430004E+02 -0.30824E-07
 0.18480003E+02 -0.75313E-09
 0.18530005E+02  0.71514E-07
 0.18580004E+02  0.60789E-07
 0.18630003E+02  0.24357E-07
 0.18680004E+02 -0.76963E-07
 0.18730003E+02 -0.26341E-07
 0.18780005E+02 -0.18951E-06
 0.18830004E+02 -0.75760E-06
 0.18880003E+02 -0.32002E-05
 0.18930004E+02 -0.77214E-05
 0.18980003E+02 -0.10548E-04
 0.19030005E+02 -0.65786E-05
 0.19080004E+02  0.32295E-05
 0.19130003E+02  0.11252E-04
 0.19180004E+02  0.16161E-04
 0.19230003E+02  0.17860E-04
 0.19280005E+02  0.13705E-04
 0.19330004E+02  0.81508E-05
 0.19380003E+02 -0.51241E-05
 0.19430004E+02 -0.26931E-04
 0.19480003E+02 -0.27573E-04
 0.19530005E+02 -0.16481E-04
 0.19580004E+02  0.14037E-05
 0.19630003E+02  0.25596E-04
 0.19680004E+02  0.13954E-04
 0.19730003E+02  0.10247E-04
 0.19780005E+02  0.19474E-05
 0.19830004E+02 -0.17116E-04
 0.19880003E+02  0.28833E-05
 0.19930004E+02  0.24166E-05
 0.19980003E+02  0.11622E-04
 0.20030005E+02  0.42699E-05
 0.20080004E+02 -0.34797E-04
 0.20130003E+02 -0.24215E-04
 0.20180004E+02 -0.28912E-04
 0.20230003E+02 -0.41410E-05
 0.20280005E+02  0.41583E-04
 0.20330004E+02  0.32092E-04
 0.20380003E+02  0.48469E-04
 0.20430004E+02  0.15026E-04
 0.20480003E+02 -0.19906E-04
 0.20530005E+02  0.14692E-05
 0.20580004E+02 -0.70536E-05
 0.20630003E+02  0.66267E-05
 0.20680004E+02 -0.11496E-04
 0.20730003E+02 -0.45283E-04
 0.20780005E+02 -0.58166E-04
 0.20830004E+02 -0.41599E-04
 0.20880003E+02  0.11151E-04
 0.20930004E+02  0.40539E-04
 0.20980003E+02  0.82454E-04
 0.21030005E+02  0.61480E-04
 0.21080004E+02  0.13039E-04
 0.21130003E+02 -0.15070E-04
 0.21180004E+02 -0.81631E-04
 0.21230003E+02 -0.35002E-04
 0.21280005E+02  0.14433E-04
 0.21330004E+02 -0.33849E-04
 0.21380003E+02 -0.14304E-04
 0.21430004E+02  0.16761E-04
 0.21480003E+02  0.97531E-04
 0.21530005E+02  0.53102E-04
 0.21580004E+02 -0.95653E-04
 0.21630003E+02  0.11153E-04
 0.21680004E+02 -0.51468E-04
 0.21730003E+02 -0.13191E-03
 0.21780005E+02  0.11906E-03
 0.21830004E+02  0.15075E-03
 0.21880003E+02  0.23724E-04
 0.21930004E+02 -0.93054E-04
 0.21980003E+02 -0.12676E-03
 0.22030005E+02  0.10026E-04
 0.22080004E+02  0.73743E-04
 0.22130003E+02 -0.60631E-04
 0.22180004E+02 -0.51963E-04
 0.22230003E+02  0.20422E-03
 0.22280005E+02 -0.67799E-04
 0.22330004E+02 -0.83930E-04
 0.22380003E+02  0.30590E-03
 0.22430004E+02 -0.22828E-04
 0.22480003E+02 -0.15629E-03
 0.22530005E+02 -0.49079E-04
 0.22580004E+02 -0.17975E-03
 0.22630003E+02 -0.88021E-04
 0.22680004E+02  0.16267E-03
 0.22730003E+02  0.14307E-03
 0.22780005E+02 -0.58181E-04
 0.22830004E+02  0.28854E-04
 0.22880003E+02 -0.57362E-05
 0.22930004E+02 -0.17880E-05
 0.22980003E+02  0.95021E-04
 0.23030005E+02 -0.40363E-04
 0.23080004E+02 -0.65032E-04
 0.23130003E+02 -0.59576E-04
 0.23180004E+02  0.39456E-05
 0.23230003E+02  0.13223E-04
 0.23280005E+02  0.93153E-04
 0.23330004E+02  0.11539E-03
 0.23380003E+02 -0.11236E-03
 0.23430004E+02 -0.18254E-03
 0.23480003E+02 -0.15474E-03
 0.23530005E+02  0.62151E-04
 0.23580004E+02  0.23800E-03
 0.23630003E+02  0.23103E-03
 0.23680004E+02  0.15862E-03
 0.23730003E+02 -0.13850E-03
 0.23780005E+02 -0.27989E-03
 0.23830004E+02 -0.17169E-03
 0.23880003E+02 -0.17153E-04
 0.23930004E+02  0.73057E-04
 0.23980003E+02  0.25311E-04
 0.24030005E+02  0.90877E-04
 0.24080004E+02  0.12847E-03
 0.24130003E+02 -0.86459E-05
 0.24180004E+02  0.38164E-06
 0.24230003E+02  0.59837E-04
 0.24280005E+02 -0.92016E-04
 0.24330004E+02 -0.18933E-03
 0.24380003E+02 -0.14733E-03
 0.24430004E+02  0.13500E-05
 0.24480003E+02  0.12407E-03
 0.24530005E+02  0.10581E-03
 0.24580004E+02  0.10580E-03
 0.24630003E+02 -0.43689E-04
 0.24680004E+02 -0.32470E-05
 0.24730003E+02  0.10074E-03
 0.24780005E+02 -0.51504E-04
 0.24830004E+02  0.59449E-05
 0.24880003E+02  0.19724E-04
 0.24930004E+02 -0.35371E-04
 0.24980003E+02  0.42049E-05
 0.25030005E+02 -0.81963E-04
 0.25080004E+02 -0.10123E-03
 0.25130003E+02  0.30540E-05
 0.25180004E+02  0.16473E-04
 0.25230003E+02 -0.16401E-04
 0.25280005E+02  0.63857E-04
 0.25330004E+02  0.87821E-04
 0.25380003E+02  0.65847E-04
 0.25430004E+02  0.17544E-04
 0.25480003E+02 -0.13004E-03
 0.25530005E+02 -0.35906E-04
 0.25580004E+02  0.11139E-03
 0.25630003E+02  0.78044E-04
 0.25680004E+02 -0.67832E-04
 0.25730003E+02 -0.11165E-03
 0.25780005E+02 -0.56132E-04
 0.25830004E+02 -0.10215E-03
 0.25880003E+02  0.90202E-05
 0.25930004E+02  0.17388E-03
 0.25980003E+02  0.13349E-03
 0.26030005E+02 -0.89048E-04
 0.26080004E+02 -0.13400E-03
 0.26130003E+02  0.48668E-04
 0.26180004E+02  0.64292E-04
 0.26230003E+02 -0.19458E-04
 0.26280005E+02  0.70936E-05
 0.26330004E+02 -0.24155E-04
 0.26380003E+02 -0.69260E-04
 0.26430004E+02 -0.11115E-03
 0.26480003E+02  0.15393E-04
 0.26530005E+02  0.29180E-03
 0.26580004E+02  0.51266E-04
 0.26630003E+02 -0.20640E-03
 0.26680004E+02 -0.35584E-04
 0.26730003E+02  0.12212E-03
 0.26780005E+02  0.78231E-04
 0.26830004E+02 -0.76084E-04
 0.26880003E+02 -0.28999E-04
 0.26930004E+02  0.37123E-04
 0.26980003E+02 -0.55737E-04
 0.27030005E+02 -0.74302E-04
 0.27080004E+02 -0.64890E-04
 0.27130003E+02  0.54278E-04
 0.27180004E+02  0.18360E-03
 0.27230003E+02  0.45915E-04
 0.27280005E+02  0.58085E-04
 0.27330004E+02  0.15167E-03
 0.27380003E+02  0.47781E-04
 0.27430004E+02 -0.27523E-04
 0.27480003E+02 -0.21088E-03
 0.27530005E+02 -0.44691E-03
 0.27580004E+02 -0.38894E-03
 0.27630003E+02  0.49588E-05
 0.27680004E+02  0.17831E-03
 0.27730003E+02  0.18150E-03
 0.27780005E+02  0.37665E-03
 0.27830004E+02  0.30315E-03
 0.27880003E+02  0.64939E-04
 0.27930004E+02 -0.15746E-03
 0.27980003E+02 -0.24795E-03
 0.28030005E+02 -0.67850E-04
 0.28080004E+02  0.86040E-04
 0.28130003E+02  0.16340E-03
 0.28180004E+02 -0.38613E-04
 0.28230003E+02 -0.29989E-03
 0.28280005E+02 -0.24940E-03
 0.28330004E+02 -0.10697E-03
 0.28380003E+02  0.19860E-03
 0.28430004E+02  0.31451E-03
 0.28480003E+02  0.31266E-04
 0.28530005E+02  0.10142E-03
 0.28580004E+02  0.23898E-03
 0.28630003E+02  0.10555E-03
 0.28680004E+02 -0.20714E-04
 0.28730003E+02 -0.35302E-03
 0.28780005E+02 -0.44794E-03
 0.28830004E+02 -0.12341E-03
 0.28880003E+02  0.61820E-04
 0.28930004E+02  0.12876E-03
 0.28980003E+02  0.21235E-03
 0.29030005E+02  0.16001E-03
 0.29080004E+02  0.64021E-04
 0.29130003E+02 -0.20621E-03
 0.29180004E+02 -0.24181E-03
 0.29230003E+02  0.15677E-03
 0.29280005E+02  0.24402E-03
 0.29330004E+02  0.85637E-04
 0.29380003E+02 -0.66255E-04
 0.29430004E+02 -0.57438E-04
 0.29480003E+02  0.98656E-05
 0.29530005E+02 -0.17719E-04
 0.29580004E+02 -0.95148E-04
 0.29630003E+02 -0.17089E-03
 0.29680004E+02 -0.18040E-03
 0.29730003E+02 -0.19688E-03
 0.29780005E+02 -0.74561E-05
 0.29830004E+02  0.38336E-03
 0.29880003E+02  0.54076E-03
 0.29930004E+02  0.31489E-03
 0.29980003E+02 -0.35294E-04
 0.30030005E+02 -0.24265E-03
 0.30080004E+02 -0.27251E-03
 0.30130003E+02 -0.23952E-03
 0.30180004E+02 -0.43483E-04
 0.30230003E+02  0.50253E-04
 0.30280005E+02  0.30917E-04
 0.30330004E+02  0.14847E-03
 0.30380003E+02 -0.65786E-04
 0.30430004E+02 -0.22970E-03
 0.30480003E+02 -0.80592E-04
 0.30530005E+02  0.82934E-04
 0.30580004E+02  0.13090E-03
 0.30630003E+02 -0.39623E-04
 0.30680004E+02 -0.10208E-03
 0.30730003E+02 -0.12913E-03
 0.30780005E+02 -0.50631E-04
 0.30830004E+02  0.24344E-03
 0.30880003E+02  0.54119E-03
 0.30930004E+02  0.36004E-03
 0.30980003E+02 -0.71511E-04
 0.31030005E+02 -0.18833E-03
 0.31080004E+02 -0.33261E-03
 0.31130003E+02 -0.33905E-03
 0.31180004E+02 -0.21878E-03
 0.31230003E+02 -0.14979E-03
 0.31280005E+02  0.45223E-04
 0.31330004E+02  0.38589E-03
 0.31380003E+02  0.40834E-03
 0.31430004E+02  0.12994E-03
 0.31480003E+02 -0.57972E-04
 0.31530005E+02 -0.23672E-03
 0.31580004E+02 -0.20537E-03
 0.31630003E+02 -0.12354E-03
 0.31680004E+02  0.77785E-04
 0.31730003E+02  0.27532E-03
 0.31780005E+02  0.11639E-03
 0.31830004E+02 -0.78743E-04
 0.31880003E+02  0.20620E-05
 0.31930004E+02  0.40736E-04
 0.31980003E+02 -0.17275E-03
 0.32030003E+02 -0.25008E-03
 0.32080006E+02 -0.25602E-03
 0.32130005E+02 -0.16220E-03
 0.32180004E+02 -0.43783E-05
 0.32230003E+02 -0.12353E-04
 0.32280003E+02  0.13618E-03
 0.32330006E+02  0.49681E-03
 0.32380005E+02  0.39483E-03
 0.32430004E+02  0.35441E-04
 0.32480003E+02  0.74790E-05
 0.32530003E+02  0.12237E-03
 0.32580006E+02 -0.17125E-04
 0.32630005E+02 -0.30405E-03
 0.32680004E+02 -0.15852E-04
 0.32730003E+02  0.13630E-03
 0.32780003E+02 -0.22470E-03
 0.32830006E+02 -0.33641E-03
 0.32880005E+02 -0.27875E-03
 0.32930004E+02 -0.55282E-04
 0.32980003E+02  0.90126E-04
 0.33030003E+02  0.15189E-03
 0.33080006E+02  0.40398E-03
 0.33130005E+02  0.47470E-03
 0.33180004E+02  0.13334E-03
 0.33230003E+02 -0.32741E-03
 0.33280003E+02 -0.46058E-03
 0.33330006E+02 -0.24339E-03
 0.33380005E+02 -0.26412E-04
 0.33430004E+02 -0.13369E-04
 0.33480003E+02  0.21329E-03
 0.33530003E+02  0.33533E-03
 0.33580006E+02 -0.83288E-04
 0.33630005E+02 -0.33847E-03
 0.33680004E+02 -0.26341E-03
 0.33730003E+02 -0.29800E-03
 0.33780003E+02 -0.25255E-03
 0.33830006E+02  0.35470E-03
 0.33880005E+02  0.82802E-03
 0.33930004E+02  0.95047E-03
 0.33980003E+02  0.59131E-03
 0.34030003E+02 -0.42421E-04
 0.34080006E+02  0.11127E-04
 0.34130005E+02 -0.11691E-03
 0.34180004E+02 -0.29068E-03
 0.34230003E+02 -0.62455E-03
 0.34280003E+02 -0.93101E-03
 0.34330006E+02 -0.66276E-03
 0.34380005E+02 -0.65629E-03
 0.34430004E+02  0.51920E-04
 0.34480003E+02  0.26759E-03
 0.34530003E+02  0.70631E-04
 0.34580006E+02  0.41212E-03
 0.34630005E+02  0.16713E-03
 0.34680004E+02  0.41979E-03
 0.34730003E+02  0.37322E-03
 0.34780003E+02  0.16008E-03
 0.34830006E+02  0.51173E-03
 0.34880005E+02  0.53369E-03
 0.34930004E+02  0.45688E-03
 0.34980003E+02 -0.20739E-03
 0.35030003E+02 -0.73347E-03
 0.35080006E+02 -0.80663E-03
 0.35130005E+02 -0.83604E-03
 0.35180004E+02 -0.59201E-03
 0.35230003E+02 -0.39179E-03
 0.35280003E+02  0.32103E-03
 0.35330006E+02  0.43408E-03
 0.35380005E+02  0.11767E-03
 0.35430004E+02  0.79223E-03
 0.35480003E+02  0.86363E-03
 0.35530003E+02  0.32537E-03
 0.35580006E+02 -0.19323E-03
 0.35630005E+02 -0.68383E-03
 0.35680004E+02 -0.69504E-03
 0.35730003E+02 -0.98951E-04
 0.35780003E+02  0.52030E-03
 0.35830006E+02  0.59072E-03
 0.35880005E+02  0.49660E-03
 0.35930004E+02  0.12029E-03
 0.35980003E+02 -0.46254E-03
 0.36030003E+02 -0.80057E-03
 0.36080006E+02 -0.71329E-03
 0.36130005E+02 -0.41040E-03
 0.36180004E+02  0.24568E-03
 0.36230003E+02  0.63353E-03
 0.36280003E+02  0.70096E-03
 0.36330006E+02  0.93698E-03
 0.36380005E+02  0.14863E-03
 0.36430004E+02 -0.72416E-03
 0.36480003E+02 -0.92369E-03
 0.36530003E+02 -0.75388E-03
 0.36580006E+02 -0.12241E-03
 0.36630005E+02 -0.72814E-04
 0.36680004E+02  0.23245E-03
 0.36730003E+02  0.91484E-03
 0.36780003E+02  0.11360E-02
 0.36830006E+02  0.14616E-02
 0.36880005E+02  0.52306E-03
 0.36930004E+02 -0.74771E-03
 0.36980003E+02 -0.19482E-02
 0.37030003E+02 -0.31554E-02
 0.37080006E+02 -0.14214E-02
 0.37130005E+02  0.92990E-03
 0.37180004E+02  0.20102E-02
 0.37230003E+02  0.20711E-02
 0.37280003E+02  0.16859E-02
 0.37330006E+02  0.17573E-02
 0.37380005E+02  0.23109E-03
 0.37430004E+02 -0.21596E-02
 0.37480003E+02 -0.42048E-02
 0.37530003E+02 -0.43142E-02
 0.37580006E+02 -0.13391E-02
 0.37630005E+02  0.13601E-02
 0.37680004E+02  0.32516E-02
 0.37730003E+02  0.45014E-02
 0.37780003E+02  0.33769E-02
 0.37830006E+02  0.15139E-02
 0.37880005E+02 -0.15713E-03
 0.37930004E+02 -0.19685E-02
 0.37980003E+02 -0.36966E-02
 0.38030003E+02 -0.40683E-02
 0.38080006E+02 -0.20102E-02
 0.38130005E+02  0.98164E-04
 0.38180004E+02  0.21403E-02
 0.38230003E+02  0.29409E-02
 0.38280003E+02  0.14956E-02
 0.38330006E+02  0.10371E-02
 0.38380005E+02  0.10291E-02
 0.38430004E+02  0.11069E-03
 0.38480003E+02 -0.12784E-02
 0.38530003E+02 -0.19374E-02
 0.38580006E+02 -0.18538E-02
 0.38630005E+02 -0.13823E-02
 0.38680004E+02  0.16413E-03
 0.38730003E+02  0.17689E-02
 0.38780003E+02  0.28765E-02
 0.38830006E+02  0.17054E-02
 0.38880005E+02 -0.12378E-02
 0.38930004E+02 -0.22736E-02
 0.38980003E+02 -0.13306E-02
 0.39030003E+02 -0.48789E-03
 0.39080006E+02 -0.36385E-03
 0.39130005E+02  0.58445E-03
 0.39180004E+02  0.18058E-02
 0.39230003E+02  0.15478E-02
 0.39280003E+02  0.25599E-03
 0.39330006E+02 -0.10432E-02
 0.39380005E+02 -0.80744E-03
 0.39430004E+02  0.22296E-03
 0.39480003E+02 -0.37764E-03
 0.39530003E+02 -0.13661E-02
 0.39580006E+02 -0.60011E-03
 0.39630005E+02  0.98874E-03
 0.39680004E+02  0.15003E-02
 0.39730003E+02  0.67437E-03
 0.39780003E+02  0.14058E-03
 0.39830006E+02 -0.18336E-03
 0.39880005E+02 -0.10685E-02
 0.39930004E+02 -0.88152E-03
 0.39980003E+02 -0.52431E-03
 0.40030003E+02 -0.72141E-03
 0.40080006E+02  0.46461E-03
 0.40130005E+02  0.13311E-02
 0.40180004E+02  0.86891E-03
 0.40230003E+02  0.14898E-03
 0.40280003E+02 -0.81756E-04
 0.40330006E+02  0.15497E-03
 0.40380005E+02 -0.35679E-03
 0.40430004E+02 -0.36821E-03
 0.40480003E+02 -0.20984E-04
 0.40530003E+02 -0.19712E-03
 0.40580006E+02 -0.38185E-03
 0.40630005E+02 -0.36704E-03
 0.40680004E+02  0.75829E-03
 0.40730003E+02  0.16044E-02
 0.40780003E+02  0.68281E-03
 0.40830006E+02 -0.66736E-03
 0.40880005E+02 -0.10413E-02
 0.40930004E+02 -0.62711E-03
 0.40980003E+02 -0.60367E-04
 0.41030003E+02  0.28127E-03
 0.41080006E+02 -0.15912E-03
 0.41130005E+02 -0.44957E-03
 0.41180004E+02 -0.95713E-04
 0.41230003E+02 -0.23091E-03
 0.41280003E+02 -0.53892E-03
 0.41330006E+02  0.16835E-05
 0.41380005E+02  0.97698E-03
 0.41430004E+02  0.10979E-02
 0.41480003E+02  0.17859E-03
 0.41530003E+02 -0.10456E-02
 0.41580006E+02 -0.16242E-02
 0.41630005E+02 -0.10851E-02
 0.41680004E+02  0.57020E-04
 0.41730003E+02  0.16059E-02
 0.41780003E+02  0.22112E-02
 0.41830006E+02  0.14500E-02
 0.41880005E+02  0.10969E-02
 0.41930004E+02  0.48015E-03
 0.41980003E+02 -0.75538E-03
 0.42030003E+02 -0.13431E-02
 0.42080006E+02 -0.15162E-02
 0.42130005E+02 -0.69815E-03
 0.42180004E+02  0.53164E-03
 0.42230003E+02  0.31897E-03
 0.42280003E+02 -0.68778E-03
 0.42330006E+02 -0.16987E-02
 0.42380005E+02 -0.19417E-02
 0.42430004E+02 -0.53115E-03
 0.42480003E+02  0.15682E-02
 0.42530003E+02  0.24767E-02
 0.42580006E+02  0.20269E-02
 0.42630005E+02  0.85182E-03
 0.42680004E+02 -0.69235E-03
 0.42730003E+02 -0.16016E-02
 0.42780003E+02 -0.21676E-02
 0.42830006E+02 -0.19091E-02
 0.42880005E+02  0.10001E-04
 0.42930004E+02  0.17839E-02
 0.42980003E+02  0.25620E-02
 0.43030003E+02  0.23087E-02
 0.43080006E+02  0.12215E-02
 0.43130005E+02  0.51572E-03
 0.43180004E+02 -0.11265E-05
 0.43230003E+02 -0.89453E-03
 0.43280003E+02 -0.18473E-02
 0.43330006E+02 -0.24528E-02
 0.43380005E+02 -0.21634E-02
 0.43430004E+02 -0.99154E-03
 0.43480003E+02 -0.17252E-03
 0.43530003E+02  0.10127E-03
 0.43580006E+02  0.23058E-03
 0.43630005E+02  0.16162E-03
 0.43680004E+02  0.83875E-03
 0.43730003E+02  0.16319E-02
 0.43780003E+02  0.18204E-02
 0.43830006E+02  0.18120E-02
 0.43880005E+02  0.14392E-02
 0.43930004E+02  0.11702E-02
 0.43980003E+02  0.35553E-03
 0.44030003E+02 -0.16000E-02
 0.44080006E+02 -0.30171E-02
 0.44130005E+02 -0.26916E-02
 0.44180004E+02 -0.10980E-02
 0.44230003E+02  0.72301E-03
 0.44280003E+02  0.12862E-02
 0.44330006E+02  0.67896E-03
 0.44380005E+02 -0.31396E-03
 0.44430004E+02 -0.16890E-02
 0.44480003E+02 -0.19203E-02
 0.44530003E+02 -0.50236E-03
 0.44580006E+02  0.14188E-02
 0.44630005E+02  0.25737E-02
 0.44680004E+02  0.21405E-02
 0.44730003E+02  0.10039E-02
 0.44780003E+02  0.14567E-03
 0.44830006E+02 -0.60741E-03
 0.44880005E+02 -0.12795E-02
 0.44930004E+02 -0.13620E-02
 0.44980003E+02 -0.61021E-03
 0.45030003E+02  0.57034E-03
 0.45080006E+02  0.11723E-02
 0.45130005E+02  0.10324E-02
 0.45180004E+02  0.43800E-03
 0.45230003E+02 -0.93688E-04
 0.45280003E+02 -0.49393E-03
 0.45330006E+02 -0.97671E-03
 0.45380005E+02 -0.10415E-02
 0.45430004E+02 -0.10034E-02
 0.45480003E+02 -0.77187E-03
 0.45530003E+02 -0.11274E-03
 0.45580006E+02  0.74658E-03
 0.45630005E+02  0.15412E-02
 0.45680004E+02  0.16000E-02
 0.45730003E+02  0.11334E-02
 0.45780003E+02  0.48542E-03
 0.45830006E+02 -0.48339E-03
 0.45880005E+02 -0.15877E-02
 0.45930004E+02 -0.23792E-02
 0.45980003E+02 -0.25405E-02
 0.46030003E+02 -0.18198E-02
 0.46080006E+02 -0.27716E-03
 0.46130005E+02  0.12211E-02
 0.46180004E+02  0.23430E-02
 0.46230003E+02  0.26982E-02
 0.46280003E+02  0.17038E-02
 0.46330006E+02  0.38020E-03
 0.46380005E+02 -0.18148E-03
 0.46430004E+02 -0.55177E-03
 0.46480003E+02 -0.11375E-02
 0.46530003E+02 -0.88896E-03
 0.46580006E+02  0.21373E-03
 0.46630005E+02  0.11562E-02
 0.46680004E+02  0.15663E-02
 0.46730003E+02  0.14986E-02
 0.46780003E+02  0.75072E-03
 0.46830006E+02 -0.83396E-03
 0.46880005E+02 -0.22713E-02
 0.46930004E+02 -0.25070E-02
 0.46980003E+02 -0.19015E-02
 0.47030003E+02 -0.13319E-02
 0.47080006E+02 -0.72207E-03
 0.47130005E+02 -0.32821E-03
 0.47180004E+02  0.98545E-04
 0.47230003E+02  0.13185E-02
 0.47280003E+02  0.23916E-02
 0.47330006E+02  0.28320E-02
 0.47380005E+02  0.26530E-02
 0.47430004E+02  0.16441E-02
 0.47480003E+02  0.27342E-03
 0.47530003E+02 -0.10150E-02
 0.47580006E+02 -0.18525E-02
 0.47630005E+02 -0.20736E-02
 0.47680004E+02 -0.19934E-02
 0.47730003E+02 -0.18704E-02
 0.47780003E+02 -0.15499E-02
 0.47830006E+02 -0.71313E-03
 0.47880005E+02  0.55429E-03
 0.47930004E+02  0.14545E-02
 0.47980003E+02  0.16100E-02
 0.48030003E+02  0.14450E-02
 0.48080006E+02  0.10785E-02
 0.48130005E+02  0.72300E-03
 0.48180004E+02  0.40062E-03
 0.48230003E+02 -0.25712E-03
 0.48280003E+02 -0.10045E-02
 0.48330006E+02 -0.16025E-02
 0.48380005E+02 -0.16643E-02
 0.48430004E+02 -0.91197E-03
 0.48480003E+02  0.33427E-04
 0.48530003E+02  0.72268E-03
 0.48580006E+02  0.96143E-03
 0.48630005E+02  0.97813E-03
 0.48680004E+02  0.98270E-03
 0.48730003E+02  0.74434E-03
 0.48780003E+02  0.52015E-03
 0.48830006E+02  0.51756E-03
 0.48880005E+02  0.69275E-03
 0.48930004E+02  0.41190E-03
 0.48980003E+02 -0.49602E-03
 0.49030003E+02 -0.10975E-02
 0.49080006E+02 -0.13647E-02
 0.49130005E+02 -0.14641E-02
 0.49180004E+02 -0.12582E-02
 0.49230003E+02 -0.71767E-03
 0.49280003E+02  0.83094E-04
 0.49330006E+02  0.60203E-03
 0.49380005E+02  0.62079E-03
 0.49430004E+02  0.50785E-03
 0.49480003E+02  0.49530E-03
 0.49530003E+02  0.55610E-03
 0.49580006E+02  0.93405E-03
 0.49630005E+02  0.14098E-02
 0.49680004E+02  0.13672E-02
 0.49730003E+02  0.60074E-03
 0.49780003E+02 -0.65661E-03
 0.49830006E+02 -0.15439E-02
 0.49880005E+02 -0.16149E-02
 0.49930004E+02 -0.10994E-02
 0.49980003E+02 -0.44378E-03
 0.50030003E+02 -0.17188E-03
 0.50080006E+02 -0.35582E-03
 0.50130005E+02 -0.69397E-03
 0.50180004E+02 -0.72088E-03
 0.50230003E+02 -0.11041E-03
 0.50280003E+02  0.78012E-03
 0.50330006E+02  0.14528E-02
 0.50380005E+02  0.15189E-02
 0.50430004E+02  0.67018E-03
 0.50480003E+02 -0.43570E-03
 0.50530003E+02 -0.89437E-03
 0.50580006E+02 -0.63097E-03
 0.50630005E+02 -0.23030E-03
 0.50680004E+02 -0.12623E-03
 0.50730003E+02 -0.59246E-04
 0.50780003E+02  0.21979E-03
 0.50830006E+02  0.63327E-03
 0.50880005E+02  0.10118E-02
 0.50930004E+02  0.10623E-02
 0.50980003E+02  0.69145E-03
 0.51030003E+02  0.10265E-03
 0.51080006E+02 -0.45297E-03
 0.51130005E+02 -0.82927E-03
 0.51180004E+02 -0.89819E-03
 0.51230003E+02 -0.49485E-03
 0.51280003E+02 -0.77595E-04
 0.51330006E+02 -0.16516E-03
 0.51380005E+02 -0.61653E-03
 0.51430004E+02 -0.94815E-03
 0.51480003E+02 -0.69238E-03
 0.51530003E+02 -0.14830E-03
 0.51580006E+02  0.35703E-03
 0.51630005E+02  0.89736E-03
 0.51680004E+02  0.13246E-02
 0.51730003E+02  0.15680E-02
 0.51780003E+02  0.14794E-02
 0.51830006E+02  0.87377E-03
 0.51880005E+02 -0.98995E-04
 0.51930004E+02 -0.11008E-02
 0.51980003E+02 -0.17615E-02
 0.52030003E+02 -0.18258E-02
 0.52080006E+02 -0.13311E-02
 0.52130005E+02 -0.56497E-03
 0.52180004E+02  0.12967E-03
 0.52230003E+02  0.50214E-03
 0.52280003E+02  0.47867E-03
 0.52330006E+02  0.50801E-03
 0.52380005E+02  0.77496E-03
 0.52430004E+02  0.93074E-03
 0.52480003E+02  0.10918E-02
 0.52530003E+02  0.10510E-02
 0.52580006E+02  0.61189E-03
 0.52630005E+02 -0.23053E-04
 0.52680004E+02 -0.62464E-03
 0.52730003E+02 -0.91685E-03
 0.52780003E+02 -0.11298E-02
 0.52830006E+02 -0.13317E-02
 0.52880005E+02 -0.12880E-02
 0.52930004E+02 -0.90285E-03
 0.52980003E+02 -0.35029E-03
 0.53030003E+02  0.11008E-03
 0.53080006E+02  0.50043E-03
 0.53130005E+02  0.83060E-03
 0.53180004E+02  0.12151E-02
 0.53230003E+02  0.16657E-02
 0.53280003E+02  0.16834E-02
 0.53330006E+02  0.10489E-02
 0.53380005E+02  0.19588E-03
 0.53430004E+02 -0.49136E-03
 0.53480003E+02 -0.91763E-03
 0.53530003E+02 -0.98529E-03
 0.53580006E+02 -0.70432E-03
 0.53630005E+02 -0.45108E-03
 0.53680004E+02 -0.54373E-03
 0.53730003E+02 -0.85141E-03
 0.53780003E+02 -0.10847E-02
 0.53830006E+02 -0.10477E-02
 0.53880005E+02 -0.58191E-03
 0.53930004E+02  0.14636E-03
 0.53980003E+02  0.75899E-03
 0.54030003E+02  0.11635E-02
 0.54080006E+02  0.12570E-02
 0.54130005E+02  0.10058E-02
 0.54180004E+02  0.62173E-03
 0.54230003E+02  0.32058E-03
 0.54280003E+02  0.15461E-03
 0.54330006E+02 -0.16210E-04
 0.54380005E+02 -0.23297E-03
 0.54430004E+02 -0.34838E-03
 0.54480003E+02 -0.23743E-03
 0.54530003E+02  0.59412E-05
 0.54580006E+02  0.20574E-03
 0.54630005E+02  0.20030E-03
 0.54680004E+02 -0.10991E-03
 0.54730003E+02 -0.68791E-03
 0.54780003E+02 -0.13050E-02
 0.54830006E+02 -0.15682E-02
 0.54880005E+02 -0.11873E-02
 0.54930004E+02 -0.27169E-03
 0.54980003E+02  0.76779E-03
 0.55030003E+02  0.15647E-02
 0.55080006E+02  0.17892E-02
 0.55130005E+02  0.14332E-02
 0.55180004E+02  0.72471E-03
 0.55230003E+02 -0.96144E-04
 0.55280003E+02 -0.63476E-03
 0.55330006E+02 -0.76089E-03
 0.55380005E+02 -0.46206E-03
 0.55430004E+02  0.65166E-04
 0.55480003E+02  0.30034E-03
 0.55530003E+02  0.17762E-03
 0.55580006E+02 -0.21210E-03
 0.55630005E+02 -0.63007E-03
 0.55680004E+02 -0.71798E-03
 0.55730003E+02 -0.57365E-03
 0.55780003E+02 -0.24342E-03
 0.55830006E+02  0.18734E-03
 0.55880005E+02  0.42005E-03
 0.55930004E+02  0.45556E-03
 0.55980003E+02  0.34630E-03
 0.56030003E+02  0.21533E-03
 0.56080006E+02  0.21592E-03
 0.56130005E+02  0.56923E-04
 0.56180004E+02 -0.21782E-03
 0.56230003E+02 -0.30454E-03
 0.56280003E+02 -0.18738E-03
 0.56330006E+02  0.22747E-03
 0.56380005E+02  0.63982E-03
 0.56430004E+02  0.67641E-03
 0.56480003E+02  0.40389E-03
 0.56530003E+02 -0.11665E-03
 0.56580006E+02 -0.68122E-03
 0.56630005E+02 -0.10526E-02
 0.56680004E+02 -0.11675E-02
 0.56730003E+02 -0.10330E-02
 0.56780003E+02 -0.67570E-03
 0.56830006E+02 -0.23837E-04
 0.56880005E+02  0.77290E-03
 0.56930004E+02  0.13451E-02
 0.56980003E+02  0.14931E-02
 0.57030003E+02  0.12075E-02
 0.57080006E+02  0.70811E-03
 0.57130005E+02  0.27254E-03
 0.57180004E+02 -0.92636E-04
 0.57230003E+02 -0.44544E-03
 0.57280003E+02 -0.76372E-03
 0.57330006E+02 -0.99176E-03
 0.57380005E+02 -0.10435E-02
 0.57430004E+02 -0.90356E-03
 0.57480003E+02 -0.63844E-03
 0.57530003E+02 -0.31142E-03
 0.57580006E+02  0.18020E-03
 0.57630005E+02  0.67259E-03
 0.57680004E+02  0.84999E-03
 0.57730003E+02  0.80254E-03
 0.57780003E+02  0.60235E-03
 0.57830006E+02  0.25272E-03
 0.57880005E+02 -0.17340E-03
 0.57930004E+02 -0.38246E-03
 0.57980003E+02 -0.17141E-03
 0.58030003E+02  0.97593E-04
 0.58080006E+02  0.15852E-03
 0.58130005E+02  0.10169E-03
 0.58180004E+02  0.29769E-04
 0.58230003E+02 -0.13677E-03
 0.58280003E+02 -0.34528E-03
 0.58330006E+02 -0.44554E-03
 0.58380005E+02 -0.50054E-03
 0.58430004E+02 -0.43549E-03
 0.58480003E+02 -0.15189E-03
 0.58530003E+02  0.27882E-03
 0.58580006E+02  0.62830E-03
 0.58630005E+02  0.69722E-03
 0.58680004E+02  0.52633E-03
 0.58730003E+02  0.25366E-03
 0.58780003E+02  0.37903E-04
 0.58830006E+02 -0.11574E-03
 0.58880005E+02 -0.25454E-03
 0.58930004E+02 -0.32445E-03
 0.58980003E+02 -0.30469E-03
 0.59030003E+02 -0.23414E-03
 0.59080006E+02 -0.11275E-03
 0.59130005E+02  0.30749E-04
 0.59180004E+02  0.14397E-03
 0.59230003E+02  0.18868E-03
 0.59280003E+02  0.40125E-04
 0.59330006E+02 -0.14228E-03
 0.59380005E+02 -0.18437E-03
 0.59430004E+02 -0.18752E-03
 0.59480003E+02 -0.91500E-04
 0.59530003E+02  0.47920E-04
 0.59580006E+02  0.84622E-04
 0.59630005E+02  0.72260E-04
 0.59680004E+02  0.36270E-04
 0.59730003E+02 -0.51218E-05
 0.59780003E+02 -0.32226E-05
 0.59830006E+02  0.65467E-04
 0.59880005E+02  0.25094E-03
 0.59930004E+02  0.50242E-03
 0.59980003E+02  0.63673E-03
 0.60030003E+02  0.60976E-03
 0.60080006E+02  0.44106E-03
 0.60130005E+02  0.75932E-04
 0.60180004E+02 -0.35253E-03
 0.60230003E+02 -0.66372E-03
 0.60280003E+02 -0.84916E-03
 0.60330006E+02 -0.90272E-03
 0.60380005E+02 -0.84656E-03
 0.60430004E+02 -0.68511E-03
 0.60480003E+02 -0.36407E-03
 0.60530003E+02 -0.30812E-04
 0.60580006E+02  0.15687E-03
 0.60630005E+02  0.28545E-03
 0.60680004E+02  0.44212E-03
 0.60730003E+02  0.62823E-03
 0.60780003E+02  0.79159E-03
 0.60830006E+02  0.82383E-03
 0.60880005E+02  0.60593E-03
 0.60930004E+02  0.14524E-03
 0.60980003E+02 -0.29281E-03
 0.61030003E+02 -0.46135E-03
 0.61080006E+02 -0.30981E-03
 0.61130005E+02  0.53198E-04
 0.61180004E+02  0.30778E-03
 0.61230003E+02  0.28641E-03
 0.61280003E+02  0.76085E-04
 0.61330006E+02 -0.28806E-03
 0.61380005E+02 -0.59962E-03
 0.61430004E+02 -0.62809E-03
 0.61480003E+02 -0.46526E-03
 0.61530003E+02 -0.25629E-03
 0.61580006E+02 -0.94234E-04
 0.61630005E+02  0.86883E-04
 0.61680004E+02  0.32473E-03
 0.61730003E+02  0.51773E-03
 0.61780003E+02  0.63894E-03
 0.61830006E+02  0.58729E-03
 0.61880005E+02  0.32901E-03
 0.61930004E+02 -0.10898E-03
 0.61980003E+02 -0.54690E-03
 0.62030003E+02 -0.73211E-03
 0.62080006E+02 -0.67300E-03
 0.62130005E+02 -0.38398E-03
 0.62180004E+02  0.18712E-04
 0.62230003E+02  0.32385E-03
 0.62280003E+02  0.48843E-03
 0.62330006E+02  0.51180E-03
 0.62380005E+02  0.39167E-03
 0.62430004E+02  0.18091E-03
 0.62480003E+02 -0.80769E-04
 0.62530003E+02 -0.31136E-03
 0.62580006E+02 -0.48178E-03
 0.62630005E+02 -0.62865E-03
 0.62680004E+02 -0.65111E-03
 0.62730003E+02 -0.42941E-03
 0.62780003E+02  0.71728E-04
 0.62830006E+02  0.69042E-03
 0.62880005E+02  0.11447E-02
 0.62930004E+02  0.12805E-02
 0.62980003E+02  0.11005E-02
 0.63030003E+02  0.67677E-03
 0.63080006E+02  0.11768E-03
 0.63130005E+02 -0.45662E-03
 0.63180004E+02 -0.94087E-03
 0.63230003E+02 -0.12558E-02
 0.63280003E+02 -0.13625E-02
 0.63330006E+02 -0.11466E-02
 0.63380005E+02 -0.62080E-03
 0.63430004E+02 -0.64844E-05
 0.63480003E+02  0.47404E-03
 0.63530003E+02  0.70614E-03
 0.63580006E+02  0.67406E-03
 0.63630005E+02  0.43260E-03
 0.63680004E+02  0.18575E-03
 0.63730003E+02 -0.46006E-04
 0.63780003E+02 -0.23370E-03
 0.63830006E+02 -0.23109E-03
 0.63880005E+02 -0.10214E-03
 0.63930004E+02  0.16204E-03
 0.63980003E+02  0.46695E-03
 0.64030006E+02  0.62968E-03
 0.64080002E+02  0.57933E-03
 0.64130005E+02  0.29272E-03
 0.64180008E+02 -0.74650E-04
 0.64230003E+02 -0.35098E-03
 0.64280006E+02 -0.44326E-03
 0.64330002E+02 -0.38184E-03
 0.64380005E+02 -0.21921E-03
 0.64430008E+02 -0.15064E-04
 0.64480003E+02  0.66051E-04
 0.64530006E+02  0.67951E-04
 0.64580002E+02  0.10301E-03
 0.64630005E+02  0.15623E-03
 0.64680008E+02  0.16280E-03
 0.64730003E+02 -0.81036E-05
 0.64780006E+02 -0.24659E-03
 0.64830002E+02 -0.38320E-03
 0.64880005E+02 -0.44108E-03
 0.64930008E+02 -0.32634E-03
 0.64980003E+02 -0.75417E-04
 0.65030006E+02  0.15648E-03
 0.65080002E+02  0.33793E-03
 0.65130005E+02  0.36769E-03
 0.65180008E+02  0.28799E-03
 0.65230003E+02  0.22082E-03
 0.65280006E+02  0.10954E-03
 0.65330002E+02 -0.46126E-04
 0.65380005E+02 -0.14109E-03
 0.65430008E+02 -0.16697E-03
 0.65480003E+02 -0.15114E-03
 0.65530006E+02 -0.39460E-04
 0.65580002E+02  0.94630E-04
 0.65630005E+02  0.11642E-03
 0.65680008E+02  0.83323E-04
 0.65730003E+02 -0.16268E-04
 0.65780006E+02 -0.20116E-03
 0.65830002E+02 -0.31969E-03
 0.65880005E+02 -0.32276E-03
 0.65930008E+02 -0.23184E-03
 0.65980003E+02 -0.12534E-03
 0.66030006E+02 -0.31027E-04
 0.66080002E+02  0.14084E-03
 0.66130005E+02  0.36605E-03
 0.66180008E+02  0.50955E-03
 0.66230003E+02  0.40662E-03
 0.66280006E+02  0.13202E-03
 0.66330002E+02 -0.12928E-03
 0.66380005E+02 -0.32011E-03
 0.66430008E+02 -0.31094E-03
 0.66480003E+02 -0.11970E-03
 0.66530006E+02  0.99474E-04
 0.66580002E+02  0.24330E-03
 0.66630005E+02  0.22268E-03
 0.66680008E+02  0.13845E-03
 0.66730003E+02  0.89469E-04
 0.66780006E+02  0.63496E-04
 0.66830002E+02  0.40364E-04
 0.66880005E+02 -0.15231E-04
 0.66930008E+02 -0.10801E-03
 0.66980003E+02 -0.22965E-03
 0.67030006E+02 -0.30734E-03
 0.67080002E+02 -0.32240E-03
 0.67130005E+02 -0.24983E-03
 0.67180008E+02 -0.78681E-04
 0.67230003E+02  0.10103E-03
 0.67280006E+02  0.29260E-03
 0.67330002E+02  0.42423E-03
 0.67380005E+02  0.39169E-03
 0.67430008E+02  0.22599E-03
 0.67480003E+02 -0.29997E-04
 0.67530006E+02 -0.28523E-03
 0.67580002E+02 -0.43495E-03
 0.67630005E+02 -0.47789E-03
 0.67680008E+02 -0.42993E-03
 0.67730003E+02 -0.25459E-03
 0.67780006E+02  0.67422E-04
 0.67830002E+02  0.40310E-03
 0.67880005E+02  0.59229E-03
 0.67930008E+02  0.61189E-03
 0.67980003E+02  0.43029E-03
 0.68030006E+02  0.11818E-03
 0.68080002E+02 -0.16841E-03
 0.68130005E+02 -0.36624E-03
 0.68180008E+02 -0.41610E-03
 0.68230003E+02 -0.34297E-03
 0.68280006E+02 -0.22102E-03
 0.68330002E+02 -0.77541E-04
 0.68380005E+02  0.78802E-04
 0.68430008E+02  0.20292E-03
 0.68480003E+02  0.21900E-03
 0.68530006E+02  0.19944E-03
 0.68580002E+02  0.19254E-03
 0.68630005E+02  0.15052E-03
 0.68680008E+02  0.90628E-04
 0.68730003E+02  0.30096E-04
 0.68780006E+02 -0.58458E-04
 0.68830002E+02 -0.18172E-03
 0.68880005E+02 -0.26608E-03
 0.68930008E+02 -0.29013E-03
 0.68980003E+02 -0.27849E-03
 0.69030006E+02 -0.23345E-03
 0.69080002E+02 -0.13772E-03
 0.69130005E+02  0.25013E-04
 0.69180008E+02  0.18136E-03
 0.69230003E+02  0.28622E-03
 0.69280006E+02  0.35616E-03
 0.69330002E+02  0.37674E-03
 0.69380005E+02  0.35510E-03
 0.69430008E+02  0.28224E-03
 0.69480003E+02  0.11211E-03
 0.69530006E+02 -0.97692E-04
 0.69580002E+02 -0.27203E-03
 0.69630005E+02 -0.33990E-03
 0.69680008E+02 -0.23312E-03
 0.69730003E+02 -0.68851E-04
 0.69780006E+02  0.25642E-04
 0.69830002E+02  0.26738E-04
 0.69880005E+02 -0.92884E-04
 0.69930008E+02 -0.27098E-03
 0.69980003E+02 -0.38539E-03
 0.70030006E+02 -0.41320E-03
 0.70080002E+02 -0.35448E-03
 0.70130005E+02 -0.21050E-03
 0.70180008E+02 -0.57782E-04
 0.70230003E+02  0.75641E-04
 0.70280006E+02  0.23342E-03
 0.70330002E+02  0.39147E-03
 0.70380005E+02  0.49319E-03
 0.70430008E+02  0.53909E-03
 0.70480003E+02  0.55311E-03
 0.70530006E+02  0.51860E-03
 0.70580002E+02  0.38799E-03
 0.70630005E+02  0.16162E-03
 0.70680008E+02 -0.13623E-03
 0.70730003E+02 -0.43132E-03
 0.70780006E+02 -0.59849E-03
 0.70830002E+02 -0.58648E-03
 0.70880005E+02 -0.43785E-03
 0.70930008E+02 -0.23237E-03
 0.70980003E+02 -0.27086E-04
 0.71030006E+02  0.14360E-03
 0.71080002E+02  0.27145E-03
 0.71130005E+02  0.33554E-03
 0.71180008E+02  0.31203E-03
 0.71230003E+02  0.19665E-03
 0.71280006E+02  0.17670E-04
 0.71330002E+02 -0.14028E-03
 0.71380005E+02 -0.25760E-03
 0.71430008E+02 -0.31581E-03
 0.71480003E+02 -0.27868E-03
 0.71530006E+02 -0.17654E-03
 0.71580002E+02 -0.32452E-04
 0.71630005E+02  0.86051E-04
 0.71680008E+02  0.11086E-03
 0.71730003E+02  0.98881E-04
 0.71780006E+02  0.10608E-03
 0.71830002E+02  0.11085E-03
 0.71880005E+02  0.12432E-03
 0.71930008E+02  0.13687E-03
 0.71980003E+02  0.88383E-04
 0.72030006E+02  0.24234E-04
 0.72080002E+02 -0.64824E-05
 0.72130005E+02 -0.32528E-04
 0.72180008E+02 -0.46938E-04
 0.72230003E+02 -0.43154E-04
 0.72280006E+02 -0.30355E-04
 0.72330002E+02 -0.14604E-04
 0.72380005E+02  0.25984E-05
 0.72430008E+02  0.26846E-04
 0.72480003E+02  0.60374E-04
 0.72530006E+02  0.91664E-04
 0.72580002E+02  0.10247E-03
 0.72630005E+02  0.93529E-04
 0.72680008E+02  0.30880E-04
 0.72730003E+02 -0.79453E-04
 0.72780006E+02 -0.18581E-03
 0.72830002E+02 -0.25304E-03
 0.72880005E+02 -0.24327E-03
 0.72930008E+02 -0.18184E-03
 0.72980003E+02 -0.83175E-04
 0.73030006E+02  0.19027E-04
 0.73080002E+02  0.73794E-04
 0.73130005E+02  0.10117E-03
 0.73180008E+02  0.81793E-04
 0.73230003E+02  0.25300E-04
 0.73280006E+02 -0.42249E-04
 0.73330002E+02 -0.13096E-03
 0.73380005E+02 -0.17767E-03
 0.73430008E+02 -0.13561E-03
 0.73480003E+02 -0.20625E-04
 0.73530006E+02  0.11970E-03
 0.73580002E+02  0.22736E-03
 0.73630005E+02  0.30199E-03
 0.73680008E+02  0.33511E-03
 0.73730003E+02  0.30783E-03
 0.73780006E+02  0.23824E-03
 0.73830002E+02  0.13011E-03
 0.73880005E+02  0.19115E-04
 0.73930008E+02 -0.74406E-04
 0.73980003E+02 -0.15808E-03
 0.74030006E+02 -0.20731E-03
 0.74080002E+02 -0.24471E-03
 0.74130005E+02 -0.24216E-03
 0.74180008E+02 -0.16965E-03
 0.74230003E+02 -0.52484E-04
 0.74280006E+02  0.10301E-03
 0.74330002E+02  0.20328E-03
 0.74380005E+02  0.18894E-03
 0.74430008E+02  0.87938E-04
 0.74480003E+02 -0.60577E-04
 0.74530006E+02 -0.16479E-03
 0.74580002E+02 -0.15570E-03
 0.74630005E+02 -0.72909E-04
 0.74680008E+02 -0.38270E-05
 0.74730003E+02  0.28847E-04
 0.74780006E+02  0.47560E-04
 0.74830002E+02  0.62068E-04
 0.74880005E+02  0.40985E-04
 0.74930008E+02 -0.16888E-04
 0.74980003E+02 -0.91804E-04
 0.75030006E+02 -0.17295E-03
 0.75080002E+02 -0.20586E-03
 0.75130005E+02 -0.19904E-03
 0.75180008E+02 -0.16934E-03
 0.75230003E+02 -0.10020E-03
 0.75280006E+02  0.11575E-04
 0.75330002E+02  0.14706E-03
 0.75380005E+02  0.23933E-03
 0.75430008E+02  0.26661E-03
 0.75480003E+02  0.23469E-03
 0.75530006E+02  0.16371E-03
 0.75580002E+02  0.11069E-03
 0.75630005E+02  0.84858E-04
 0.75680008E+02  0.54491E-04
 0.75730003E+02  0.11235E-05
 0.75780006E+02 -0.43705E-04
 0.75830002E+02 -0.59322E-04
 0.75880005E+02 -0.61807E-04
 0.75930008E+02 -0.35651E-04
 0.75980003E+02 -0.23769E-05
 0.76030006E+02  0.18136E-06
 0.76080002E+02 -0.32506E-04
 0.76130005E+02 -0.92100E-04
 0.76180008E+02 -0.15463E-03
 0.76230003E+02 -0.20259E-03
 0.76280006E+02 -0.19346E-03
 0.76330002E+02 -0.10585E-03
 0.76380005E+02  0.10347E-04
 0.76430008E+02  0.88500E-04
 0.76480003E+02  0.88668E-04
 0.76530006E+02  0.60682E-04
 0.76580002E+02  0.45806E-04
 0.76630005E+02  0.34119E-04
 0.76680008E+02  0.69262E-04
 0.76730003E+02  0.14302E-03
 0.76780006E+02  0.22172E-03
 0.76830002E+02  0.27132E-03
 0.76880005E+02  0.23104E-03
 0.76930008E+02  0.12619E-03
 0.76980003E+02 -0.16395E-04
 0.77030006E+02 -0.15940E-03
 0.77080002E+02 -0.24848E-03
 0.77130005E+02 -0.30356E-03
 0.77180008E+02 -0.30802E-03
 0.77230003E+02 -0.24916E-03
 0.77280006E+02 -0.17320E-03
 0.77330002E+02 -0.78218E-04
 0.77380005E+02  0.36795E-04
 0.77430008E+02  0.14864E-03
 0.77480003E+02  0.24860E-03
 0.77530006E+02  0.28716E-03
 0.77580002E+02  0.24800E-03
 0.77630005E+02  0.18117E-03
 0.77680008E+02  0.11254E-03
 0.77730003E+02  0.31277E-04
 0.77780006E+02 -0.86950E-04
 0.77830002E+02 -0.18361E-03
 0.77880005E+02 -0.19865E-03
 0.77930008E+02 -0.17069E-03
 0.77980003E+02 -0.10869E-03
 0.78030006E+02 -0.15492E-04
 0.78080002E+02  0.47515E-04
 0.78130005E+02  0.46074E-04
 0.78180008E+02  0.10659E-04
 0.78230003E+02 -0.38926E-04
 0.78280006E+02 -0.85703E-04
 0.78330002E+02 -0.90539E-04
 0.78380005E+02 -0.57882E-04
 0.78430008E+02 -0.15009E-04
 0.78480003E+02  0.28487E-05
 0.78530006E+02 -0.11256E-04
 0.78580002E+02 -0.21767E-04
 0.78630005E+02  0.10686E-05
 0.78680008E+02  0.68732E-04
 0.78730003E+02  0.15362E-03
 0.78780006E+02  0.22781E-03
 0.78830002E+02  0.25285E-03
 0.78880005E+02  0.19022E-03
 0.78930008E+02  0.64698E-04
 0.78980003E+02 -0.61100E-04
 0.79030006E+02 -0.14957E-03
 0.79080002E+02 -0.19464E-03
 0.79130005E+02 -0.20085E-03
 0.79180008E+02 -0.19162E-03
 0.79230003E+02 -0.17741E-03
 0.79280006E+02 -0.15627E-03
 0.79330002E+02 -0.12548E-03
 0.79380005E+02 -0.61305E-04
 0.79430008E+02  0.33070E-04
 0.79480003E+02  0.12706E-03
 0.79530006E+02  0.21473E-03
 0.79580002E+02  0.27020E-03
 0.79630005E+02  0.28955E-03
 0.79680008E+02  0.28067E-03
 0.79730003E+02  0.20997E-03
 0.79780006E+02  0.96340E-04
 0.79830002E+02 -0.28131E-04
 0.79880005E+02 -0.14580E-03
 0.79930008E+02 -0.20317E-03
 0.79980003E+02 -0.17880E-03
 0.80030006E+02 -0.12026E-03
 0.80080002E+02 -0.51925E-04
 0.80130005E+02 -0.66531E-05
 0.80180008E+02 -0.15638E-04
 0.80230003E+02 -0.43742E-04
 0.80280006E+02 -0.67122E-04
 0.80330002E+02 -0.51253E-04
 0.80380005E+02  0.11091E-04
 0.80430008E+02  0.69792E-04
 0.80480003E+02  0.96701E-04
 0.80530006E+02  0.10899E-03
 0.80580002E+02  0.10120E-03
 0.80630005E+02  0.40333E-04
 0.80680008E+02 -0.56210E-04
 0.80730003E+02 -0.15820E-03
 0.80780006E+02 -0.23939E-03
 0.80830002E+02 -0.25857E-03
 0.80880005E+02 -0.21150E-03
 0.80930008E+02 -0.14164E-03
 0.80980003E+02 -0.59967E-04
 0.81030006E+02  0.36835E-04
 0.81080002E+02  0.14096E-03
 0.81130005E+02  0.23921E-03
 0.81180008E+02  0.28997E-03
 0.81230003E+02  0.27676E-03
 0.81280006E+02  0.21242E-03
 0.81330002E+02  0.10837E-03
 0.81380005E+02 -0.14309E-04
 0.81430008E+02 -0.10831E-03
 0.81480003E+02 -0.15101E-03
 0.81530006E+02 -0.15549E-03
 0.81580002E+02 -0.13871E-03
 0.81630005E+02 -0.11978E-03
 0.81680008E+02 -0.77923E-04
 0.81730003E+02 -0.65797E-05
 0.81780006E+02  0.73627E-04
 0.81830002E+02  0.13568E-03
 0.81880005E+02  0.15766E-03
 0.81930008E+02  0.15763E-03
 0.81980003E+02  0.12710E-03
 0.82030006E+02  0.69709E-04
 0.82080002E+02  0.39181E-05
 0.82130005E+02 -0.77925E-04
 0.82180008E+02 -0.14342E-03
 0.82230003E+02 -0.16006E-03
 0.82280006E+02 -0.13550E-03
 0.82330002E+02 -0.80194E-04
 0.82380005E+02 -0.16473E-04
 0.82430008E+02  0.36340E-04
 0.82480003E+02  0.61581E-04
 0.82530006E+02  0.38597E-04
 0.82580002E+02 -0.20276E-04
 0.82630005E+02 -0.77855E-04
 0.82680008E+02 -0.96790E-04
 0.82730003E+02 -0.81564E-04
 0.82780006E+02 -0.38381E-04
 0.82830002E+02  0.17618E-04
 0.82880005E+02  0.60357E-04
 0.82930008E+02  0.10130E-03
 0.82980003E+02  0.13806E-03
 0.83030006E+02  0.15376E-03
 0.83080002E+02  0.12310E-03
 0.83130005E+02  0.71062E-04
 0.83180008E+02  0.37186E-04
 0.83230003E+02  0.40192E-05
 0.83280006E+02 -0.37387E-04
 0.83330002E+02 -0.75271E-04
 0.83380005E+02 -0.90065E-04
 0.83430008E+02 -0.76292E-04
 0.83480003E+02 -0.38723E-04
 0.83530006E+02  0.40473E-05
 0.83580002E+02  0.29636E-04
 0.83630005E+02  0.26295E-04
 0.83680008E+02 -0.75030E-05
 0.83730003E+02 -0.42403E-04
 0.83780006E+02 -0.71656E-04
 0.83830002E+02 -0.97743E-04
 0.83880005E+02 -0.10101E-03
 0.83930008E+02 -0.93252E-04
 0.83980003E+02 -0.82822E-04
 0.84030006E+02 -0.42934E-04
 0.84080002E+02  0.18349E-04
 0.84130005E+02  0.92888E-04
 0.84180008E+02  0.17027E-03
 0.84230003E+02  0.18522E-03
 0.84280006E+02  0.13483E-03
 0.84330002E+02  0.70753E-04
 0.84380005E+02 -0.88271E-05
 0.84430008E+02 -0.96686E-04
 0.84480003E+02 -0.12688E-03
 0.84530006E+02 -0.73967E-04
 0.84580002E+02  0.26588E-04
 0.84630005E+02  0.11300E-03
 0.84680008E+02  0.14115E-03
 0.84730003E+02  0.11371E-03
 0.84780006E+02  0.26998E-04
 0.84830002E+02 -0.84756E-04
 0.84880005E+02 -0.17297E-03
 0.84930008E+02 -0.21009E-03
 0.84980003E+02 -0.17942E-03
 0.85030006E+02 -0.11652E-03
 0.85080002E+02 -0.51247E-04
 0.85130005E+02  0.23846E-05
 0.85180008E+02  0.33249E-04
 0.85230003E+02  0.66990E-04
 0.85280006E+02  0.10006E-03
 0.85330002E+02  0.12126E-03
 0.85380005E+02  0.14539E-03
 0.85430008E+02  0.14357E-03
 0.85480003E+02  0.10230E-03
 0.85530006E+02  0.35316E-04
 0.85580002E+02 -0.32871E-04
 0.85630005E+02 -0.60992E-04
 0.85680008E+02 -0.37655E-04
 0.85730003E+02  0.33041E-04
 0.85780006E+02  0.10862E-03
 0.85830002E+02  0.12955E-03
 0.85880005E+02  0.11059E-03
 0.85930008E+02  0.93370E-04
 0.85980003E+02  0.66640E-04
 0.86030006E+02  0.55318E-05
 0.86080002E+02 -0.88993E-04
 0.86130005E+02 -0.19014E-03
 0.86180008E+02 -0.25869E-03
 0.86230003E+02 -0.28564E-03
 0.86280006E+02 -0.28978E-03
 0.86330002E+02 -0.27407E-03
 0.86380005E+02 -0.23641E-03
 0.86430008E+02 -0.16475E-03
 0.86480003E+02 -0.43664E-04
 0.86530006E+02  0.11208E-03
 0.86580002E+02  0.25602E-03
 0.86630005E+02  0.32320E-03
 0.86680008E+02  0.30814E-03
 0.86730003E+02  0.24857E-03
 0.86780006E+02  0.16695E-03
 0.86830002E+02  0.90576E-04
 0.86880005E+02  0.25941E-04
 0.86930008E+02 -0.23592E-04
 0.86980003E+02 -0.49227E-04
 0.87030006E+02 -0.61056E-04
 0.87080002E+02 -0.59282E-04
 0.87130005E+02 -0.39963E-04
 0.87180008E+02 -0.13134E-04
 0.87230003E+02 -0.72706E-06
 0.87280006E+02 -0.91117E-05
 0.87330002E+02 -0.22789E-04
 0.87380005E+02 -0.33363E-04
 0.87430008E+02 -0.44717E-04
 0.87480003E+02 -0.54792E-04
 0.87530006E+02 -0.53783E-04
 0.87580002E+02 -0.48221E-04
 0.87630005E+02 -0.59794E-04
 0.87680008E+02 -0.92475E-04
 0.87730003E+02 -0.11763E-03
 0.87780006E+02 -0.10070E-03
 0.87830002E+02 -0.33688E-04
 0.87880005E+02  0.58494E-04
 0.87930008E+02  0.14482E-03
 0.87980003E+02  0.20544E-03
 0.88030006E+02  0.22977E-03
 0.88080002E+02  0.21326E-03
 0.88130005E+02  0.16301E-03
 0.88180008E+02  0.92863E-04
 0.88230003E+02  0.11994E-06
 0.88280006E+02 -0.10990E-03
 0.88330002E+02 -0.20325E-03
 0.88380005E+02 -0.24620E-03
 0.88430008E+02 -0.21837E-03
 0.88480003E+02 -0.13862E-03
 0.88530006E+02 -0.45070E-04
 0.88580002E+02  0.48452E-04
 0.88630005E+02  0.12315E-03
 0.88680008E+02  0.15507E-03
 0.88730003E+02  0.14036E-03
 0.88780006E+02  0.95520E-04
 0.88830002E+02  0.42516E-04
 0.88880005E+02  0.10879E-04
 0.88930008E+02  0.49911E-05
 0.88980003E+02 -0.36368E-06
 0.89030006E+02 -0.74385E-05
 0.89080002E+02 -0.28972E-04
 0.89130005E+02 -0.77275E-04
 0.89180008E+02 -0.12877E-03
 0.89230003E+02 -0.15602E-03
 0.89280006E+02 -0.13869E-03
 0.89330002E+02 -0.86884E-04
 0.89380005E+02 -0.27587E-04
 0.89430008E+02  0.27273E-04
 0.89480003E+02  0.61625E-04
 0.89530006E+02  0.78753E-04
 0.89580002E+02  0.10008E-03
 0.89630005E+02  0.12508E-03
 0.89680008E+02  0.13750E-03
 0.89730003E+02  0.12573E-03
 0.89780006E+02  0.85725E-04
 0.89830002E+02  0.11146E-04
 0.89880005E+02 -0.59705E-04
 0.89930008E+02 -0.84841E-04
 0.89980003E+02 -0.73349E-04
 0.90030006E+02 -0.37000E-04
 0.90080002E+02 -0.78664E-05
 0.90130005E+02 -0.81708E-05
 0.90180008E+02 -0.37552E-04
 0.90230003E+02 -0.81545E-04
 0.90280006E+02 -0.96865E-04
 0.90330002E+02 -0.76951E-04
 0.90380005E+02 -0.50107E-04
 0.90430008E+02 -0.18865E-04
 0.90480003E+02  0.20235E-04
 0.90530006E+02  0.49044E-04
 0.90580002E+02  0.63706E-04
 0.90630005E+02  0.70490E-04
 0.90680008E+02  0.70984E-04
 0.90730003E+02  0.59153E-04
 0.90780006E+02  0.31285E-04
 0.90830002E+02  0.42959E-05
 0.90880005E+02 -0.20230E-04
 0.90930008E+02 -0.49152E-04
 0.90980003E+02 -0.71346E-04
 0.91030006E+02 -0.70699E-04
 0.91080002E+02 -0.46457E-04
 0.91130005E+02 -0.13454E-04
 0.91180008E+02  0.21164E-04
 0.91230003E+02  0.57106E-04
 0.91280006E+02  0.90535E-04
 0.91330002E+02  0.98107E-04
 0.91380005E+02  0.75051E-04
 0.91430008E+02  0.43548E-04
 0.91480003E+02  0.72528E-05
 0.91530006E+02 -0.13685E-04
 0.91580002E+02 -0.10648E-04
 0.91630005E+02 -0.82399E-05
 0.91680008E+02 -0.17972E-04
 0.91730003E+02 -0.37584E-04
 0.91780006E+02 -0.72603E-04
 0.91830002E+02 -0.11770E-03
 0.91880005E+02 -0.13707E-03
 0.91930008E+02 -0.12422E-03
 0.91980003E+02 -0.85976E-04
 0.92030006E+02 -0.23288E-04
 0.92080002E+02  0.47791E-04
 0.92130005E+02  0.11965E-03
 0.92180008E+02  0.17224E-03
 0.92230003E+02  0.19720E-03
 0.92280006E+02  0.21021E-03
 0.92330002E+02  0.20204E-03
 0.92380005E+02  0.16535E-03
 0.92430008E+02  0.99163E-04
 0.92480003E+02  0.11805E-04
 0.92530006E+02 -0.69515E-04
 0.92580002E+02 -0.14215E-03
 0.92630005E+02 -0.19028E-03
 0.92680008E+02 -0.20516E-03
 0.92730003E+02 -0.21095E-03
 0.92780006E+02 -0.20350E-03
 0.92830002E+02 -0.17405E-03
 0.92880005E+02 -0.12515E-03
 0.92930008E+02 -0.59915E-04
 0.92980003E+02  0.78938E-05
 0.93030006E+02  0.62860E-04
 0.93080002E+02  0.10470E-03
 0.93130005E+02  0.13492E-03
 0.93180008E+02  0.14344E-03
 0.93230003E+02  0.13004E-03
 0.93280006E+02  0.11162E-03
 0.93330002E+02  0.10252E-03
 0.93380005E+02  0.96115E-04
 0.93430008E+02  0.69273E-04
 0.93480003E+02  0.58981E-05
 0.93530006E+02 -0.79946E-04
 0.93580002E+02 -0.16223E-03
 0.93630005E+02 -0.21161E-03
 0.93680008E+02 -0.20273E-03
 0.93730003E+02 -0.14927E-03
 0.93780006E+02 -0.72401E-04
 0.93830002E+02  0.11548E-04
 0.93880005E+02  0.70536E-04
 0.93930008E+02  0.94192E-04
 0.93980003E+02  0.94939E-04
 0.94030006E+02  0.73025E-04
 0.94080002E+02  0.45524E-04
 0.94130005E+02  0.28246E-04
 0.94180008E+02  0.32994E-05
 0.94230003E+02 -0.17480E-04
 0.94280006E+02 -0.17093E-04
 0.94330002E+02  0.20361E-05
 0.94380005E+02  0.34035E-04
 0.94430008E+02  0.61261E-04
 0.94480003E+02  0.81566E-04
 0.94530006E+02  0.85754E-04
 0.94580002E+02  0.78304E-04
 0.94630005E+02  0.71523E-04
 0.94680008E+02  0.48607E-04
 0.94730003E+02  0.95719E-05
 0.94780006E+02 -0.30354E-04
 0.94830002E+02 -0.60423E-04
 0.94880005E+02 -0.74894E-04
 0.94930008E+02 -0.64593E-04
 0.94980003E+02 -0.27718E-04
 0.95030006E+02  0.87097E-05
 0.95080002E+02  0.25795E-04
 0.95130005E+02  0.23079E-04
 0.95180008E+02  0.74833E-05
 0.95230003E+02  0.17919E-05
 0.95280006E+02  0.88893E-06
 0.95330002E+02 -0.13154E-04
 0.95380005E+02 -0.30654E-04
 0.95430008E+02 -0.41753E-04
 0.95480003E+02 -0.43041E-04
 0.95530006E+02 -0.41025E-04
 0.95580002E+02 -0.42230E-04
 0.95630005E+02 -0.56255E-04
 0.95680008E+02 -0.72463E-04
 0.95730003E+02 -0.58128E-04
 0.95780006E+02 -0.19397E-04
 0.95830002E+02  0.20723E-04
 0.95880005E+02  0.52339E-04
 0.95930008E+02  0.70098E-04
 0.95980003E+02  0.76016E-04
 0.96030006E+02  0.72382E-04
 0.96080002E+02  0.52828E-04
 0.96130005E+02  0.34822E-04
 0.96180008E+02  0.27489E-04
 0.96230003E+02  0.90607E-06
 0.96280006E+02 -0.35504E-04
 0.96330002E+02 -0.54136E-04
 0.96380005E+02 -0.59409E-04
 0.96430008E+02 -0.57636E-04
 0.96480003E+02 -0.56535E-04
 0.96530006E+02 -0.68120E-04
 0.96580002E+02 -0.79968E-04
 0.96630005E+02 -0.69355E-04
 0.96680008E+02 -0.32803E-04
 0.96730003E+02  0.23550E-04
 0.96780006E+02  0.81347E-04
 0.96830002E+02  0.11306E-03
 0.96880005E+02  0.10868E-03
 0.96930008E+02  0.78751E-04
 0.96980003E+02  0.44074E-04
 0.97030006E+02  0.25713E-04
 0.97080002E+02  0.19888E-04
 0.97130005E+02  0.11426E-04
 0.97180008E+02 -0.23216E-05
 0.97230003E+02 -0.17027E-04
 0.97280006E+02 -0.30960E-04
 0.97330002E+02 -0.37818E-04
 0.97380005E+02 -0.26686E-04
 0.97430008E+02 -0.69966E-05
 0.97480003E+02  0.14745E-04
 0.97530006E+02  0.30700E-04
 0.97580002E+02  0.28075E-04
 0.97630005E+02  0.77222E-05
 0.97680008E+02 -0.27750E-04
 0.97730003E+02 -0.56656E-04
 0.97780006E+02 -0.65397E-04
 0.97830002E+02 -0.52860E-04
 0.97880005E+02 -0.16827E-04
 0.97930008E+02  0.25418E-04
 0.97980003E+02  0.58687E-04
 0.98030006E+02  0.72187E-04
 0.98080002E+02  0.68787E-04
 0.98130005E+02  0.67865E-04
 0.98180008E+02  0.65249E-04
 0.98230003E+02  0.45530E-04
 0.98280006E+02  0.57086E-05
 0.98330002E+02 -0.53318E-04
 0.98380005E+02 -0.12460E-03
 0.98430008E+02 -0.18489E-03
 0.98480003E+02 -0.20861E-03
 0.98530006E+02 -0.18949E-03
 0.98580002E+02 -0.13789E-03
 0.98630005E+02 -0.73689E-04
 0.98680008E+02 -0.80517E-05
 0.98730003E+02  0.46370E-04
 0.98780006E+02  0.79923E-04
 0.98830002E+02  0.98577E-04
 0.98880005E+02  0.10640E-03
 0.98930008E+02  0.11616E-03
 0.98980003E+02  0.13621E-03
 0.99030006E+02  0.15972E-03
 0.99080002E+02  0.17328E-03
 0.99130005E+02  0.16536E-03
 0.99180008E+02  0.12868E-03
 0.99230003E+02  0.68554E-04
 0.99280006E+02  0.10225E-04
 0.99330002E+02 -0.33611E-04
 0.99380005E+02 -0.61309E-04
 0.99430008E+02 -0.71778E-04
 0.99480003E+02 -0.68933E-04
 0.99530006E+02 -0.54480E-04
 0.99580002E+02 -0.38012E-04
 0.99630005E+02 -0.37553E-04
 0.99680008E+02 -0.53289E-04
 0.99730003E+02 -0.67695E-04
 0.99780006E+02 -0.76636E-04
 0.99830002E+02 -0.81569E-04
 0.99880005E+02 -0.77213E-04
 0.99930008E+02 -0.64424E-04
 0.99980003E+02 -0.48216E-04
