-0.19996643E-01  0.12869E-06
 0.30003358E-01  0.41144E-08
 0.80003358E-01 -0.49054E-07
 0.13000336E+00 -0.99107E-07
 0.18000336E+00 -0.10017E-06
 0.23000336E+00 -0.96783E-07
 0.28000337E+00 -0.10832E-06
 0.33000335E+00 -0.87524E-07
 0.38000336E+00 -0.73123E-07
 0.43000337E+00 -0.33343E-07
 0.48000336E+00 -0.67426E-08
 0.53000337E+00  0.84716E-08
 0.58000338E+00  0.42616E-07
 0.63000339E+00  0.52337E-07
 0.68000335E+00  0.79435E-07
 0.73000336E+00  0.89637E-07
 0.78000337E+00  0.90571E-07
 0.83000338E+00  0.10657E-06
 0.88000339E+00  0.11186E-06
 0.93000335E+00  0.92333E-07
 0.98000336E+00  0.62049E-07
 0.10300034E+01  0.62709E-07
 0.10800034E+01  0.65654E-07
 0.11300033E+01  0.55107E-07
 0.11800034E+01  0.45905E-07
 0.12300034E+01  0.43080E-07
 0.12800034E+01  0.36614E-07
 0.13300034E+01  0.27933E-07
 0.13800033E+01  0.24499E-07
 0.14300034E+01  0.91876E-08
 0.14800034E+01 -0.23653E-07
 0.15300034E+01 -0.42019E-07
 0.15800034E+01 -0.51616E-07
 0.16300033E+01 -0.59594E-07
 0.16800034E+01 -0.59922E-07
 0.17300034E+01 -0.50545E-07
 0.17800034E+01 -0.47632E-07
 0.18300034E+01 -0.65015E-07
 0.18800033E+01 -0.53434E-07
 0.19300034E+01 -0.43305E-07
 0.19800034E+01 -0.42880E-07
 0.20300033E+01 -0.22451E-07
 0.20800035E+01 -0.15503E-07
 0.21300035E+01 -0.42308E-08
 0.21800034E+01  0.18060E-07
 0.22300034E+01  0.12603E-07
 0.22800033E+01  0.61009E-08
 0.23300035E+01  0.42260E-08
 0.23800035E+01  0.26840E-08
 0.24300034E+01  0.30924E-07
 0.24800034E+01  0.27054E-07
 0.25300033E+01 -0.78409E-08
 0.25800035E+01 -0.92985E-08
 0.26300035E+01  0.48380E-08
 0.26800034E+01  0.35684E-08
 0.27300034E+01 -0.10663E-07
 0.27800033E+01 -0.12568E-07
 0.28300035E+01 -0.20339E-07
 0.28800035E+01 -0.28465E-07
 0.29300034E+01 -0.17463E-07
 0.29800034E+01 -0.24522E-07
 0.30300033E+01 -0.25885E-07
 0.30800035E+01 -0.21100E-07
 0.31300035E+01 -0.21906E-07
 0.31800034E+01 -0.15888E-07
 0.32300034E+01 -0.34626E-07
 0.32800033E+01 -0.41077E-07
 0.33300035E+01 -0.21622E-07
 0.33800035E+01 -0.89985E-08
 0.34300034E+01 -0.10127E-07
 0.34800034E+01 -0.15608E-07
 0.35300033E+01 -0.12299E-07
 0.35800035E+01 -0.95863E-08
 0.36300035E+01 -0.11082E-08
 0.36800034E+01  0.10387E-07
 0.37300034E+01  0.32840E-07
 0.37800033E+01  0.46195E-07
 0.38300035E+01  0.35132E-07
 0.38800035E+01  0.28001E-07
 0.39300034E+01  0.26350E-07
 0.39800034E+01  0.39090E-07
 0.40300035E+01  0.38550E-07
 0.40800033E+01  0.49830E-07
 0.41300035E+01  0.53060E-07
 0.41800036E+01  0.17845E-07
 0.42300034E+01  0.19184E-09
 0.42800035E+01 -0.19937E-08
 0.43300033E+01  0.51206E-08
 0.43800035E+01 -0.15795E-07
 0.44300036E+01 -0.37093E-07
 0.44800034E+01 -0.41008E-07
 0.45300035E+01 -0.30277E-07
 0.45800033E+01 -0.14596E-07
 0.46300035E+01 -0.19680E-07
 0.46800036E+01 -0.10219E-07
 0.47300034E+01 -0.27602E-07
 0.47800035E+01 -0.38124E-07
 0.48300033E+01 -0.22314E-07
 0.48800035E+01 -0.12768E-07
 0.49300036E+01  0.19396E-08
 0.49800034E+01  0.10023E-07
 0.50300035E+01  0.30318E-07
 0.50800033E+01  0.22993E-07
 0.51300035E+01  0.12071E-07
 0.51800036E+01  0.23594E-07
 0.52300034E+01  0.18743E-07
 0.52800035E+01  0.14524E-07
 0.53300033E+01  0.90603E-08
 0.53800035E+01  0.10001E-07
 0.54300036E+01  0.25318E-07
 0.54800034E+01  0.13214E-07
 0.55300035E+01 -0.95375E-08
 0.55800033E+01  0.11294E-09
 0.56300035E+01  0.15843E-07
 0.56800036E+01  0.17496E-07
 0.57300034E+01  0.52143E-08
 0.57800035E+01 -0.30816E-08
 0.58300033E+01 -0.13327E-07
 0.58800035E+01 -0.20021E-07
 0.59300036E+01  0.37159E-09
 0.59800034E+01 -0.90338E-09
 0.60300035E+01 -0.15575E-07
 0.60800033E+01  0.29257E-08
 0.61300035E+01  0.11771E-07
 0.61800036E+01 -0.49883E-08
 0.62300034E+01 -0.17723E-07
 0.62800035E+01 -0.38394E-07
 0.63300033E+01 -0.16337E-07
 0.63800035E+01  0.10661E-07
 0.64300036E+01 -0.13068E-07
 0.64800034E+01 -0.20473E-07
 0.65300035E+01 -0.33524E-07
 0.65800033E+01 -0.20899E-07
 0.66300035E+01 -0.27665E-08
 0.66800036E+01  0.70953E-08
 0.67300034E+01  0.25185E-07
 0.67800035E+01  0.61151E-08
 0.68300033E+01  0.69218E-08
 0.68800035E+01  0.13127E-08
 0.69300036E+01 -0.31860E-08
 0.69800034E+01  0.16069E-07
 0.70300035E+01  0.20363E-07
 0.70800033E+01  0.45355E-07
 0.71300035E+01  0.54955E-07
 0.71800036E+01  0.53911E-07
 0.72300034E+01  0.61644E-07
 0.72800035E+01  0.48521E-07
 0.73300033E+01  0.31432E-07
 0.73800035E+01  0.79992E-08
 0.74300036E+01 -0.52845E-08
 0.74800034E+01 -0.26364E-08
 0.75300035E+01 -0.23406E-07
 0.75800033E+01 -0.36836E-07
 0.76300035E+01 -0.27768E-07
 0.76800036E+01 -0.37229E-07
 0.77300034E+01 -0.27971E-07
 0.77800035E+01  0.16994E-08
 0.78300033E+01 -0.10841E-07
 0.78800035E+01 -0.26369E-07
 0.79300036E+01 -0.11530E-07
 0.79800034E+01 -0.90441E-08
 0.80300035E+01 -0.17069E-07
 0.80800037E+01 -0.85093E-08
 0.81300039E+01  0.20407E-08
 0.81800032E+01  0.26746E-08
 0.82300034E+01  0.14007E-07
 0.82800035E+01  0.21742E-07
 0.83300037E+01  0.30717E-08
 0.83800039E+01 -0.26657E-07
 0.84300032E+01 -0.30451E-07
 0.84800034E+01 -0.34417E-07
 0.85300035E+01 -0.53693E-07
 0.85800037E+01 -0.58161E-07
 0.86300039E+01 -0.59537E-07
 0.86800032E+01 -0.48077E-07
 0.87300034E+01 -0.26520E-07
 0.87800035E+01 -0.10143E-08
 0.88300037E+01  0.22948E-08
 0.88800039E+01 -0.15662E-07
 0.89300032E+01 -0.13983E-07
 0.89800034E+01 -0.12977E-07
 0.90300035E+01 -0.17401E-08
 0.90800037E+01  0.20727E-07
 0.91300039E+01  0.36654E-07
 0.91800032E+01  0.52678E-07
 0.92300034E+01  0.62702E-07
 0.92800035E+01  0.60115E-07
 0.93300037E+01  0.46863E-07
 0.93800039E+01  0.48127E-07
 0.94300032E+01  0.42286E-07
 0.94800034E+01  0.37531E-07
 0.95300035E+01  0.37036E-07
 0.95800037E+01  0.33346E-07
 0.96300039E+01  0.36258E-07
 0.96800032E+01  0.12533E-07
 0.97300034E+01  0.50642E-08
 0.97800035E+01 -0.17246E-08
 0.98300037E+01 -0.15887E-07
 0.98800039E+01 -0.19318E-07
 0.99300032E+01 -0.23547E-07
 0.99800034E+01 -0.10043E-07
 0.10030004E+02 -0.33601E-07
 0.10080004E+02 -0.36064E-07
 0.10130004E+02 -0.25594E-07
 0.10180003E+02 -0.32341E-07
 0.10230003E+02 -0.16165E-07
 0.10280004E+02 -0.19612E-07
 0.10330004E+02 -0.14677E-07
 0.10380004E+02 -0.15107E-07
 0.10430003E+02 -0.29687E-07
 0.10480003E+02 -0.32305E-08
 0.10530004E+02  0.68351E-08
 0.10580004E+02  0.35900E-08
 0.10630004E+02  0.33450E-07
 0.10680003E+02  0.29621E-07
 0.10730003E+02  0.24388E-07
 0.10780004E+02  0.23449E-07
 0.10830004E+02  0.94242E-08
 0.10880004E+02  0.15190E-07
 0.10930003E+02  0.12495E-07
 0.10980003E+02  0.16925E-07
 0.11030004E+02  0.40827E-08
 0.11080004E+02 -0.29151E-07
 0.11130004E+02 -0.27036E-07
 0.11180003E+02 -0.95810E-08
 0.11230003E+02 -0.13532E-07
 0.11280004E+02 -0.13388E-07
 0.11330004E+02 -0.38639E-08
 0.11380004E+02 -0.19329E-07
 0.11430003E+02 -0.21329E-07
 0.11480003E+02 -0.49826E-08
 0.11530004E+02 -0.36478E-08
 0.11580004E+02  0.26945E-07
 0.11630004E+02  0.32465E-07
 0.11680003E+02  0.15094E-07
 0.11730003E+02  0.13881E-07
 0.11780004E+02 -0.16262E-07
 0.11830004E+02 -0.10414E-07
 0.11880004E+02 -0.18560E-07
 0.11930003E+02 -0.24283E-07
 0.11980003E+02 -0.53117E-08
 0.12030004E+02 -0.35293E-07
 0.12080004E+02 -0.22242E-07
 0.12130004E+02  0.10460E-08
 0.12180003E+02  0.79396E-08
 0.12230003E+02  0.26843E-07
 0.12280004E+02  0.14130E-07
 0.12330004E+02  0.40461E-08
 0.12380004E+02  0.24708E-07
 0.12430003E+02  0.43137E-07
 0.12480003E+02  0.46319E-07
 0.12530004E+02  0.36282E-07
 0.12580004E+02  0.15790E-07
 0.12630004E+02  0.16896E-07
 0.12680003E+02  0.15055E-07
 0.12730003E+02  0.20225E-07
 0.12780004E+02  0.27884E-07
 0.12830004E+02  0.54887E-08
 0.12880004E+02 -0.19263E-07
 0.12930003E+02 -0.27621E-07
 0.12980003E+02 -0.92092E-09
 0.13030004E+02  0.87173E-08
 0.13080004E+02  0.14659E-08
 0.13130004E+02 -0.91521E-09
 0.13180003E+02 -0.59498E-08
 0.13230003E+02 -0.71093E-08
 0.13280004E+02  0.42571E-08
 0.13330004E+02  0.14388E-07
 0.13380004E+02 -0.13295E-07
 0.13430003E+02 -0.29186E-07
 0.13480003E+02 -0.43002E-07
 0.13530004E+02 -0.38063E-07
 0.13580004E+02 -0.32633E-07
 0.13630004E+02 -0.61146E-07
 0.13680003E+02 -0.58207E-07
 0.13730003E+02 -0.60798E-07
 0.13780004E+02 -0.53994E-07
 0.13830004E+02 -0.45691E-07
 0.13880004E+02 -0.71312E-07
 0.13930003E+02 -0.63314E-07
 0.13980003E+02 -0.26042E-07
 0.14030004E+02  0.39337E-08
 0.14080004E+02  0.89164E-08
 0.14130004E+02  0.12192E-07
 0.14180003E+02  0.18883E-07
 0.14230003E+02  0.16883E-07
 0.14280004E+02  0.35730E-07
 0.14330004E+02  0.32215E-07
 0.14380004E+02  0.23394E-07
 0.14430003E+02  0.20234E-07
 0.14480003E+02  0.90216E-08
 0.14530004E+02  0.30550E-07
 0.14580004E+02  0.31558E-07
 0.14630004E+02  0.38061E-08
 0.14680003E+02 -0.13105E-07
 0.14730003E+02 -0.37988E-08
 0.14780004E+02  0.68516E-08
 0.14830004E+02  0.19908E-08
 0.14880004E+02  0.26923E-08
 0.14930003E+02  0.14066E-09
 0.14980003E+02 -0.27008E-08
 0.15030004E+02 -0.14651E-07
 0.15080004E+02 -0.20401E-08
 0.15130004E+02  0.17751E-07
 0.15180003E+02  0.11511E-07
 0.15230003E+02  0.73796E-08
 0.15280004E+02  0.97078E-08
 0.15330004E+02  0.76359E-08
 0.15380004E+02  0.64894E-08
 0.15430003E+02  0.31096E-07
 0.15480003E+02  0.41992E-07
 0.15530004E+02  0.32078E-07
 0.15580004E+02  0.38661E-07
 0.15630004E+02  0.72405E-07
 0.15680003E+02  0.93800E-07
 0.15730003E+02  0.10794E-06
 0.15780004E+02  0.11392E-06
 0.15830004E+02  0.10064E-06
 0.15880004E+02  0.76474E-07
 0.15930003E+02  0.37327E-07
 0.15980003E+02  0.37472E-07
 0.16030005E+02  0.45696E-07
 0.16080004E+02  0.22630E-07
 0.16130003E+02  0.16418E-08
 0.16180004E+02 -0.16726E-07
 0.16230003E+02 -0.26366E-07
 0.16280005E+02 -0.35604E-07
 0.16330004E+02 -0.50605E-07
 0.16380003E+02 -0.37858E-07
 0.16430004E+02 -0.51310E-07
 0.16480003E+02 -0.74119E-07
 0.16530005E+02 -0.67674E-07
 0.16580004E+02 -0.75213E-07
 0.16630003E+02 -0.63661E-07
 0.16680004E+02 -0.60289E-07
 0.16730003E+02 -0.46121E-07
 0.16780005E+02 -0.34524E-07
 0.16830004E+02 -0.62112E-07
 0.16880003E+02 -0.64073E-07
 0.16930004E+02 -0.41880E-07
 0.16980003E+02 -0.37811E-07
 0.17030005E+02 -0.37734E-07
 0.17080004E+02 -0.42611E-07
 0.17130003E+02 -0.64598E-07
 0.17180004E+02 -0.38894E-07
 0.17230003E+02 -0.42759E-07
 0.17280005E+02 -0.51751E-07
 0.17330004E+02 -0.35455E-07
 0.17380003E+02 -0.57170E-07
 0.17430004E+02 -0.43029E-07
 0.17480003E+02 -0.36073E-07
 0.17530005E+02 -0.17175E-07
 0.17580004E+02  0.70681E-08
 0.17630003E+02 -0.23353E-09
 0.17680004E+02  0.10620E-07
 0.17730003E+02  0.12749E-07
 0.17780005E+02  0.30598E-07
 0.17830004E+02  0.54707E-07
 0.17880003E+02  0.53042E-07
 0.17930004E+02  0.72780E-07
 0.17980003E+02  0.84368E-07
 0.18030005E+02  0.79053E-07
 0.18080004E+02  0.94760E-07
 0.18130003E+02  0.82100E-07
 0.18180004E+02  0.73354E-07
 0.18230003E+02  0.78166E-07
 0.18280005E+02  0.62638E-07
 0.18330004E+02  0.64756E-07
 0.18380003E+02  0.49772E-07
 0.18430004E+02  0.27410E-07
 0.18480003E+02  0.12059E-07
 0.18530005E+02  0.12456E-08
 0.18580004E+02 -0.10565E-07
 0.18630003E+02 -0.32808E-07
 0.18680004E+02 -0.20963E-07
 0.18730003E+02 -0.81008E-08
 0.18780005E+02 -0.14719E-07
 0.18830004E+02 -0.28126E-07
 0.18880003E+02 -0.28099E-07
 0.18930004E+02 -0.17469E-07
 0.18980003E+02 -0.44728E-08
 0.19030005E+02  0.10190E-07
 0.19080004E+02 -0.11863E-07
 0.19130003E+02 -0.33807E-07
 0.19180004E+02 -0.25668E-07
 0.19230003E+02 -0.31119E-07
 0.19280005E+02 -0.25749E-07
 0.19330004E+02 -0.21827E-07
 0.19380003E+02 -0.33873E-07
 0.19430004E+02 -0.35694E-07
 0.19480003E+02 -0.64234E-07
 0.19530005E+02 -0.34804E-07
 0.19580004E+02 -0.20295E-07
 0.19630003E+02 -0.12940E-07
 0.19680004E+02 -0.16335E-07
 0.19730003E+02 -0.43859E-07
 0.19780005E+02 -0.58645E-08
 0.19830004E+02  0.55183E-07
 0.19880003E+02  0.83935E-07
 0.19930004E+02  0.74145E-07
 0.19980003E+02  0.17770E-06
 0.20030005E+02 -0.41130E-07
 0.20080004E+02  0.15367E-06
 0.20130003E+02 -0.21240E-06
 0.20180004E+02  0.91916E-07
 0.20230003E+02 -0.53729E-07
 0.20280005E+02  0.34181E-06
 0.20330004E+02  0.21214E-05
 0.20380003E+02  0.48693E-05
 0.20430004E+02  0.10847E-04
 0.20480003E+02  0.19059E-04
 0.20530005E+02  0.34194E-04
 0.20580004E+02  0.50259E-04
 0.20630003E+02  0.54537E-04
 0.20680004E+02 -0.64600E-06
 0.20730003E+02 -0.48298E-04
 0.20780005E+02 -0.41564E-04
 0.20830004E+02 -0.41872E-04
 0.20880003E+02 -0.12804E-04
 0.20930004E+02 -0.27008E-04
 0.20980003E+02 -0.91678E-04
 0.21030005E+02 -0.12586E-03
 0.21080004E+02 -0.17076E-03
 0.21130003E+02 -0.17644E-03
 0.21180004E+02 -0.15917E-04
 0.21230003E+02  0.11209E-03
 0.21280005E+02  0.81962E-04
 0.21330004E+02  0.90951E-04
 0.21380003E+02  0.20645E-03
 0.21430004E+02  0.42029E-03
 0.21480003E+02  0.35031E-03
 0.21530005E+02  0.44856E-04
 0.21580004E+02 -0.30871E-04
 0.21630003E+02 -0.18458E-03
 0.21680004E+02 -0.45431E-03
 0.21730003E+02 -0.28489E-03
 0.21780005E+02  0.15121E-03
 0.21830004E+02  0.26174E-03
 0.21880003E+02  0.17471E-03
 0.21930004E+02 -0.64183E-04
 0.21980003E+02 -0.24103E-03
 0.22030005E+02 -0.12893E-03
 0.22080004E+02 -0.21932E-03
 0.22130003E+02 -0.14096E-03
 0.22180004E+02  0.27912E-04
 0.22230003E+02 -0.72276E-04
 0.22280005E+02  0.21608E-04
 0.22330004E+02  0.78104E-04
 0.22380003E+02  0.15480E-03
 0.22430004E+02  0.24117E-03
 0.22480003E+02  0.14551E-04
 0.22530005E+02 -0.10069E-04
 0.22580004E+02  0.16585E-03
 0.22630003E+02  0.10620E-03
 0.22680004E+02  0.78291E-05
 0.22730003E+02 -0.59618E-04
 0.22780005E+02 -0.62871E-04
 0.22830004E+02  0.98001E-04
 0.22880003E+02  0.12083E-03
 0.22930004E+02 -0.52863E-04
 0.22980003E+02 -0.21745E-03
 0.23030005E+02 -0.26205E-03
 0.23080004E+02 -0.26457E-03
 0.23130003E+02 -0.10481E-03
 0.23180004E+02  0.10941E-03
 0.23230003E+02  0.86922E-04
 0.23280005E+02  0.24838E-03
 0.23330004E+02  0.24271E-03
 0.23380003E+02 -0.31394E-04
 0.23430004E+02 -0.71290E-04
 0.23480003E+02  0.15556E-04
 0.23530005E+02  0.16371E-03
 0.23580004E+02 -0.23750E-05
 0.23630003E+02 -0.28441E-03
 0.23680004E+02 -0.21604E-03
 0.23730003E+02  0.13760E-03
 0.23780005E+02  0.19390E-03
 0.23830004E+02 -0.13151E-03
 0.23880003E+02 -0.42515E-04
 0.23930004E+02 -0.78406E-04
 0.23980003E+02 -0.15017E-03
 0.24030005E+02  0.31137E-04
 0.24080004E+02  0.73900E-05
 0.24130003E+02  0.16744E-03
 0.24180004E+02 -0.53165E-04
 0.24230003E+02 -0.20399E-03
 0.24280005E+02  0.71899E-04
 0.24330004E+02  0.16761E-03
 0.24380003E+02  0.34353E-03
 0.24430004E+02  0.79674E-04
 0.24480003E+02 -0.14454E-03
 0.24530005E+02 -0.41786E-04
 0.24580004E+02  0.18928E-03
 0.24630003E+02  0.49471E-03
 0.24680004E+02  0.12143E-03
 0.24730003E+02 -0.24372E-03
 0.24780005E+02 -0.16432E-03
 0.24830004E+02 -0.12385E-03
 0.24880003E+02 -0.32202E-03
 0.24930004E+02 -0.24125E-03
 0.24980003E+02  0.12875E-03
 0.25030005E+02 -0.47782E-04
 0.25080004E+02 -0.40785E-03
 0.25130003E+02 -0.22284E-03
 0.25180004E+02  0.30613E-03
 0.25230003E+02  0.18887E-03
 0.25280005E+02 -0.21036E-03
 0.25330004E+02 -0.12024E-03
 0.25380003E+02  0.21868E-03
 0.25430004E+02  0.40759E-03
 0.25480003E+02  0.16210E-03
 0.25530005E+02  0.12916E-03
 0.25580004E+02  0.67698E-04
 0.25630003E+02 -0.48972E-03
 0.25680004E+02 -0.53683E-03
 0.25730003E+02  0.18547E-04
 0.25780005E+02  0.29427E-03
 0.25830004E+02  0.28501E-03
 0.25880003E+02  0.20468E-03
 0.25930004E+02  0.16282E-03
 0.25980003E+02  0.16245E-03
 0.26030005E+02 -0.59147E-04
 0.26080004E+02  0.35297E-04
 0.26130003E+02  0.13290E-03
 0.26180004E+02 -0.17293E-03
 0.26230003E+02 -0.25695E-03
 0.26280005E+02 -0.15431E-03
 0.26330004E+02  0.20842E-03
 0.26380003E+02  0.49152E-04
 0.26430004E+02 -0.44538E-03
 0.26480003E+02 -0.33724E-03
 0.26530005E+02 -0.23499E-03
 0.26580004E+02 -0.12267E-04
 0.26630003E+02  0.10206E-03
 0.26680004E+02  0.86400E-04
 0.26730003E+02  0.11253E-03
 0.26780005E+02 -0.46438E-04
 0.26830004E+02  0.95387E-04
 0.26880003E+02  0.20727E-03
 0.26930004E+02  0.90958E-04
 0.26980003E+02 -0.94095E-04
 0.27030005E+02 -0.62293E-04
 0.27080004E+02  0.23046E-03
 0.27130003E+02  0.27359E-03
 0.27180004E+02  0.15133E-03
 0.27230003E+02 -0.12946E-04
 0.27280005E+02  0.15648E-03
 0.27330004E+02  0.30254E-03
 0.27380003E+02 -0.79246E-04
 0.27430004E+02 -0.37386E-03
 0.27480003E+02 -0.49338E-03
 0.27530005E+02 -0.31585E-03
 0.27580004E+02  0.86370E-04
 0.27630003E+02  0.29764E-03
 0.27680004E+02  0.35128E-03
 0.27730003E+02  0.67014E-04
 0.27780005E+02 -0.30077E-03
 0.27830004E+02 -0.32733E-03
 0.27880003E+02  0.45561E-04
 0.27930004E+02  0.40149E-03
 0.27980003E+02  0.13603E-03
 0.28030005E+02 -0.31546E-03
 0.28080004E+02 -0.31282E-03
 0.28130003E+02 -0.73952E-04
 0.28180004E+02 -0.88374E-04
 0.28230003E+02 -0.73921E-05
 0.28280005E+02  0.23760E-03
 0.28330004E+02  0.24523E-03
 0.28380003E+02  0.22387E-03
 0.28430004E+02  0.37861E-04
 0.28480003E+02 -0.14410E-03
 0.28530005E+02 -0.12191E-03
 0.28580004E+02  0.59700E-04
 0.28630003E+02  0.14384E-03
 0.28680004E+02 -0.28171E-03
 0.28730003E+02 -0.39763E-03
 0.28780005E+02  0.91007E-06
 0.28830004E+02  0.18639E-03
 0.28880003E+02  0.53861E-04
 0.28930004E+02 -0.11174E-04
 0.28980003E+02  0.16008E-03
 0.29030005E+02  0.27083E-03
 0.29080004E+02  0.23574E-03
 0.29130003E+02 -0.29130E-04
 0.29180004E+02 -0.22215E-03
 0.29230003E+02 -0.92489E-04
 0.29280005E+02 -0.95479E-04
 0.29330004E+02 -0.25296E-03
 0.29380003E+02 -0.22192E-03
 0.29430004E+02 -0.17307E-03
 0.29480003E+02 -0.10065E-03
 0.29530005E+02  0.16131E-03
 0.29580004E+02  0.15590E-03
 0.29630003E+02  0.16670E-03
 0.29680004E+02  0.16476E-03
 0.29730003E+02 -0.15693E-03
 0.29780005E+02  0.13503E-03
 0.29830004E+02  0.36233E-03
 0.29880003E+02  0.73503E-04
 0.29930004E+02  0.13055E-03
 0.29980003E+02  0.31107E-04
 0.30030005E+02 -0.28675E-05
 0.30080004E+02  0.11801E-03
 0.30130003E+02 -0.15859E-03
 0.30180004E+02 -0.11644E-03
 0.30230003E+02  0.97925E-05
 0.30280005E+02  0.12776E-04
 0.30330004E+02  0.12414E-03
 0.30380003E+02 -0.30809E-03
 0.30430004E+02 -0.33741E-03
 0.30480003E+02  0.20979E-05
 0.30530005E+02 -0.51754E-04
 0.30580004E+02  0.95780E-05
 0.30630003E+02 -0.17014E-03
 0.30680004E+02 -0.15473E-03
 0.30730003E+02 -0.12418E-03
 0.30780005E+02 -0.69172E-04
 0.30830004E+02  0.34613E-03
 0.30880003E+02  0.13864E-03
 0.30930004E+02 -0.11537E-03
 0.30980003E+02 -0.47463E-04
 0.31030005E+02  0.24807E-03
 0.31080004E+02  0.47524E-03
 0.31130003E+02  0.18311E-03
 0.31180004E+02  0.93890E-06
 0.31230003E+02 -0.17328E-03
 0.31280005E+02 -0.10789E-03
 0.31330004E+02  0.25964E-03
 0.31380003E+02  0.26849E-03
 0.31430004E+02  0.19663E-03
 0.31480003E+02  0.29384E-04
 0.31530005E+02 -0.24396E-03
 0.31580004E+02 -0.48884E-03
 0.31630003E+02 -0.56528E-03
 0.31680004E+02 -0.25145E-03
 0.31730003E+02 -0.15213E-03
 0.31780005E+02 -0.38337E-03
 0.31830004E+02 -0.29111E-03
 0.31880003E+02  0.16246E-03
 0.31930004E+02  0.26544E-03
 0.31980003E+02  0.27728E-03
 0.32030003E+02  0.43222E-03
 0.32080006E+02  0.29904E-03
 0.32130005E+02  0.34200E-03
 0.32180004E+02  0.26093E-03
 0.32230003E+02  0.36362E-04
 0.32280003E+02  0.81331E-04
 0.32330006E+02  0.39691E-04
 0.32380005E+02  0.47326E-04
 0.32430004E+02 -0.13992E-04
 0.32480003E+02 -0.21654E-03
 0.32530003E+02 -0.30669E-03
 0.32580006E+02 -0.37459E-03
 0.32630005E+02 -0.37052E-03
 0.32680004E+02 -0.23758E-03
 0.32730003E+02 -0.16801E-03
 0.32780003E+02 -0.16348E-03
 0.32830006E+02  0.11191E-03
 0.32880005E+02  0.32747E-03
 0.32930004E+02  0.10325E-03
 0.32980003E+02  0.71800E-04
 0.33030003E+02  0.26520E-03
 0.33080006E+02  0.16989E-03
 0.33130005E+02  0.17114E-04
 0.33180004E+02  0.85135E-04
 0.33230003E+02  0.95492E-04
 0.33280003E+02  0.30639E-04
 0.33330006E+02  0.12447E-03
 0.33380005E+02  0.14743E-03
 0.33430004E+02 -0.23227E-04
 0.33480003E+02 -0.19281E-03
 0.33530003E+02 -0.14370E-03
 0.33580006E+02  0.18736E-03
 0.33630005E+02  0.29099E-03
 0.33680004E+02 -0.81507E-04
 0.33730003E+02 -0.39177E-03
 0.33780003E+02 -0.48512E-03
 0.33830006E+02 -0.36636E-03
 0.33880005E+02 -0.13740E-03
 0.33930004E+02  0.21978E-04
 0.33980003E+02  0.17693E-03
 0.34030003E+02  0.21288E-03
 0.34080006E+02  0.39510E-03
 0.34130005E+02  0.36991E-03
 0.34180004E+02 -0.13701E-03
 0.34230003E+02 -0.21189E-03
 0.34280003E+02 -0.72504E-04
 0.34330006E+02 -0.43692E-04
 0.34380005E+02  0.71286E-04
 0.34430004E+02 -0.11156E-03
 0.34480003E+02 -0.22895E-03
 0.34530003E+02 -0.11117E-03
 0.34580006E+02  0.16502E-04
 0.34630005E+02  0.21298E-04
 0.34680004E+02  0.26557E-04
 0.34730003E+02  0.34148E-03
 0.34780003E+02  0.38353E-03
 0.34830006E+02  0.18514E-03
 0.34880005E+02  0.11479E-04
 0.34930004E+02 -0.35099E-04
 0.34980003E+02 -0.96403E-04
 0.35030003E+02 -0.27311E-03
 0.35080006E+02 -0.20895E-03
 0.35130005E+02 -0.43544E-04
 0.35180004E+02  0.20614E-03
 0.35230003E+02  0.23489E-03
 0.35280003E+02 -0.97506E-05
 0.35330006E+02 -0.37144E-03
 0.35380005E+02 -0.59326E-03
 0.35430004E+02 -0.52968E-03
 0.35480003E+02 -0.33855E-03
 0.35530003E+02  0.48827E-04
 0.35580006E+02  0.19437E-03
 0.35630005E+02  0.22555E-03
 0.35680004E+02  0.33617E-03
 0.35730003E+02  0.20386E-03
 0.35780003E+02 -0.15245E-04
 0.35830006E+02 -0.14197E-03
 0.35880005E+02  0.78231E-05
 0.35930004E+02  0.31194E-03
 0.35980003E+02  0.30679E-03
 0.36030003E+02  0.35771E-03
 0.36080006E+02  0.71469E-03
 0.36130005E+02  0.75703E-03
 0.36180004E+02  0.12506E-03
 0.36230003E+02 -0.65274E-03
 0.36280003E+02 -0.79128E-03
 0.36330006E+02 -0.57609E-03
 0.36380005E+02 -0.12291E-03
 0.36430004E+02  0.66111E-03
 0.36480003E+02  0.73311E-03
 0.36530003E+02  0.75664E-03
 0.36580006E+02  0.11723E-02
 0.36630005E+02  0.57923E-03
 0.36680004E+02  0.18910E-03
 0.36730003E+02  0.22538E-03
 0.36780003E+02 -0.50459E-03
 0.36830006E+02 -0.11616E-02
 0.36880005E+02 -0.12038E-02
 0.36930004E+02 -0.78629E-03
 0.36980003E+02 -0.71225E-03
 0.37030003E+02 -0.89375E-03
 0.37080006E+02 -0.82936E-03
 0.37130005E+02 -0.80436E-03
 0.37180004E+02 -0.97594E-03
 0.37230003E+02 -0.57767E-03
 0.37280003E+02  0.76916E-03
 0.37330006E+02  0.17619E-02
 0.37380005E+02  0.19015E-02
 0.37430004E+02  0.13067E-02
 0.37480003E+02  0.96130E-03
 0.37530003E+02  0.10041E-02
 0.37580006E+02  0.23275E-03
 0.37630005E+02 -0.93506E-03
 0.37680004E+02 -0.20624E-02
 0.37730003E+02 -0.28068E-02
 0.37780003E+02 -0.21489E-02
 0.37830006E+02 -0.10697E-02
 0.37880005E+02 -0.78098E-03
 0.37930004E+02 -0.16110E-03
 0.37980003E+02  0.40713E-03
 0.38030003E+02  0.62661E-03
 0.38080006E+02  0.13691E-02
 0.38130005E+02  0.23361E-02
 0.38180004E+02  0.28235E-02
 0.38230003E+02  0.18930E-02
 0.38280003E+02  0.47644E-03
 0.38330006E+02 -0.63460E-03
 0.38380005E+02 -0.13216E-02
 0.38430004E+02 -0.60923E-03
 0.38480003E+02  0.52481E-03
 0.38530003E+02  0.88003E-03
 0.38580006E+02  0.56859E-03
 0.38630005E+02  0.36426E-03
 0.38680004E+02  0.77291E-03
 0.38730003E+02  0.56950E-03
 0.38780003E+02 -0.25678E-03
 0.38830006E+02 -0.92505E-03
 0.38880005E+02 -0.18899E-02
 0.38930004E+02 -0.22473E-02
 0.38980003E+02 -0.13764E-02
 0.39030003E+02 -0.13869E-03
 0.39080006E+02  0.19413E-03
 0.39130005E+02 -0.52145E-03
 0.39180004E+02 -0.88527E-03
 0.39230003E+02 -0.37663E-03
 0.39280003E+02  0.39225E-03
 0.39330006E+02  0.82521E-03
 0.39380005E+02  0.12267E-02
 0.39430004E+02  0.14263E-02
 0.39480003E+02  0.14019E-02
 0.39530003E+02  0.17427E-02
 0.39580006E+02  0.18680E-02
 0.39630005E+02  0.76059E-03
 0.39680004E+02 -0.85358E-03
 0.39730003E+02 -0.21021E-02
 0.39780003E+02 -0.27289E-02
 0.39830006E+02 -0.22742E-02
 0.39880005E+02 -0.12161E-02
 0.39930004E+02 -0.28303E-04
 0.39980003E+02  0.10230E-03
 0.40030003E+02 -0.48692E-03
 0.40080006E+02 -0.29766E-03
 0.40130005E+02  0.34852E-03
 0.40180004E+02  0.71915E-03
 0.40230003E+02  0.77272E-03
 0.40280003E+02  0.12640E-02
 0.40330006E+02  0.16197E-02
 0.40380005E+02  0.15906E-02
 0.40430004E+02  0.18165E-02
 0.40480003E+02  0.17254E-02
 0.40530003E+02  0.94820E-03
 0.40580006E+02 -0.48787E-03
 0.40630005E+02 -0.17801E-02
 0.40680004E+02 -0.21254E-02
 0.40730003E+02 -0.22838E-02
 0.40780003E+02 -0.24261E-02
 0.40830006E+02 -0.21360E-02
 0.40880005E+02 -0.14076E-02
 0.40930004E+02 -0.82430E-03
 0.40980003E+02 -0.16321E-03
 0.41030003E+02  0.16110E-02
 0.41080006E+02  0.24429E-02
 0.41130005E+02  0.16594E-02
 0.41180004E+02  0.81192E-03
 0.41230003E+02  0.40160E-03
 0.41280003E+02  0.11648E-02
 0.41330006E+02  0.15716E-02
 0.41380005E+02  0.84523E-03
 0.41430004E+02  0.19435E-03
 0.41480003E+02 -0.79839E-04
 0.41530003E+02 -0.14766E-03
 0.41580006E+02 -0.37782E-03
 0.41630005E+02 -0.96567E-03
 0.41680004E+02 -0.17717E-02
 0.41730003E+02 -0.19765E-02
 0.41780003E+02 -0.14265E-02
 0.41830006E+02 -0.54117E-04
 0.41880005E+02  0.98314E-03
 0.41930004E+02  0.81858E-03
 0.41980003E+02  0.73445E-03
 0.42030003E+02  0.43331E-03
 0.42080006E+02  0.59607E-03
 0.42130005E+02  0.92069E-03
 0.42180004E+02  0.42483E-03
 0.42230003E+02  0.46617E-03
 0.42280003E+02  0.40521E-03
 0.42330006E+02 -0.14564E-03
 0.42380005E+02 -0.72584E-03
 0.42430004E+02 -0.98672E-03
 0.42480003E+02 -0.90763E-03
 0.42530003E+02 -0.10984E-02
 0.42580006E+02 -0.87094E-03
 0.42630005E+02 -0.39694E-03
 0.42680004E+02 -0.18993E-03
 0.42730003E+02 -0.64538E-04
 0.42780003E+02  0.82695E-04
 0.42830006E+02  0.18544E-03
 0.42880005E+02  0.27290E-03
 0.42930004E+02  0.32123E-03
 0.42980003E+02  0.20457E-03
 0.43030003E+02  0.63448E-03
 0.43080006E+02  0.85626E-03
 0.43130005E+02  0.67611E-03
 0.43180004E+02  0.67801E-03
 0.43230003E+02  0.23288E-03
 0.43280003E+02 -0.14566E-04
 0.43330006E+02 -0.37851E-03
 0.43380005E+02 -0.65101E-03
 0.43430004E+02  0.17904E-03
 0.43480003E+02  0.50322E-03
 0.43530003E+02 -0.69996E-04
 0.43580006E+02 -0.37429E-03
 0.43630005E+02 -0.63528E-03
 0.43680004E+02 -0.85094E-03
 0.43730003E+02 -0.47992E-03
 0.43780003E+02  0.89448E-04
 0.43830006E+02  0.52141E-03
 0.43880005E+02  0.77804E-03
 0.43930004E+02  0.56956E-03
 0.43980003E+02  0.29282E-03
 0.44030003E+02  0.17828E-03
 0.44080006E+02 -0.37270E-04
 0.44130005E+02 -0.11376E-03
 0.44180004E+02 -0.35881E-03
 0.44230003E+02 -0.79265E-03
 0.44280003E+02 -0.94932E-03
 0.44330006E+02 -0.51934E-03
 0.44380005E+02 -0.84813E-06
 0.44430004E+02 -0.24314E-03
 0.44480003E+02 -0.80229E-04
 0.44530003E+02  0.40361E-03
 0.44580006E+02  0.16597E-03
 0.44630005E+02 -0.14043E-03
 0.44680004E+02  0.60871E-05
 0.44730003E+02  0.57057E-03
 0.44780003E+02  0.86710E-03
 0.44830006E+02  0.75247E-03
 0.44880005E+02  0.51890E-03
 0.44930004E+02  0.31950E-03
 0.44980003E+02  0.64840E-03
 0.45030003E+02  0.88112E-03
 0.45080006E+02  0.28850E-03
 0.45130005E+02 -0.58013E-03
 0.45180004E+02 -0.11154E-02
 0.45230003E+02 -0.11296E-02
 0.45280003E+02 -0.10605E-02
 0.45330006E+02 -0.12022E-02
 0.45380005E+02 -0.91602E-03
 0.45430004E+02 -0.11740E-03
 0.45480003E+02  0.50759E-03
 0.45530003E+02  0.73521E-03
 0.45580006E+02  0.68782E-03
 0.45630005E+02  0.47013E-03
 0.45680004E+02  0.34919E-03
 0.45730003E+02  0.38598E-03
 0.45780003E+02  0.57942E-03
 0.45830006E+02  0.98731E-03
 0.45880005E+02  0.79737E-03
 0.45930004E+02  0.89555E-04
 0.45980003E+02 -0.40446E-03
 0.46030003E+02 -0.96796E-03
 0.46080006E+02 -0.14245E-02
 0.46130005E+02 -0.13785E-02
 0.46180004E+02 -0.88206E-03
 0.46230003E+02 -0.57011E-03
 0.46280003E+02 -0.56527E-03
 0.46330006E+02 -0.40580E-03
 0.46380005E+02  0.53791E-04
 0.46430004E+02  0.65807E-03
 0.46480003E+02  0.79652E-03
 0.46530003E+02  0.86688E-03
 0.46580006E+02  0.96240E-03
 0.46630005E+02  0.71819E-03
 0.46680004E+02  0.85740E-03
 0.46730003E+02  0.11033E-02
 0.46780003E+02  0.71699E-03
 0.46830006E+02  0.72979E-04
 0.46880005E+02 -0.43225E-03
 0.46930004E+02 -0.50356E-03
 0.46980003E+02 -0.15328E-03
 0.47030003E+02  0.24202E-03
 0.47080006E+02  0.44744E-03
 0.47130005E+02 -0.18584E-03
 0.47180004E+02 -0.12006E-02
 0.47230003E+02 -0.15369E-02
 0.47280003E+02 -0.13998E-02
 0.47330006E+02 -0.99716E-03
 0.47380005E+02 -0.47482E-03
 0.47430004E+02 -0.90578E-04
 0.47480003E+02  0.27284E-03
 0.47530003E+02  0.65821E-03
 0.47580006E+02  0.93744E-03
 0.47630005E+02  0.11520E-02
 0.47680004E+02  0.11061E-02
 0.47730003E+02  0.78073E-03
 0.47780003E+02  0.41743E-03
 0.47830006E+02  0.24581E-04
 0.47880005E+02 -0.42627E-03
 0.47930004E+02 -0.88141E-03
 0.47980003E+02 -0.11154E-02
 0.48030003E+02 -0.98049E-03
 0.48080006E+02 -0.53432E-03
 0.48130005E+02 -0.16229E-03
 0.48180004E+02  0.18309E-03
 0.48230003E+02  0.57224E-03
 0.48280003E+02  0.41168E-03
 0.48330006E+02  0.49916E-04
 0.48380005E+02  0.49133E-04
 0.48430004E+02  0.67899E-04
 0.48480003E+02  0.84189E-04
 0.48530003E+02  0.23292E-04
 0.48580006E+02 -0.21226E-04
 0.48630005E+02  0.11408E-03
 0.48680004E+02  0.11486E-03
 0.48730003E+02  0.26284E-03
 0.48780003E+02  0.55584E-03
 0.48830006E+02  0.78276E-03
 0.48880005E+02  0.85305E-03
 0.48930004E+02  0.68921E-03
 0.48980003E+02  0.50205E-03
 0.49030003E+02  0.70474E-04
 0.49080006E+02 -0.44944E-03
 0.49130005E+02 -0.67011E-03
 0.49180004E+02 -0.80021E-03
 0.49230003E+02 -0.98599E-03
 0.49280003E+02 -0.10749E-02
 0.49330006E+02 -0.94740E-03
 0.49380005E+02 -0.60259E-03
 0.49430004E+02 -0.27135E-03
 0.49480003E+02 -0.16432E-03
 0.49530003E+02 -0.36781E-04
 0.49580006E+02  0.19753E-03
 0.49630005E+02  0.45211E-03
 0.49680004E+02  0.65035E-03
 0.49730003E+02  0.63064E-03
 0.49780003E+02  0.55462E-03
 0.49830006E+02  0.44962E-03
 0.49880005E+02  0.29410E-03
 0.49930004E+02  0.32793E-03
 0.49980003E+02  0.29882E-03
 0.50030003E+02 -0.58278E-04
 0.50080006E+02 -0.24785E-03
 0.50130005E+02 -0.29639E-03
 0.50180004E+02 -0.58110E-03
 0.50230003E+02 -0.60410E-03
 0.50280003E+02 -0.37867E-03
 0.50330006E+02 -0.16806E-03
 0.50380005E+02 -0.56728E-04
 0.50430004E+02 -0.26668E-04
 0.50480003E+02  0.17281E-03
 0.50530003E+02  0.18795E-03
 0.50580006E+02  0.31444E-03
 0.50630005E+02  0.50139E-03
 0.50680004E+02  0.44959E-03
 0.50730003E+02  0.53836E-03
 0.50780003E+02  0.43847E-03
 0.50830006E+02  0.13347E-03
 0.50880005E+02 -0.13533E-03
 0.50930004E+02 -0.33510E-03
 0.50980003E+02 -0.44674E-03
 0.51030003E+02 -0.59720E-03
 0.51080006E+02 -0.73272E-03
 0.51130005E+02 -0.71992E-03
 0.51180004E+02 -0.43790E-03
 0.51230003E+02 -0.48676E-04
 0.51280003E+02  0.84371E-04
 0.51330006E+02  0.13423E-03
 0.51380005E+02  0.44833E-03
 0.51430004E+02  0.84631E-03
 0.51480003E+02  0.89456E-03
 0.51530003E+02  0.64806E-03
 0.51580006E+02  0.49316E-03
 0.51630005E+02  0.35745E-03
 0.51680004E+02  0.12742E-03
 0.51730003E+02 -0.12783E-03
 0.51780003E+02 -0.38498E-03
 0.51830006E+02 -0.54795E-03
 0.51880005E+02 -0.56138E-03
 0.51930004E+02 -0.51271E-03
 0.51980003E+02 -0.43006E-03
 0.52030003E+02 -0.45896E-03
 0.52080006E+02 -0.55399E-03
 0.52130005E+02 -0.31111E-03
 0.52180004E+02  0.43591E-04
 0.52230003E+02  0.28970E-03
 0.52280003E+02  0.40969E-03
 0.52330006E+02  0.34946E-03
 0.52380005E+02  0.35990E-03
 0.52430004E+02  0.41055E-03
 0.52480003E+02  0.40797E-03
 0.52530003E+02  0.28733E-03
 0.52580006E+02  0.12852E-03
 0.52630005E+02 -0.37233E-05
 0.52680004E+02 -0.19174E-03
 0.52730003E+02 -0.30444E-03
 0.52780003E+02 -0.40563E-03
 0.52830006E+02 -0.54695E-03
 0.52880005E+02 -0.57587E-03
 0.52930004E+02 -0.40661E-03
 0.52980003E+02 -0.13022E-03
 0.53030003E+02  0.19100E-03
 0.53080006E+02  0.51878E-03
 0.53130005E+02  0.59842E-03
 0.53180004E+02  0.47842E-03
 0.53230003E+02  0.43016E-03
 0.53280003E+02  0.41734E-03
 0.53330006E+02  0.32351E-03
 0.53380005E+02  0.98768E-04
 0.53430004E+02 -0.18894E-03
 0.53480003E+02 -0.40387E-03
 0.53530003E+02 -0.46819E-03
 0.53580006E+02 -0.29924E-03
 0.53630005E+02 -0.17685E-04
 0.53680004E+02  0.72672E-04
 0.53730003E+02 -0.59583E-04
 0.53780003E+02 -0.17778E-03
 0.53830006E+02 -0.30276E-03
 0.53880005E+02 -0.50954E-03
 0.53930004E+02 -0.50962E-03
 0.53980003E+02 -0.31378E-03
 0.54030003E+02 -0.15177E-03
 0.54080006E+02  0.12466E-03
 0.54130005E+02  0.43809E-03
 0.54180004E+02  0.58648E-03
 0.54230003E+02  0.59628E-03
 0.54280003E+02  0.48423E-03
 0.54330006E+02  0.38421E-03
 0.54380005E+02  0.34552E-03
 0.54430004E+02  0.33961E-03
 0.54480003E+02  0.26664E-03
 0.54530003E+02  0.68352E-04
 0.54580006E+02 -0.11022E-03
 0.54630005E+02 -0.26819E-03
 0.54680004E+02 -0.41263E-03
 0.54730003E+02 -0.50322E-03
 0.54780003E+02 -0.46522E-03
 0.54830006E+02 -0.28141E-03
 0.54880005E+02 -0.15243E-03
 0.54930004E+02 -0.89902E-04
 0.54980003E+02 -0.24608E-04
 0.55030003E+02 -0.24189E-04
 0.55080006E+02 -0.81954E-04
 0.55130005E+02 -0.86172E-04
 0.55180004E+02 -0.53287E-04
 0.55230003E+02 -0.10654E-03
 0.55280003E+02 -0.95553E-04
 0.55330006E+02  0.12119E-04
 0.55380005E+02  0.87975E-04
 0.55430004E+02  0.16140E-03
 0.55480003E+02  0.26576E-03
 0.55530003E+02  0.38300E-03
 0.55580006E+02  0.43623E-03
 0.55630005E+02  0.42305E-03
 0.55680004E+02  0.31329E-03
 0.55730003E+02  0.15660E-03
 0.55780003E+02  0.75576E-04
 0.55830006E+02 -0.34234E-04
 0.55880005E+02 -0.15889E-03
 0.55930004E+02 -0.22867E-03
 0.55980003E+02 -0.30375E-03
 0.56030003E+02 -0.33758E-03
 0.56080006E+02 -0.39394E-03
 0.56130005E+02 -0.48643E-03
 0.56180004E+02 -0.53703E-03
 0.56230003E+02 -0.46393E-03
 0.56280003E+02 -0.21079E-03
 0.56330006E+02  0.61847E-04
 0.56380005E+02  0.30156E-03
 0.56430004E+02  0.44885E-03
 0.56480003E+02  0.44165E-03
 0.56530003E+02  0.36595E-03
 0.56580006E+02  0.22625E-03
 0.56630005E+02  0.96574E-04
 0.56680004E+02  0.56357E-04
 0.56730003E+02 -0.23220E-04
 0.56780003E+02 -0.67287E-04
 0.56830006E+02  0.59037E-04
 0.56880005E+02  0.15179E-03
 0.56930004E+02  0.11511E-03
 0.56980003E+02  0.67622E-04
 0.57030003E+02  0.72910E-04
 0.57080006E+02  0.13612E-03
 0.57130005E+02  0.22601E-03
 0.57180004E+02  0.23830E-03
 0.57230003E+02  0.14000E-03
 0.57280003E+02  0.14616E-05
 0.57330006E+02 -0.15899E-03
 0.57380005E+02 -0.34274E-03
 0.57430004E+02 -0.42580E-03
 0.57480003E+02 -0.40299E-03
 0.57530003E+02 -0.36651E-03
 0.57580006E+02 -0.26388E-03
 0.57630005E+02 -0.16290E-03
 0.57680004E+02 -0.85509E-04
 0.57730003E+02 -0.58329E-05
 0.57780003E+02  0.50994E-04
 0.57830006E+02  0.12314E-03
 0.57880005E+02  0.24172E-03
 0.57930004E+02  0.37069E-03
 0.57980003E+02  0.33302E-03
 0.58030003E+02  0.23075E-03
 0.58080006E+02  0.23665E-03
 0.58130005E+02  0.11874E-03
 0.58180004E+02 -0.10211E-03
 0.58230003E+02 -0.19448E-03
 0.58280003E+02 -0.30250E-03
 0.58330006E+02 -0.45494E-03
 0.58380005E+02 -0.47880E-03
 0.58430004E+02 -0.40677E-03
 0.58480003E+02 -0.24542E-03
 0.58530003E+02 -0.53311E-04
 0.58580006E+02  0.79574E-04
 0.58630005E+02  0.28405E-03
 0.58680004E+02  0.42455E-03
 0.58730003E+02  0.37138E-03
 0.58780003E+02  0.31557E-03
 0.58830006E+02  0.21368E-03
 0.58880005E+02  0.11582E-03
 0.58930004E+02  0.67793E-04
 0.58980003E+02  0.65146E-04
 0.59030003E+02  0.23258E-03
 0.59080006E+02  0.37448E-03
 0.59130005E+02  0.35914E-03
 0.59180004E+02  0.20362E-03
 0.59230003E+02 -0.82007E-05
 0.59280003E+02 -0.16764E-03
 0.59330006E+02 -0.32912E-03
 0.59380005E+02 -0.50500E-03
 0.59430004E+02 -0.59040E-03
 0.59480003E+02 -0.56611E-03
 0.59530003E+02 -0.51388E-03
 0.59580006E+02 -0.35517E-03
 0.59630005E+02 -0.70997E-04
 0.59680004E+02  0.15958E-03
 0.59730003E+02  0.23666E-03
 0.59780003E+02  0.25572E-03
 0.59830006E+02  0.20303E-03
 0.59880005E+02  0.12307E-03
 0.59930004E+02  0.12064E-03
 0.59980003E+02  0.10385E-03
 0.60030003E+02  0.78323E-04
 0.60080006E+02  0.91092E-04
 0.60130005E+02  0.14754E-03
 0.60180004E+02  0.20342E-03
 0.60230003E+02  0.22936E-03
 0.60280003E+02  0.16103E-03
 0.60330006E+02  0.25350E-04
 0.60380005E+02 -0.82021E-04
 0.60430004E+02 -0.15208E-03
 0.60480003E+02 -0.14211E-03
 0.60530003E+02 -0.98735E-04
 0.60580006E+02 -0.63838E-04
 0.60630005E+02 -0.84088E-04
 0.60680004E+02 -0.13149E-03
 0.60730003E+02 -0.10974E-03
 0.60780003E+02 -0.42519E-04
 0.60830006E+02  0.35986E-04
 0.60880005E+02  0.78055E-04
 0.60930004E+02  0.39730E-04
 0.60980003E+02 -0.14177E-04
 0.61030003E+02  0.40566E-04
 0.61080006E+02  0.16190E-03
 0.61130005E+02  0.18673E-03
 0.61180004E+02  0.15152E-03
 0.61230003E+02  0.11394E-03
 0.61280003E+02  0.23661E-04
 0.61330006E+02 -0.92713E-04
 0.61380005E+02 -0.22015E-03
 0.61430004E+02 -0.26083E-03
 0.61480003E+02 -0.18826E-03
 0.61530003E+02 -0.16272E-03
 0.61580006E+02 -0.15871E-03
 0.61630005E+02 -0.93372E-04
 0.61680004E+02 -0.74110E-05
 0.61730003E+02  0.82688E-04
 0.61780003E+02  0.20130E-03
 0.61830006E+02  0.27663E-03
 0.61880005E+02  0.15153E-03
 0.61930004E+02 -0.44218E-04
 0.61980003E+02 -0.11240E-03
 0.62030003E+02 -0.14117E-03
 0.62080006E+02 -0.14024E-03
 0.62130005E+02 -0.69367E-04
 0.62180004E+02  0.23475E-06
 0.62230003E+02  0.73130E-05
 0.62280003E+02  0.34963E-04
 0.62330006E+02  0.10343E-03
 0.62380005E+02  0.82786E-04
 0.62430004E+02  0.67217E-04
 0.62480003E+02  0.96309E-04
 0.62530003E+02  0.24106E-04
 0.62580006E+02 -0.16742E-03
 0.62630005E+02 -0.28128E-03
 0.62680004E+02 -0.14422E-03
 0.62730003E+02  0.76832E-04
 0.62780003E+02  0.22602E-03
 0.62830006E+02  0.29192E-03
 0.62880005E+02  0.26725E-03
 0.62930004E+02  0.20962E-03
 0.62980003E+02  0.15016E-03
 0.63030003E+02  0.11851E-03
 0.63080006E+02  0.89757E-04
 0.63130005E+02  0.12860E-04
 0.63180004E+02 -0.75363E-04
 0.63230003E+02 -0.13032E-03
 0.63280003E+02 -0.16909E-03
 0.63330006E+02 -0.19716E-03
 0.63380005E+02 -0.17444E-03
 0.63430004E+02 -0.19335E-03
 0.63480003E+02 -0.21323E-03
 0.63530003E+02 -0.15211E-03
 0.63580006E+02 -0.12127E-03
 0.63630005E+02 -0.10203E-03
 0.63680004E+02 -0.93152E-04
 0.63730003E+02 -0.69026E-04
 0.63780003E+02  0.85542E-05
 0.63830006E+02  0.10254E-03
 0.63880005E+02  0.23121E-03
 0.63930004E+02  0.32096E-03
 0.63980003E+02  0.32932E-03
 0.64030006E+02  0.28063E-03
 0.64080002E+02  0.18911E-03
 0.64130005E+02  0.10758E-03
 0.64180008E+02  0.30386E-04
 0.64230003E+02 -0.65939E-04
 0.64280006E+02 -0.11932E-03
 0.64330002E+02 -0.10755E-03
 0.64380005E+02 -0.13134E-03
 0.64430008E+02 -0.22158E-03
 0.64480003E+02 -0.26864E-03
 0.64530006E+02 -0.21409E-03
 0.64580002E+02 -0.84701E-04
 0.64630005E+02  0.83443E-05
 0.64680008E+02 -0.15167E-04
 0.64730003E+02 -0.37763E-04
 0.64780006E+02 -0.23802E-04
 0.64830002E+02 -0.21905E-04
 0.64880005E+02  0.11674E-04
 0.64930008E+02  0.71980E-04
 0.64980003E+02  0.90435E-04
 0.65030006E+02  0.32892E-04
 0.65080002E+02 -0.42464E-04
 0.65130005E+02 -0.88095E-04
 0.65180008E+02 -0.62369E-04
 0.65230003E+02  0.33571E-04
 0.65280006E+02  0.15079E-03
 0.65330002E+02  0.23849E-03
 0.65380005E+02  0.20121E-03
 0.65430008E+02  0.10534E-03
 0.65480003E+02  0.87807E-05
 0.65530006E+02 -0.10354E-03
 0.65580002E+02 -0.10288E-03
 0.65630005E+02 -0.23246E-04
 0.65680008E+02  0.21372E-04
 0.65730003E+02  0.94495E-04
 0.65780006E+02  0.15721E-03
 0.65830002E+02  0.14564E-03
 0.65880005E+02  0.90072E-04
 0.65930008E+02  0.24895E-04
 0.65980003E+02 -0.32010E-05
 0.66030006E+02 -0.31894E-04
 0.66080002E+02 -0.45619E-04
 0.66130005E+02 -0.28019E-04
 0.66180008E+02 -0.70498E-04
 0.66230003E+02 -0.14513E-03
 0.66280006E+02 -0.18086E-03
 0.66330002E+02 -0.14681E-03
 0.66380005E+02 -0.55565E-04
 0.66430008E+02 -0.73454E-05
 0.66480003E+02 -0.53546E-04
 0.66530006E+02 -0.12840E-03
 0.66580002E+02 -0.14038E-03
 0.66630005E+02 -0.96801E-04
 0.66680008E+02 -0.37632E-04
 0.66730003E+02 -0.80768E-05
 0.66780006E+02 -0.24428E-04
 0.66830002E+02 -0.42034E-05
 0.66880005E+02  0.56299E-04
 0.66930008E+02  0.11059E-03
 0.66980003E+02  0.15951E-03
 0.67030006E+02  0.19577E-03
 0.67080002E+02  0.22748E-03
 0.67130005E+02  0.23062E-03
 0.67180008E+02  0.18764E-03
 0.67230003E+02  0.14315E-03
 0.67280006E+02  0.97087E-04
 0.67330002E+02  0.61491E-04
 0.67380005E+02  0.24346E-04
 0.67430008E+02 -0.41572E-04
 0.67480003E+02 -0.11979E-03
 0.67530006E+02 -0.18969E-03
 0.67580002E+02 -0.18707E-03
 0.67630005E+02 -0.13983E-03
 0.67680008E+02 -0.10480E-03
 0.67730003E+02 -0.75848E-04
 0.67780006E+02 -0.40889E-04
 0.67830002E+02  0.12496E-04
 0.67880005E+02  0.38577E-04
 0.67930008E+02 -0.10994E-04
 0.67980003E+02 -0.10075E-03
 0.68030006E+02 -0.14764E-03
 0.68080002E+02 -0.13522E-03
 0.68130005E+02 -0.10828E-03
 0.68180008E+02 -0.75078E-04
 0.68230003E+02 -0.21897E-04
 0.68280006E+02  0.48254E-04
 0.68330002E+02  0.99435E-04
 0.68380005E+02  0.99267E-04
 0.68430008E+02  0.80175E-04
 0.68480003E+02  0.91335E-04
 0.68530006E+02  0.13828E-03
 0.68580002E+02  0.14813E-03
 0.68630005E+02  0.99339E-04
 0.68680008E+02  0.58732E-04
 0.68730003E+02  0.38493E-04
 0.68780006E+02  0.40145E-04
 0.68830002E+02  0.36351E-04
 0.68880005E+02 -0.15208E-04
 0.68930008E+02 -0.72433E-04
 0.68980003E+02 -0.10657E-03
 0.69030006E+02 -0.12461E-03
 0.69080002E+02 -0.99269E-04
 0.69130005E+02 -0.85198E-04
 0.69180008E+02 -0.65189E-04
 0.69230003E+02  0.47614E-05
 0.69280006E+02  0.18331E-04
 0.69330002E+02  0.34709E-05
 0.69380005E+02 -0.13070E-04
 0.69430008E+02 -0.40580E-04
 0.69480003E+02 -0.66246E-04
 0.69530006E+02 -0.87839E-04
 0.69580002E+02 -0.67481E-04
 0.69630005E+02 -0.37542E-04
 0.69680008E+02  0.85030E-05
 0.69730003E+02  0.57906E-04
 0.69780006E+02  0.98133E-04
 0.69830002E+02  0.16248E-03
 0.69880005E+02  0.22299E-03
 0.69930008E+02  0.27351E-03
 0.69980003E+02  0.30095E-03
 0.70030006E+02  0.25986E-03
 0.70080002E+02  0.15580E-03
 0.70130005E+02  0.12725E-04
 0.70180008E+02 -0.10466E-03
 0.70230003E+02 -0.15220E-03
 0.70280006E+02 -0.18680E-03
 0.70330002E+02 -0.24489E-03
 0.70380005E+02 -0.30081E-03
 0.70430008E+02 -0.29930E-03
 0.70480003E+02 -0.24501E-03
 0.70530006E+02 -0.16856E-03
 0.70580002E+02 -0.10054E-03
 0.70630005E+02 -0.47042E-04
 0.70680008E+02  0.33045E-04
 0.70730003E+02  0.93423E-04
 0.70780006E+02  0.11605E-03
 0.70830002E+02  0.13819E-03
 0.70880005E+02  0.15786E-03
 0.70930008E+02  0.14288E-03
 0.70980003E+02  0.86073E-04
 0.71030006E+02  0.45854E-04
 0.71080002E+02  0.44094E-04
 0.71130005E+02  0.43113E-04
 0.71180008E+02  0.27389E-05
 0.71230003E+02 -0.38636E-04
 0.71280006E+02 -0.36642E-04
 0.71330002E+02 -0.70321E-05
 0.71380005E+02  0.30189E-04
 0.71430008E+02  0.27855E-04
 0.71480003E+02  0.98731E-05
 0.71530006E+02  0.18368E-04
 0.71580002E+02 -0.93798E-05
 0.71630005E+02 -0.66368E-04
 0.71680008E+02 -0.96111E-04
 0.71730003E+02 -0.11318E-03
 0.71780006E+02 -0.98683E-04
 0.71830002E+02 -0.24234E-04
 0.71880005E+02  0.44534E-04
 0.71930008E+02  0.66190E-04
 0.71980003E+02  0.81384E-04
 0.72030006E+02  0.10356E-03
 0.72080002E+02  0.10767E-03
 0.72130005E+02  0.10871E-03
 0.72180008E+02  0.96586E-04
 0.72230003E+02  0.47265E-04
 0.72280006E+02  0.36045E-05
 0.72330002E+02 -0.64245E-04
 0.72380005E+02 -0.12690E-03
 0.72430008E+02 -0.12586E-03
 0.72480003E+02 -0.11217E-03
 0.72530006E+02 -0.72450E-04
 0.72580002E+02 -0.13281E-04
 0.72630005E+02  0.17279E-04
 0.72680008E+02  0.26487E-04
 0.72730003E+02  0.49532E-04
 0.72780006E+02  0.90178E-04
 0.72830002E+02  0.91044E-04
 0.72880005E+02  0.37408E-04
 0.72930008E+02 -0.28121E-04
 0.72980003E+02 -0.61397E-04
 0.73030006E+02 -0.49621E-04
 0.73080002E+02 -0.28965E-04
 0.73130005E+02 -0.26457E-04
 0.73180008E+02 -0.63018E-04
 0.73230003E+02 -0.98485E-04
 0.73280006E+02 -0.74254E-04
 0.73330002E+02 -0.14892E-04
 0.73380005E+02  0.55084E-04
 0.73430008E+02  0.14775E-03
 0.73480003E+02  0.21487E-03
 0.73530006E+02  0.19889E-03
 0.73580002E+02  0.15393E-03
 0.73630005E+02  0.85560E-04
 0.73680008E+02  0.84449E-05
 0.73730003E+02 -0.70214E-04
 0.73780006E+02 -0.19065E-03
 0.73830002E+02 -0.26626E-03
 0.73880005E+02 -0.24708E-03
 0.73930008E+02 -0.16372E-03
 0.73980003E+02 -0.76716E-04
 0.74030006E+02 -0.60420E-05
 0.74080002E+02  0.23789E-04
 0.74130005E+02  0.12703E-04
 0.74180008E+02  0.35378E-04
 0.74230003E+02  0.58856E-04
 0.74280006E+02  0.66587E-04
 0.74330002E+02  0.56132E-04
 0.74380005E+02  0.44109E-04
 0.74430008E+02  0.36193E-04
 0.74480003E+02  0.40370E-06
 0.74530006E+02 -0.13264E-04
 0.74580002E+02 -0.16250E-04
 0.74630005E+02 -0.30561E-04
 0.74680008E+02 -0.27306E-04
 0.74730003E+02 -0.71288E-05
 0.74780006E+02  0.58803E-05
 0.74830002E+02  0.56414E-05
 0.74880005E+02  0.33236E-04
 0.74930008E+02  0.94630E-04
 0.74980003E+02  0.15449E-03
 0.75030006E+02  0.19353E-03
 0.75080002E+02  0.17639E-03
 0.75130005E+02  0.10513E-03
 0.75180008E+02  0.28369E-04
 0.75230003E+02 -0.26411E-04
 0.75280006E+02 -0.75270E-04
 0.75330002E+02 -0.14332E-03
 0.75380005E+02 -0.18325E-03
 0.75430008E+02 -0.15347E-03
 0.75480003E+02 -0.82438E-04
 0.75530006E+02 -0.41647E-04
 0.75580002E+02 -0.40290E-04
 0.75630005E+02 -0.41402E-04
 0.75680008E+02 -0.41533E-04
 0.75730003E+02 -0.37320E-04
 0.75780006E+02 -0.46644E-04
 0.75830002E+02 -0.56632E-04
 0.75880005E+02 -0.55919E-04
 0.75930008E+02 -0.17401E-04
 0.75980003E+02  0.41903E-04
 0.76030006E+02  0.59311E-04
 0.76080002E+02  0.74278E-04
 0.76130005E+02  0.91682E-04
 0.76180008E+02  0.90475E-04
 0.76230003E+02  0.68214E-04
 0.76280006E+02  0.42665E-04
 0.76330002E+02  0.38613E-04
 0.76380005E+02  0.28492E-04
 0.76430008E+02  0.18847E-04
 0.76480003E+02  0.22851E-04
 0.76530006E+02  0.43724E-04
 0.76580002E+02  0.61868E-04
 0.76630005E+02  0.38079E-04
 0.76680008E+02 -0.11506E-04
 0.76730003E+02 -0.61142E-04
 0.76780006E+02 -0.98692E-04
 0.76830002E+02 -0.10766E-03
 0.76880005E+02 -0.89725E-04
 0.76930008E+02 -0.66715E-04
 0.76980003E+02 -0.32719E-04
 0.77030006E+02 -0.88923E-05
 0.77080002E+02 -0.22634E-05
 0.77130005E+02  0.36680E-04
 0.77180008E+02  0.90695E-04
 0.77230003E+02  0.12029E-03
 0.77280006E+02  0.13368E-03
 0.77330002E+02  0.14435E-03
 0.77380005E+02  0.12092E-03
 0.77430008E+02  0.53909E-04
 0.77480003E+02 -0.30100E-04
 0.77530006E+02 -0.10641E-03
 0.77580002E+02 -0.14918E-03
 0.77630005E+02 -0.17307E-03
 0.77680008E+02 -0.19056E-03
 0.77730003E+02 -0.17853E-03
 0.77780006E+02 -0.13738E-03
 0.77830002E+02 -0.11000E-03
 0.77880005E+02 -0.82172E-04
 0.77930008E+02 -0.15784E-04
 0.77980003E+02  0.67737E-04
 0.78030006E+02  0.13441E-03
 0.78080002E+02  0.15877E-03
 0.78130005E+02  0.14988E-03
 0.78180008E+02  0.12989E-03
 0.78230003E+02  0.12272E-03
 0.78280006E+02  0.11827E-03
 0.78330002E+02  0.93349E-04
 0.78380005E+02  0.92318E-04
 0.78430008E+02  0.96378E-04
 0.78480003E+02  0.67384E-04
 0.78530006E+02  0.24917E-04
 0.78580002E+02 -0.36572E-04
 0.78630005E+02 -0.10706E-03
 0.78680008E+02 -0.17554E-03
 0.78730003E+02 -0.22254E-03
 0.78780006E+02 -0.22087E-03
 0.78830002E+02 -0.18773E-03
 0.78880005E+02 -0.13325E-03
 0.78930008E+02 -0.50686E-04
 0.78980003E+02  0.28674E-04
 0.79030006E+02  0.92319E-04
 0.79080002E+02  0.13828E-03
 0.79130005E+02  0.14761E-03
 0.79180008E+02  0.13279E-03
 0.79230003E+02  0.97290E-04
 0.79280006E+02  0.51664E-04
 0.79330002E+02  0.23972E-05
 0.79380005E+02 -0.48012E-04
 0.79430008E+02 -0.96384E-04
 0.79480003E+02 -0.11151E-03
 0.79530006E+02 -0.40265E-04
 0.79580002E+02  0.65063E-04
 0.79630005E+02  0.13261E-03
 0.79680008E+02  0.13937E-03
 0.79730003E+02  0.80094E-04
 0.79780006E+02 -0.75777E-05
 0.79830002E+02 -0.72628E-04
 0.79880005E+02 -0.85018E-04
 0.79930008E+02 -0.91486E-04
 0.79980003E+02 -0.12533E-03
 0.80030006E+02 -0.12383E-03
 0.80080002E+02 -0.62889E-04
 0.80130005E+02  0.31511E-04
 0.80180008E+02  0.12007E-03
 0.80230003E+02  0.17670E-03
 0.80280006E+02  0.17390E-03
 0.80330002E+02  0.10514E-03
 0.80380005E+02  0.22481E-04
 0.80430008E+02 -0.44901E-04
 0.80480003E+02 -0.75040E-04
 0.80530006E+02 -0.83783E-04
 0.80580002E+02 -0.93450E-04
 0.80630005E+02 -0.81707E-04
 0.80680008E+02 -0.51493E-04
 0.80730003E+02 -0.22122E-04
 0.80780006E+02 -0.47866E-05
 0.80830002E+02  0.15284E-04
 0.80880005E+02  0.52344E-04
 0.80930008E+02  0.69716E-04
 0.80980003E+02  0.61736E-04
 0.81030006E+02  0.52758E-04
 0.81080002E+02  0.32869E-04
 0.81130005E+02  0.15444E-04
 0.81180008E+02 -0.69091E-05
 0.81230003E+02 -0.48809E-04
 0.81280006E+02 -0.85267E-04
 0.81330002E+02 -0.10126E-03
 0.81380005E+02 -0.91470E-04
 0.81430008E+02 -0.79221E-04
 0.81480003E+02 -0.69665E-04
 0.81530006E+02 -0.57131E-04
 0.81580002E+02 -0.54160E-04
 0.81630005E+02 -0.34894E-04
 0.81680008E+02  0.11860E-04
 0.81730003E+02  0.69996E-04
 0.81780006E+02  0.11373E-03
 0.81830002E+02  0.13218E-03
 0.81880005E+02  0.13568E-03
 0.81930008E+02  0.12840E-03
 0.81980003E+02  0.12708E-03
 0.82030006E+02  0.11102E-03
 0.82080002E+02  0.62554E-04
 0.82130005E+02 -0.40791E-06
 0.82180008E+02 -0.55067E-04
 0.82230003E+02 -0.93533E-04
 0.82280006E+02 -0.12770E-03
 0.82330002E+02 -0.12552E-03
 0.82380005E+02 -0.88017E-04
 0.82430008E+02 -0.68694E-04
 0.82480003E+02 -0.78142E-04
 0.82530006E+02 -0.93338E-04
 0.82580002E+02 -0.87886E-04
 0.82630005E+02 -0.35084E-04
 0.82680008E+02  0.43334E-04
 0.82730003E+02  0.92540E-04
 0.82780006E+02  0.11597E-03
 0.82830002E+02  0.11873E-03
 0.82880005E+02  0.97381E-04
 0.82930008E+02  0.76473E-04
 0.82980003E+02  0.53988E-04
 0.83030006E+02  0.16863E-04
 0.83080002E+02 -0.25957E-04
 0.83130005E+02 -0.49821E-04
 0.83180008E+02 -0.31888E-04
 0.83230003E+02  0.17168E-04
 0.83280006E+02  0.53531E-04
 0.83330002E+02  0.41554E-04
 0.83380005E+02  0.24769E-05
 0.83430008E+02 -0.22657E-04
 0.83480003E+02 -0.38396E-04
 0.83530006E+02 -0.65110E-04
 0.83580002E+02 -0.94802E-04
 0.83630005E+02 -0.87056E-04
 0.83680008E+02 -0.43381E-04
 0.83730003E+02  0.37691E-05
 0.83780006E+02  0.32806E-04
 0.83830002E+02  0.27277E-04
 0.83880005E+02  0.87346E-05
 0.83930008E+02 -0.22227E-04
 0.83980003E+02 -0.60326E-04
 0.84030006E+02 -0.81791E-04
 0.84080002E+02 -0.77411E-04
 0.84130005E+02 -0.31289E-04
 0.84180008E+02  0.32463E-04
 0.84230003E+02  0.82663E-04
 0.84280006E+02  0.11035E-03
 0.84330002E+02  0.10590E-03
 0.84380005E+02  0.10219E-03
 0.84430008E+02  0.11740E-03
 0.84480003E+02  0.91965E-04
 0.84530006E+02  0.21931E-04
 0.84580002E+02 -0.42329E-04
 0.84630005E+02 -0.86836E-04
 0.84680008E+02 -0.95898E-04
 0.84730003E+02 -0.73265E-04
 0.84780006E+02 -0.41174E-04
 0.84830002E+02 -0.14395E-04
 0.84880005E+02 -0.39638E-05
 0.84930008E+02  0.34440E-06
 0.84980003E+02  0.76484E-05
 0.85030006E+02  0.20068E-04
 0.85080002E+02  0.28273E-04
 0.85130005E+02  0.24727E-04
 0.85180008E+02  0.17777E-04
 0.85230003E+02 -0.36620E-05
 0.85280006E+02 -0.29420E-04
 0.85330002E+02 -0.30557E-04
 0.85380005E+02 -0.17177E-04
 0.85430008E+02 -0.12075E-04
 0.85480003E+02 -0.17211E-04
 0.85530006E+02 -0.17615E-04
 0.85580002E+02 -0.15408E-05
 0.85630005E+02  0.24873E-04
 0.85680008E+02  0.40213E-04
 0.85730003E+02  0.49513E-04
 0.85780006E+02  0.61070E-04
 0.85830002E+02  0.60075E-04
 0.85880005E+02  0.63164E-04
 0.85930008E+02  0.59213E-04
 0.85980003E+02  0.19535E-04
 0.86030006E+02 -0.33171E-04
 0.86080002E+02 -0.77958E-04
 0.86130005E+02 -0.11312E-03
 0.86180008E+02 -0.12752E-03
 0.86230003E+02 -0.11883E-03
 0.86280006E+02 -0.11175E-03
 0.86330002E+02 -0.87945E-04
 0.86380005E+02 -0.33343E-04
 0.86430008E+02  0.22650E-04
 0.86480003E+02  0.69936E-04
 0.86530006E+02  0.99486E-04
 0.86580002E+02  0.10862E-03
 0.86630005E+02  0.96791E-04
 0.86680008E+02  0.72157E-04
 0.86730003E+02  0.46474E-04
 0.86780006E+02  0.17123E-04
 0.86830002E+02 -0.95937E-05
 0.86880005E+02 -0.33430E-04
 0.86930008E+02 -0.56954E-04
 0.86980003E+02 -0.66887E-04
 0.87030006E+02 -0.39707E-04
 0.87080002E+02  0.11977E-04
 0.87130005E+02  0.45616E-04
 0.87180008E+02  0.53669E-04
 0.87230003E+02  0.50108E-04
 0.87280006E+02  0.55851E-04
 0.87330002E+02  0.64952E-04
 0.87380005E+02  0.39018E-04
 0.87430008E+02 -0.11672E-04
 0.87480003E+02 -0.53461E-04
 0.87530006E+02 -0.67834E-04
 0.87580002E+02 -0.57587E-04
 0.87630005E+02 -0.47142E-04
 0.87680008E+02 -0.36897E-04
 0.87730003E+02 -0.30691E-04
 0.87780006E+02 -0.25926E-04
 0.87830002E+02 -0.16691E-04
 0.87880005E+02 -0.14533E-04
 0.87930008E+02 -0.14230E-04
 0.87980003E+02 -0.31242E-04
 0.88030006E+02 -0.63764E-04
 0.88080002E+02 -0.76430E-04
 0.88130005E+02 -0.64193E-04
 0.88180008E+02 -0.30942E-04
 0.88230003E+02  0.26078E-05
 0.88280006E+02  0.13895E-04
 0.88330002E+02  0.16756E-04
 0.88380005E+02  0.31244E-04
 0.88430008E+02  0.65693E-04
 0.88480003E+02  0.10699E-03
 0.88530006E+02  0.13199E-03
 0.88580002E+02  0.13292E-03
 0.88630005E+02  0.10984E-03
 0.88680008E+02  0.78480E-04
 0.88730003E+02  0.60676E-04
 0.88780006E+02  0.29475E-04
 0.88830002E+02 -0.31955E-04
 0.88880005E+02 -0.86884E-04
 0.88930008E+02 -0.11396E-03
 0.88980003E+02 -0.10577E-03
 0.89030006E+02 -0.70811E-04
 0.89080002E+02 -0.39196E-04
 0.89130005E+02 -0.22228E-04
 0.89180008E+02 -0.13262E-04
 0.89230003E+02 -0.75614E-05
 0.89280006E+02 -0.32318E-05
 0.89330002E+02  0.20118E-05
 0.89380005E+02  0.18940E-04
 0.89430008E+02  0.46375E-04
 0.89480003E+02  0.41005E-04
 0.89530006E+02  0.20853E-05
 0.89580002E+02 -0.19409E-04
 0.89630005E+02 -0.14586E-04
 0.89680008E+02  0.63120E-05
 0.89730003E+02  0.18831E-04
 0.89780006E+02  0.20689E-04
 0.89830002E+02  0.23848E-04
 0.89880005E+02  0.26630E-04
 0.89930008E+02  0.44795E-04
 0.89980003E+02  0.55755E-04
 0.90030006E+02  0.36062E-04
 0.90080002E+02 -0.40372E-05
 0.90130005E+02 -0.44338E-04
 0.90180008E+02 -0.61464E-04
 0.90230003E+02 -0.53967E-04
 0.90280006E+02 -0.42049E-04
 0.90330002E+02 -0.43306E-04
 0.90380005E+02 -0.58802E-04
 0.90430008E+02 -0.69158E-04
 0.90480003E+02 -0.57303E-04
 0.90530006E+02 -0.36755E-04
 0.90580002E+02 -0.11735E-05
 0.90630005E+02  0.43313E-04
 0.90680008E+02  0.62512E-04
 0.90730003E+02  0.60042E-04
 0.90780006E+02  0.46739E-04
 0.90830002E+02  0.33069E-04
 0.90880005E+02  0.28094E-04
 0.90930008E+02  0.24804E-04
 0.90980003E+02  0.27934E-04
 0.91030006E+02  0.36386E-04
 0.91080002E+02  0.30833E-04
 0.91130005E+02  0.16106E-04
 0.91180008E+02  0.13904E-04
 0.91230003E+02  0.22788E-04
 0.91280006E+02  0.16975E-04
 0.91330002E+02 -0.27620E-05
 0.91380005E+02 -0.12292E-04
 0.91430008E+02 -0.20719E-04
 0.91480003E+02 -0.18484E-04
 0.91530006E+02 -0.12229E-05
 0.91580002E+02 -0.41749E-05
 0.91630005E+02 -0.15963E-04
 0.91680008E+02 -0.24740E-04
 0.91730003E+02 -0.38759E-04
 0.91780006E+02 -0.43195E-04
 0.91830002E+02 -0.45171E-04
 0.91880005E+02 -0.52281E-04
 0.91930008E+02 -0.54797E-04
 0.91980003E+02 -0.54166E-04
 0.92030006E+02 -0.45797E-04
 0.92080002E+02 -0.19207E-04
 0.92130005E+02  0.78636E-05
 0.92180008E+02  0.12513E-04
 0.92230003E+02  0.18118E-04
 0.92280006E+02  0.34762E-04
 0.92330002E+02  0.44217E-04
 0.92380005E+02  0.32185E-04
 0.92430008E+02 -0.30668E-05
 0.92480003E+02 -0.16462E-04
 0.92530006E+02  0.64258E-05
 0.92580002E+02  0.32169E-04
 0.92630005E+02  0.50844E-04
 0.92680008E+02  0.60119E-04
 0.92730003E+02  0.62103E-04
 0.92780006E+02  0.53396E-04
 0.92830002E+02  0.23151E-04
 0.92880005E+02 -0.83403E-05
 0.92930008E+02 -0.21011E-04
 0.92980003E+02 -0.24573E-04
 0.93030006E+02 -0.21038E-04
 0.93080002E+02 -0.89720E-05
 0.93130005E+02  0.13434E-05
 0.93180008E+02  0.13094E-04
 0.93230003E+02  0.17746E-04
 0.93280006E+02  0.17965E-05
 0.93330002E+02 -0.17738E-04
 0.93380005E+02 -0.27220E-04
 0.93430008E+02 -0.41018E-04
 0.93480003E+02 -0.67285E-04
 0.93530006E+02 -0.82210E-04
 0.93580002E+02 -0.81367E-04
 0.93630005E+02 -0.77596E-04
 0.93680008E+02 -0.55752E-04
 0.93730003E+02 -0.72706E-05
 0.93780006E+02  0.42425E-04
 0.93830002E+02  0.77428E-04
 0.93880005E+02  0.93510E-04
 0.93930008E+02  0.83277E-04
 0.93980003E+02  0.59482E-04
 0.94030006E+02  0.35211E-04
 0.94080002E+02  0.29480E-04
 0.94130005E+02  0.48083E-04
 0.94180008E+02  0.61897E-04
 0.94230003E+02  0.53563E-04
 0.94280006E+02  0.28841E-04
 0.94330002E+02  0.72128E-05
 0.94380005E+02 -0.10169E-04
 0.94430008E+02 -0.32126E-04
 0.94480003E+02 -0.48867E-04
 0.94530006E+02 -0.53716E-04
 0.94580002E+02 -0.51686E-04
 0.94630005E+02 -0.54390E-04
 0.94680008E+02 -0.62028E-04
 0.94730003E+02 -0.59341E-04
 0.94780006E+02 -0.41828E-04
 0.94830002E+02 -0.29031E-04
 0.94880005E+02 -0.20599E-04
 0.94930008E+02 -0.43691E-05
 0.94980003E+02  0.16772E-04
 0.95030006E+02  0.36036E-04
 0.95080002E+02  0.30829E-04
 0.95130005E+02  0.47728E-05
 0.95180008E+02 -0.21103E-04
 0.95230003E+02 -0.28414E-04
 0.95280006E+02 -0.22996E-05
 0.95330002E+02  0.37044E-04
 0.95380005E+02  0.58494E-04
 0.95430008E+02  0.54399E-04
 0.95480003E+02  0.44587E-04
 0.95530006E+02  0.36178E-04
 0.95580002E+02  0.32088E-04
 0.95630005E+02  0.38927E-04
 0.95680008E+02  0.38657E-04
 0.95730003E+02  0.21038E-04
 0.95780006E+02 -0.88889E-05
 0.95830002E+02 -0.32119E-04
 0.95880005E+02 -0.33158E-04
 0.95930008E+02 -0.28118E-04
 0.95980003E+02 -0.27687E-04
 0.96030006E+02 -0.38596E-04
 0.96080002E+02 -0.57982E-04
 0.96130005E+02 -0.54552E-04
 0.96180008E+02 -0.34805E-04
 0.96230003E+02 -0.20807E-04
 0.96280006E+02 -0.53306E-05
 0.96330002E+02  0.77764E-05
 0.96380005E+02  0.16606E-04
 0.96430008E+02  0.14348E-04
 0.96480003E+02  0.10511E-04
 0.96530006E+02  0.25897E-04
 0.96580002E+02  0.37109E-04
 0.96630005E+02  0.41164E-04
 0.96680008E+02  0.44135E-04
 0.96730003E+02  0.42226E-04
 0.96780006E+02  0.35142E-04
 0.96830002E+02  0.15257E-04
 0.96880005E+02 -0.46487E-05
 0.96930008E+02 -0.19876E-04
 0.96980003E+02 -0.24449E-04
 0.97030006E+02 -0.22858E-04
 0.97080002E+02 -0.28835E-04
 0.97130005E+02 -0.36143E-04
 0.97180008E+02 -0.44338E-04
 0.97230003E+02 -0.47856E-04
 0.97280006E+02 -0.42415E-04
 0.97330002E+02 -0.34428E-04
 0.97380005E+02 -0.29125E-04
 0.97430008E+02 -0.20242E-04
 0.97480003E+02  0.97491E-06
 0.97530006E+02  0.34546E-04
 0.97580002E+02  0.65902E-04
 0.97630005E+02  0.71360E-04
 0.97680008E+02  0.51912E-04
 0.97730003E+02  0.31511E-04
 0.97780006E+02  0.19572E-04
 0.97830002E+02  0.56829E-06
 0.97880005E+02 -0.26826E-04
 0.97930008E+02 -0.50677E-04
 0.97980003E+02 -0.60336E-04
 0.98030006E+02 -0.53815E-04
 0.98080002E+02 -0.40707E-04
 0.98130005E+02 -0.16710E-04
 0.98180008E+02  0.18879E-04
 0.98230003E+02  0.53858E-04
 0.98280006E+02  0.72522E-04
 0.98330002E+02  0.77456E-04
 0.98380005E+02  0.79103E-04
 0.98430008E+02  0.72746E-04
 0.98480003E+02  0.55015E-04
 0.98530006E+02  0.28382E-04
 0.98580002E+02  0.36310E-05
 0.98630005E+02 -0.28465E-04
 0.98680008E+02 -0.69481E-04
 0.98730003E+02 -0.92637E-04
 0.98780006E+02 -0.96050E-04
 0.98830002E+02 -0.89460E-04
 0.98880005E+02 -0.77609E-04
 0.98930008E+02 -0.60595E-04
 0.98980003E+02 -0.33004E-04
 0.99030006E+02 -0.59244E-05
 0.99080002E+02  0.17649E-04
 0.99130005E+02  0.49851E-04
 0.99180008E+02  0.80030E-04
 0.99230003E+02  0.92079E-04
 0.99280006E+02  0.86699E-04
 0.99330002E+02  0.74280E-04
 0.99380005E+02  0.58390E-04
 0.99430008E+02  0.34634E-04
 0.99480003E+02  0.10215E-04
 0.99530006E+02 -0.99788E-05
 0.99580002E+02 -0.29101E-04
 0.99630005E+02 -0.46416E-04
 0.99680008E+02 -0.60801E-04
 0.99730003E+02 -0.66534E-04
 0.99780006E+02 -0.56799E-04
 0.99830002E+02 -0.46282E-04
 0.99880005E+02 -0.48736E-04
 0.99930008E+02 -0.45415E-04
 0.99980003E+02 -0.30014E-04
