-0.19996643E-01  0.15873E-05
 0.30003358E-01  0.90712E-06
 0.80003358E-01  0.39941E-06
 0.13000336E+00  0.44505E-07
 0.18000336E+00 -0.19534E-06
 0.23000336E+00 -0.33955E-06
 0.28000337E+00 -0.40593E-06
 0.33000335E+00 -0.41426E-06
 0.38000336E+00 -0.38679E-06
 0.43000337E+00 -0.34464E-06
 0.48000336E+00 -0.28268E-06
 0.53000337E+00 -0.21181E-06
 0.58000338E+00 -0.15543E-06
 0.63000339E+00 -0.11099E-06
 0.68000335E+00 -0.74269E-07
 0.73000336E+00 -0.42884E-07
 0.78000337E+00 -0.22582E-07
 0.83000338E+00 -0.10787E-07
 0.88000339E+00 -0.10304E-07
 0.93000335E+00 -0.11972E-07
 0.98000336E+00  0.77813E-09
 0.10300034E+01  0.51522E-08
 0.10800034E+01  0.16993E-08
 0.11300033E+01 -0.15867E-08
 0.11800034E+01 -0.12216E-07
 0.12300034E+01 -0.14546E-07
 0.12800034E+01 -0.97283E-08
 0.13300034E+01 -0.72596E-08
 0.13800033E+01 -0.10470E-07
 0.14300034E+01 -0.18467E-07
 0.14800034E+01 -0.23282E-07
 0.15300034E+01 -0.23564E-07
 0.15800034E+01 -0.22320E-07
 0.16300033E+01 -0.18326E-07
 0.16800034E+01 -0.12890E-07
 0.17300034E+01 -0.48612E-08
 0.17800034E+01  0.86268E-08
 0.18300034E+01  0.10272E-07
 0.18800033E+01  0.91001E-08
 0.19300034E+01  0.10890E-07
 0.19800034E+01  0.88253E-08
 0.20300033E+01  0.14974E-07
 0.20800035E+01  0.13507E-07
 0.21300035E+01  0.14286E-07
 0.21800034E+01  0.18314E-07
 0.22300034E+01  0.24802E-07
 0.22800033E+01  0.37725E-07
 0.23300035E+01  0.46022E-07
 0.23800035E+01  0.57230E-07
 0.24300034E+01  0.55146E-07
 0.24800034E+01  0.48444E-07
 0.25300033E+01  0.37916E-07
 0.25800035E+01  0.25313E-07
 0.26300035E+01  0.14027E-07
 0.26800034E+01  0.52100E-10
 0.27300034E+01 -0.26556E-09
 0.27800033E+01 -0.41882E-08
 0.28300035E+01 -0.77704E-08
 0.28800035E+01 -0.15522E-07
 0.29300034E+01 -0.26493E-07
 0.29800034E+01 -0.27661E-07
 0.30300033E+01 -0.27590E-07
 0.30800035E+01 -0.27433E-07
 0.31300035E+01 -0.25362E-07
 0.31800034E+01 -0.12645E-07
 0.32300034E+01 -0.10253E-07
 0.32800033E+01 -0.95311E-08
 0.33300035E+01  0.31521E-08
 0.33800035E+01 -0.22918E-08
 0.34300034E+01 -0.14950E-07
 0.34800034E+01 -0.10646E-07
 0.35300033E+01 -0.77322E-08
 0.35800035E+01 -0.82811E-08
 0.36300035E+01 -0.46951E-08
 0.36800034E+01 -0.85637E-08
 0.37300034E+01 -0.66164E-08
 0.37800033E+01 -0.15632E-08
 0.38300035E+01  0.18032E-08
 0.38800035E+01  0.54539E-08
 0.39300034E+01  0.12500E-07
 0.39800034E+01  0.18353E-07
 0.40300035E+01  0.13385E-07
 0.40800033E+01  0.11695E-07
 0.41300035E+01  0.15049E-07
 0.41800036E+01  0.17627E-07
 0.42300034E+01  0.19735E-07
 0.42800035E+01  0.18332E-07
 0.43300033E+01  0.14557E-07
 0.43800035E+01  0.14707E-07
 0.44300036E+01  0.13622E-07
 0.44800034E+01  0.12066E-07
 0.45300035E+01  0.12669E-07
 0.45800033E+01  0.89998E-08
 0.46300035E+01  0.89625E-08
 0.46800036E+01  0.65821E-08
 0.47300034E+01  0.52280E-08
 0.47800035E+01  0.48747E-08
 0.48300033E+01 -0.36919E-08
 0.48800035E+01 -0.23437E-08
 0.49300036E+01 -0.47976E-08
 0.49800034E+01 -0.97261E-08
 0.50300035E+01 -0.15145E-07
 0.50800033E+01 -0.24183E-07
 0.51300035E+01 -0.22894E-07
 0.51800036E+01 -0.33553E-07
 0.52300034E+01 -0.39798E-07
 0.52800035E+01 -0.37333E-07
 0.53300033E+01 -0.41169E-07
 0.53800035E+01 -0.38685E-07
 0.54300036E+01 -0.42868E-07
 0.54800034E+01 -0.46081E-07
 0.55300035E+01 -0.40700E-07
 0.55800033E+01 -0.32109E-07
 0.56300035E+01 -0.20513E-07
 0.56800036E+01 -0.17506E-07
 0.57300034E+01 -0.16041E-07
 0.57800035E+01 -0.86704E-08
 0.58300033E+01 -0.27787E-08
 0.58800035E+01  0.28593E-08
 0.59300036E+01  0.83495E-08
 0.59800034E+01  0.30180E-08
 0.60300035E+01  0.68367E-08
 0.60800033E+01  0.22062E-07
 0.61300035E+01  0.27015E-07
 0.61800036E+01  0.25216E-07
 0.62300034E+01  0.22972E-07
 0.62800035E+01  0.25064E-07
 0.63300033E+01  0.25094E-07
 0.63800035E+01  0.30110E-07
 0.64300036E+01  0.37454E-07
 0.64800034E+01  0.30038E-07
 0.65300035E+01  0.20765E-07
 0.65800033E+01  0.15253E-07
 0.66300035E+01  0.13766E-07
 0.66800036E+01  0.18018E-07
 0.67300034E+01  0.27012E-07
 0.67800035E+01  0.28740E-07
 0.68300033E+01  0.20761E-07
 0.68800035E+01  0.16079E-07
 0.69300036E+01  0.71092E-08
 0.69800034E+01 -0.38358E-09
 0.70300035E+01 -0.51583E-08
 0.70800033E+01 -0.14352E-07
 0.71300035E+01 -0.18160E-07
 0.71800036E+01 -0.21248E-07
 0.72300034E+01 -0.24794E-07
 0.72800035E+01 -0.30687E-07
 0.73300033E+01 -0.28962E-07
 0.73800035E+01 -0.17113E-07
 0.74300036E+01 -0.25291E-08
 0.74800034E+01  0.84306E-08
 0.75300035E+01  0.17120E-07
 0.75800033E+01  0.27630E-07
 0.76300035E+01  0.32851E-07
 0.76800036E+01  0.43614E-07
 0.77300034E+01  0.50052E-07
 0.77800035E+01  0.53900E-07
 0.78300033E+01  0.56948E-07
 0.78800035E+01  0.50119E-07
 0.79300036E+01  0.43818E-07
 0.79800034E+01  0.32282E-07
 0.80300035E+01  0.15043E-07
 0.80800037E+01  0.20738E-09
 0.81300039E+01 -0.65193E-08
 0.81800032E+01 -0.18959E-07
 0.82300034E+01 -0.37805E-07
 0.82800035E+01 -0.48023E-07
 0.83300037E+01 -0.62641E-07
 0.83800039E+01 -0.73296E-07
 0.84300032E+01 -0.74943E-07
 0.84800034E+01 -0.74420E-07
 0.85300035E+01 -0.66237E-07
 0.85800037E+01 -0.58238E-07
 0.86300039E+01 -0.51703E-07
 0.86800032E+01 -0.43592E-07
 0.87300034E+01 -0.45875E-07
 0.87800035E+01 -0.52304E-07
 0.88300037E+01 -0.46848E-07
 0.88800039E+01 -0.43093E-07
 0.89300032E+01 -0.35586E-07
 0.89800034E+01 -0.24640E-07
 0.90300035E+01 -0.14237E-07
 0.90800037E+01  0.10588E-08
 0.91300039E+01  0.11719E-07
 0.91800032E+01  0.29069E-07
 0.92300034E+01  0.46044E-07
 0.92800035E+01  0.57907E-07
 0.93300037E+01  0.71851E-07
 0.93800039E+01  0.82503E-07
 0.94300032E+01  0.87616E-07
 0.94800034E+01  0.86428E-07
 0.95300035E+01  0.83398E-07
 0.95800037E+01  0.77561E-07
 0.96300039E+01  0.64548E-07
 0.96800032E+01  0.49613E-07
 0.97300034E+01  0.42361E-07
 0.97800035E+01  0.28229E-07
 0.98300037E+01  0.14327E-07
 0.98800039E+01  0.10804E-07
 0.99300032E+01  0.41712E-08
 0.99800034E+01 -0.46262E-08
 0.10030004E+02 -0.13637E-07
 0.10080004E+02 -0.19256E-07
 0.10130004E+02 -0.22014E-07
 0.10180003E+02 -0.23884E-07
 0.10230003E+02 -0.21763E-07
 0.10280004E+02 -0.23095E-07
 0.10330004E+02 -0.32615E-07
 0.10380004E+02 -0.38437E-07
 0.10430003E+02 -0.40253E-07
 0.10480003E+02 -0.43794E-07
 0.10530004E+02 -0.47223E-07
 0.10580004E+02 -0.56849E-07
 0.10630004E+02 -0.59859E-07
 0.10680003E+02 -0.49500E-07
 0.10730003E+02 -0.31399E-07
 0.10780004E+02 -0.81499E-08
 0.10830004E+02  0.64802E-08
 0.10880004E+02  0.10667E-07
 0.10930003E+02  0.12262E-07
 0.10980003E+02  0.15572E-07
 0.11030004E+02  0.20185E-07
 0.11080004E+02  0.25496E-07
 0.11130004E+02  0.31296E-07
 0.11180003E+02  0.32267E-07
 0.11230003E+02  0.28194E-07
 0.11280004E+02  0.14668E-07
 0.11330004E+02  0.71518E-08
 0.11380004E+02  0.10557E-08
 0.11430003E+02 -0.92508E-08
 0.11480003E+02 -0.10676E-07
 0.11530004E+02 -0.22187E-07
 0.11580004E+02 -0.21008E-07
 0.11630004E+02 -0.12019E-07
 0.11680003E+02 -0.78596E-08
 0.11730003E+02 -0.61970E-08
 0.11780004E+02 -0.10009E-07
 0.11830004E+02 -0.88454E-08
 0.11880004E+02 -0.18142E-07
 0.11930003E+02 -0.21478E-07
 0.11980003E+02 -0.14411E-07
 0.12030004E+02 -0.11994E-07
 0.12080004E+02 -0.10182E-07
 0.12130004E+02 -0.86690E-08
 0.12180003E+02 -0.55997E-08
 0.12230003E+02 -0.10774E-08
 0.12280004E+02  0.23771E-08
 0.12330004E+02  0.11288E-08
 0.12380004E+02  0.35104E-08
 0.12430003E+02  0.66260E-08
 0.12480003E+02  0.14638E-07
 0.12530004E+02  0.34730E-07
 0.12580004E+02  0.39216E-07
 0.12630004E+02  0.33332E-07
 0.12680003E+02  0.23374E-07
 0.12730003E+02  0.14876E-07
 0.12780004E+02  0.21322E-07
 0.12830004E+02  0.29588E-07
 0.12880004E+02  0.31811E-07
 0.12930003E+02  0.29045E-07
 0.12980003E+02  0.22132E-07
 0.13030004E+02  0.18258E-07
 0.13080004E+02  0.21087E-07
 0.13130004E+02  0.97517E-08
 0.13180003E+02 -0.43794E-08
 0.13230003E+02 -0.53762E-08
 0.13280004E+02 -0.76875E-08
 0.13330004E+02 -0.57470E-08
 0.13380004E+02  0.22711E-08
 0.13430003E+02  0.20880E-08
 0.13480003E+02 -0.31064E-08
 0.13530004E+02 -0.68895E-08
 0.13580004E+02 -0.13204E-07
 0.13630004E+02 -0.14557E-07
 0.13680003E+02 -0.23372E-07
 0.13730003E+02 -0.31356E-07
 0.13780004E+02 -0.27646E-07
 0.13830004E+02 -0.28189E-07
 0.13880004E+02 -0.24636E-07
 0.13930003E+02 -0.20144E-07
 0.13980003E+02 -0.15178E-07
 0.14030004E+02 -0.70329E-08
 0.14080004E+02 -0.31142E-08
 0.14130004E+02  0.40908E-08
 0.14180003E+02  0.30062E-08
 0.14230003E+02  0.25369E-08
 0.14280004E+02  0.81101E-08
 0.14330004E+02  0.44873E-08
 0.14380004E+02 -0.54436E-08
 0.14430003E+02 -0.10207E-07
 0.14480003E+02 -0.44932E-08
 0.14530004E+02  0.32723E-08
 0.14580004E+02  0.79900E-08
 0.14630004E+02  0.54645E-08
 0.14680003E+02  0.66788E-08
 0.14730003E+02  0.15804E-07
 0.14780004E+02  0.18751E-07
 0.14830004E+02  0.16095E-07
 0.14880004E+02  0.15671E-07
 0.14930003E+02  0.16010E-07
 0.14980003E+02  0.10967E-07
 0.15030004E+02 -0.17980E-08
 0.15080004E+02 -0.13815E-07
 0.15130004E+02 -0.13164E-07
 0.15180003E+02 -0.14729E-07
 0.15230003E+02 -0.20160E-07
 0.15280004E+02 -0.22257E-07
 0.15330004E+02 -0.24853E-07
 0.15380004E+02 -0.28964E-07
 0.15430003E+02 -0.31143E-07
 0.15480003E+02 -0.27701E-07
 0.15530004E+02 -0.20230E-07
 0.15580004E+02 -0.12176E-07
 0.15630004E+02 -0.10942E-07
 0.15680003E+02 -0.10207E-07
 0.15730003E+02 -0.63434E-08
 0.15780004E+02 -0.54602E-08
 0.15830004E+02 -0.95981E-08
 0.15880004E+02 -0.21767E-07
 0.15930003E+02 -0.25018E-07
 0.15980003E+02 -0.15976E-07
 0.16030005E+02 -0.53864E-08
 0.16080004E+02  0.65130E-08
 0.16130003E+02  0.13388E-07
 0.16180004E+02  0.19994E-07
 0.16230003E+02  0.31509E-07
 0.16280005E+02  0.44077E-07
 0.16330004E+02  0.50233E-07
 0.16380003E+02  0.49444E-07
 0.16430004E+02  0.56188E-07
 0.16480003E+02  0.64648E-07
 0.16530005E+02  0.65349E-07
 0.16580004E+02  0.67561E-07
 0.16630003E+02  0.61917E-07
 0.16680004E+02  0.46309E-07
 0.16730003E+02  0.34216E-07
 0.16780005E+02  0.23477E-07
 0.16830004E+02  0.16106E-07
 0.16880003E+02  0.79814E-08
 0.16930004E+02 -0.30137E-08
 0.16980003E+02 -0.67845E-08
 0.17030005E+02 -0.88915E-08
 0.17080004E+02 -0.13035E-07
 0.17130003E+02 -0.13710E-07
 0.17180004E+02 -0.10003E-07
 0.17230003E+02 -0.91595E-08
 0.17280005E+02 -0.20506E-07
 0.17330004E+02 -0.30578E-07
 0.17380003E+02 -0.37854E-07
 0.17430004E+02 -0.47662E-07
 0.17480003E+02 -0.48486E-07
 0.17530005E+02 -0.45120E-07
 0.17580004E+02 -0.45181E-07
 0.17630003E+02 -0.51877E-07
 0.17680004E+02 -0.58549E-07
 0.17730003E+02 -0.54150E-07
 0.17780005E+02 -0.43239E-07
 0.17830004E+02 -0.27859E-07
 0.17880003E+02 -0.16691E-07
 0.17930004E+02 -0.14734E-07
 0.17980003E+02 -0.52816E-08
 0.18030005E+02  0.13595E-07
 0.18080004E+02  0.22739E-07
 0.18130003E+02  0.25608E-07
 0.18180004E+02  0.26092E-07
 0.18230003E+02  0.28047E-07
 0.18280005E+02  0.30788E-07
 0.18330004E+02  0.21657E-07
 0.18380003E+02  0.10788E-07
 0.18430004E+02 -0.12574E-08
 0.18480003E+02 -0.98169E-08
 0.18530005E+02 -0.11946E-07
 0.18580004E+02 -0.20301E-07
 0.18630003E+02 -0.17716E-07
 0.18680004E+02 -0.83232E-08
 0.18730003E+02 -0.42020E-08
 0.18780005E+02 -0.14552E-08
 0.18830004E+02 -0.91612E-08
 0.18880003E+02 -0.61206E-08
 0.18930004E+02  0.26331E-08
 0.18980003E+02 -0.41205E-08
 0.19030005E+02 -0.92897E-08
 0.19080004E+02 -0.34429E-08
 0.19130003E+02  0.58351E-09
 0.19180004E+02 -0.62141E-09
 0.19230003E+02  0.52594E-09
 0.19280005E+02 -0.25207E-08
 0.19330004E+02 -0.99952E-09
 0.19380003E+02  0.82385E-08
 0.19430004E+02  0.19112E-07
 0.19480003E+02  0.27122E-07
 0.19530005E+02  0.29847E-07
 0.19580004E+02  0.33404E-07
 0.19630003E+02  0.33938E-07
 0.19680004E+02  0.37164E-07
 0.19730003E+02  0.37650E-07
 0.19780005E+02  0.32132E-07
 0.19830004E+02  0.26713E-07
 0.19880003E+02  0.26001E-07
 0.19930004E+02  0.28365E-07
 0.19980003E+02  0.25732E-07
 0.20030005E+02  0.17534E-07
 0.20080004E+02  0.15177E-08
 0.20130003E+02 -0.72403E-08
 0.20180004E+02 -0.90028E-08
 0.20230003E+02 -0.13618E-07
 0.20280005E+02 -0.20159E-07
 0.20330004E+02 -0.28579E-07
 0.20380003E+02 -0.28645E-07
 0.20430004E+02 -0.28957E-07
 0.20480003E+02 -0.31507E-07
 0.20530005E+02 -0.31546E-07
 0.20580004E+02 -0.25063E-07
 0.20630003E+02 -0.10008E-07
 0.20680004E+02 -0.28214E-08
 0.20730003E+02  0.11132E-07
 0.20780005E+02  0.28771E-07
 0.20830004E+02  0.28655E-07
 0.20880003E+02  0.26747E-07
 0.20930004E+02  0.27348E-07
 0.20980003E+02  0.26940E-07
 0.21030005E+02  0.21708E-07
 0.21080004E+02  0.95959E-08
 0.21130003E+02  0.12163E-09
 0.21180004E+02 -0.61982E-08
 0.21230003E+02 -0.71821E-08
 0.21280005E+02 -0.72362E-08
 0.21330004E+02 -0.13235E-07
 0.21380003E+02 -0.17188E-07
 0.21430004E+02 -0.20213E-07
 0.21480003E+02 -0.26373E-07
 0.21530005E+02 -0.26336E-07
 0.21580004E+02 -0.24429E-07
 0.21630003E+02 -0.18205E-07
 0.21680004E+02 -0.13920E-07
 0.21730003E+02 -0.15898E-07
 0.21780005E+02 -0.95770E-08
 0.21830004E+02 -0.14806E-07
 0.21880003E+02 -0.22113E-07
 0.21930004E+02 -0.27127E-07
 0.21980003E+02 -0.31203E-07
 0.22030005E+02 -0.27102E-07
 0.22080004E+02 -0.34685E-07
 0.22130003E+02 -0.39100E-07
 0.22180004E+02 -0.38089E-07
 0.22230003E+02 -0.43498E-07
 0.22280005E+02 -0.35758E-07
 0.22330004E+02 -0.19038E-07
 0.22380003E+02 -0.60839E-08
 0.22430004E+02 -0.33651E-08
 0.22480003E+02  0.21555E-08
 0.22530005E+02  0.20017E-07
 0.22580004E+02  0.33839E-07
 0.22630003E+02  0.46296E-07
 0.22680004E+02  0.51035E-07
 0.22730003E+02  0.42493E-07
 0.22780005E+02  0.32666E-07
 0.22830004E+02  0.25142E-07
 0.22880003E+02  0.21336E-07
 0.22930004E+02  0.24895E-07
 0.22980003E+02  0.31724E-07
 0.23030005E+02  0.28646E-07
 0.23080004E+02  0.27877E-07
 0.23130003E+02  0.40339E-07
 0.23180004E+02  0.52573E-07
 0.23230003E+02  0.51519E-07
 0.23280005E+02  0.53952E-07
 0.23330004E+02  0.59360E-07
 0.23380003E+02  0.58528E-07
 0.23430004E+02  0.59370E-07
 0.23480003E+02  0.54440E-07
 0.23530005E+02  0.37553E-07
 0.23580004E+02  0.11083E-07
 0.23630003E+02 -0.32780E-08
 0.23680004E+02 -0.19238E-07
 0.23730003E+02 -0.44059E-07
 0.23780005E+02 -0.53867E-07
 0.23830004E+02 -0.64480E-07
 0.23880003E+02 -0.60496E-07
 0.23930004E+02 -0.45366E-07
 0.23980003E+02 -0.40668E-07
 0.24030005E+02 -0.37894E-07
 0.24080004E+02 -0.35409E-07
 0.24130003E+02 -0.26997E-07
 0.24180004E+02 -0.29017E-07
 0.24230003E+02 -0.37566E-07
 0.24280005E+02 -0.40266E-07
 0.24330004E+02 -0.46009E-07
 0.24380003E+02 -0.45997E-07
 0.24430004E+02 -0.51177E-07
 0.24480003E+02 -0.65116E-07
 0.24530005E+02 -0.63214E-07
 0.24580004E+02 -0.56448E-07
 0.24630003E+02 -0.47809E-07
 0.24680004E+02 -0.23699E-07
 0.24730003E+02  0.68088E-09
 0.24780005E+02  0.22106E-07
 0.24830004E+02  0.38046E-07
 0.24880003E+02  0.52459E-07
 0.24930004E+02  0.66139E-07
 0.24980003E+02  0.67495E-07
 0.25030005E+02  0.67852E-07
 0.25080004E+02  0.65435E-07
 0.25130003E+02  0.51382E-07
 0.25180004E+02  0.50163E-07
 0.25230003E+02  0.40910E-07
 0.25280005E+02  0.22339E-07
 0.25330004E+02  0.15646E-07
 0.25380003E+02 -0.83709E-08
 0.25430004E+02 -0.65041E-08
 0.25480003E+02 -0.30266E-07
 0.25530005E+02 -0.24839E-07
 0.25580004E+02 -0.14688E-07
 0.25630003E+02 -0.18920E-07
 0.25680004E+02  0.21263E-07
 0.25730003E+02 -0.49345E-08
 0.25780005E+02  0.60247E-07
 0.25830004E+02 -0.73911E-07
 0.25880003E+02 -0.29428E-06
 0.25930004E+02 -0.96531E-06
 0.25980003E+02 -0.16464E-05
 0.26030005E+02 -0.18172E-05
 0.26080004E+02 -0.22004E-05
 0.26130003E+02 -0.19582E-05
 0.26180004E+02 -0.16079E-05
 0.26230003E+02  0.83228E-06
 0.26280005E+02  0.31678E-05
 0.26330004E+02  0.28562E-05
 0.26380003E+02  0.42835E-05
 0.26430004E+02  0.30438E-05
 0.26480003E+02  0.19329E-05
 0.26530005E+02  0.36385E-05
 0.26580004E+02  0.43156E-06
 0.26630003E+02 -0.53354E-06
 0.26680004E+02 -0.16871E-05
 0.26730003E+02 -0.56142E-05
 0.26780005E+02 -0.27762E-05
 0.26830004E+02 -0.36270E-05
 0.26880003E+02 -0.47725E-05
 0.26930004E+02 -0.29268E-05
 0.26980003E+02 -0.23593E-05
 0.27030005E+02  0.32808E-05
 0.27080004E+02  0.32272E-06
 0.27130003E+02 -0.28221E-05
 0.27180004E+02 -0.20497E-05
 0.27230003E+02 -0.81974E-05
 0.27280005E+02 -0.56383E-05
 0.27330004E+02  0.54606E-06
 0.27380003E+02  0.29104E-05
 0.27430004E+02  0.84867E-05
 0.27480003E+02  0.33468E-05
 0.27530005E+02 -0.62754E-05
 0.27580004E+02 -0.94683E-05
 0.27630003E+02 -0.17100E-04
 0.27680004E+02 -0.32195E-05
 0.27730003E+02  0.12057E-04
 0.27780005E+02  0.18402E-04
 0.27830004E+02  0.28897E-04
 0.27880003E+02  0.18054E-04
 0.27930004E+02  0.17559E-04
 0.27980003E+02  0.16333E-04
 0.28030005E+02  0.14255E-04
 0.28080004E+02  0.21992E-04
 0.28130003E+02  0.31382E-04
 0.28180004E+02  0.25148E-04
 0.28230003E+02 -0.34766E-04
 0.28280005E+02 -0.33108E-04
 0.28330004E+02 -0.10946E-04
 0.28380003E+02 -0.59644E-04
 0.28430004E+02 -0.60251E-04
 0.28480003E+02 -0.35924E-04
 0.28530005E+02 -0.22012E-04
 0.28580004E+02  0.11058E-04
 0.28630003E+02  0.25141E-04
 0.28680004E+02  0.24936E-04
 0.28730003E+02  0.57721E-04
 0.28780005E+02  0.53379E-04
 0.28830004E+02 -0.18190E-05
 0.28880003E+02 -0.24643E-04
 0.28930004E+02 -0.26814E-04
 0.28980003E+02 -0.44566E-04
 0.29030005E+02 -0.48653E-04
 0.29080004E+02  0.32464E-04
 0.29130003E+02  0.34775E-04
 0.29180004E+02 -0.52558E-04
 0.29230003E+02 -0.29722E-04
 0.29280005E+02  0.97309E-05
 0.29330004E+02  0.58748E-04
 0.29380003E+02  0.14758E-03
 0.29430004E+02  0.63690E-04
 0.29480003E+02 -0.54626E-04
 0.29530005E+02 -0.26746E-04
 0.29580004E+02 -0.51705E-04
 0.29630003E+02 -0.37249E-04
 0.29680004E+02 -0.95521E-05
 0.29730003E+02 -0.94708E-04
 0.29780005E+02 -0.82912E-04
 0.29830004E+02 -0.87932E-05
 0.29880003E+02  0.90045E-05
 0.29930004E+02  0.11365E-04
 0.29980003E+02  0.58291E-04
 0.30030005E+02  0.12798E-03
 0.30080004E+02  0.13444E-03
 0.30130003E+02  0.71368E-04
 0.30180004E+02  0.37207E-05
 0.30230003E+02 -0.68882E-05
 0.30280005E+02 -0.40140E-04
 0.30330004E+02 -0.90692E-04
 0.30380003E+02 -0.86813E-04
 0.30430004E+02 -0.83609E-04
 0.30480003E+02 -0.89181E-04
 0.30530005E+02 -0.62619E-04
 0.30580004E+02 -0.24474E-05
 0.30630003E+02  0.48239E-04
 0.30680004E+02  0.34263E-04
 0.30730003E+02  0.15400E-04
 0.30780005E+02  0.51498E-04
 0.30830004E+02  0.61295E-04
 0.30880003E+02  0.52618E-04
 0.30930004E+02  0.37700E-04
 0.30980003E+02  0.18079E-04
 0.31030005E+02  0.55938E-05
 0.31080004E+02 -0.50048E-05
 0.31130003E+02 -0.15219E-04
 0.31180004E+02 -0.53300E-04
 0.31230003E+02 -0.51368E-04
 0.31280005E+02  0.15485E-04
 0.31330004E+02  0.70809E-04
 0.31380003E+02  0.49259E-04
 0.31430004E+02 -0.10887E-04
 0.31480003E+02 -0.29640E-04
 0.31530005E+02 -0.14574E-04
 0.31580004E+02 -0.43739E-04
 0.31630003E+02 -0.12924E-03
 0.31680004E+02 -0.13568E-03
 0.31730003E+02 -0.39695E-04
 0.31780005E+02  0.69075E-04
 0.31830004E+02  0.15055E-03
 0.31880003E+02  0.11837E-03
 0.31930004E+02  0.50339E-04
 0.31980003E+02  0.51486E-04
 0.32030003E+02  0.29938E-04
 0.32080006E+02  0.36021E-04
 0.32130005E+02 -0.59595E-05
 0.32180004E+02 -0.96652E-04
 0.32230003E+02 -0.39087E-04
 0.32280003E+02 -0.21299E-04
 0.32330006E+02 -0.60595E-04
 0.32380005E+02 -0.20832E-04
 0.32430004E+02  0.34120E-04
 0.32480003E+02  0.10963E-04
 0.32530003E+02 -0.19842E-04
 0.32580006E+02  0.15900E-04
 0.32630005E+02 -0.43845E-04
 0.32680004E+02 -0.18533E-04
 0.32730003E+02  0.71231E-04
 0.32780003E+02  0.27492E-04
 0.32830006E+02 -0.30437E-04
 0.32880005E+02 -0.96620E-04
 0.32930004E+02 -0.10739E-03
 0.32980003E+02 -0.76807E-04
 0.33030003E+02 -0.45662E-04
 0.33080006E+02 -0.33811E-04
 0.33130005E+02 -0.11196E-04
 0.33180004E+02  0.12157E-03
 0.33230003E+02  0.17492E-03
 0.33280003E+02  0.17854E-03
 0.33330006E+02  0.23999E-03
 0.33380005E+02  0.13126E-03
 0.33430004E+02 -0.50693E-04
 0.33480003E+02 -0.13057E-03
 0.33530003E+02 -0.15416E-03
 0.33580006E+02 -0.15174E-03
 0.33630005E+02 -0.17329E-03
 0.33680004E+02 -0.12220E-03
 0.33730003E+02 -0.32085E-04
 0.33780003E+02  0.48618E-04
 0.33830006E+02  0.14884E-03
 0.33880005E+02  0.10233E-03
 0.33930004E+02  0.80678E-04
 0.33980003E+02  0.12932E-03
 0.34030003E+02  0.26648E-04
 0.34080006E+02 -0.24960E-04
 0.34130005E+02  0.43701E-04
 0.34180004E+02  0.47100E-04
 0.34230003E+02 -0.50749E-04
 0.34280003E+02 -0.11386E-03
 0.34330006E+02 -0.16504E-03
 0.34380005E+02 -0.18405E-03
 0.34430004E+02 -0.86704E-04
 0.34480003E+02 -0.32580E-04
 0.34530003E+02  0.34363E-04
 0.34580006E+02  0.13944E-03
 0.34630005E+02  0.17970E-03
 0.34680004E+02  0.15049E-03
 0.34730003E+02  0.70687E-04
 0.34780003E+02 -0.27122E-05
 0.34830006E+02 -0.90869E-04
 0.34880005E+02 -0.16560E-03
 0.34930004E+02 -0.98271E-04
 0.34980003E+02  0.52277E-05
 0.35030003E+02  0.41917E-04
 0.35080006E+02  0.90622E-04
 0.35130005E+02  0.86759E-04
 0.35180004E+02  0.57492E-04
 0.35230003E+02  0.51327E-04
 0.35280003E+02 -0.21862E-04
 0.35330006E+02 -0.12441E-03
 0.35380005E+02 -0.14043E-03
 0.35430004E+02 -0.62494E-04
 0.35480003E+02 -0.34416E-04
 0.35530003E+02  0.77753E-05
 0.35580006E+02  0.11704E-03
 0.35630005E+02  0.71536E-04
 0.35680004E+02  0.26724E-04
 0.35730003E+02  0.82847E-04
 0.35780003E+02  0.31679E-04
 0.35830006E+02 -0.18902E-04
 0.35880005E+02 -0.79801E-05
 0.35930004E+02 -0.36179E-05
 0.35980003E+02  0.16459E-04
 0.36030003E+02  0.39031E-04
 0.36080006E+02  0.45647E-04
 0.36130005E+02 -0.79030E-04
 0.36180004E+02 -0.16156E-03
 0.36230003E+02 -0.10073E-03
 0.36280003E+02 -0.10859E-03
 0.36330006E+02 -0.47590E-04
 0.36380005E+02  0.45664E-04
 0.36430004E+02  0.13361E-03
 0.36480003E+02  0.16172E-03
 0.36530003E+02  0.55571E-04
 0.36580006E+02 -0.14363E-04
 0.36630005E+02 -0.82339E-04
 0.36680004E+02 -0.44659E-04
 0.36730003E+02 -0.15126E-04
 0.36780003E+02 -0.48445E-04
 0.36830006E+02 -0.10271E-04
 0.36880005E+02 -0.13457E-04
 0.36930004E+02 -0.22102E-04
 0.36980003E+02 -0.12029E-04
 0.37030003E+02  0.43603E-04
 0.37080006E+02  0.84911E-04
 0.37130005E+02  0.66474E-04
 0.37180004E+02  0.21706E-04
 0.37230003E+02 -0.11803E-04
 0.37280003E+02  0.31809E-05
 0.37330006E+02 -0.29344E-05
 0.37380005E+02  0.35571E-04
 0.37430004E+02  0.53196E-04
 0.37480003E+02  0.61295E-05
 0.37530003E+02 -0.29423E-04
 0.37580006E+02 -0.10415E-03
 0.37630005E+02 -0.15684E-03
 0.37680004E+02 -0.86708E-04
 0.37730003E+02  0.24268E-04
 0.37780003E+02  0.56761E-04
 0.37830006E+02  0.57795E-04
 0.37880005E+02  0.47985E-04
 0.37930004E+02  0.36434E-04
 0.37980003E+02 -0.12459E-04
 0.38030003E+02 -0.49410E-04
 0.38080006E+02  0.14939E-04
 0.38130005E+02  0.38890E-04
 0.38180004E+02  0.21710E-04
 0.38230003E+02  0.47925E-05
 0.38280003E+02 -0.60436E-05
 0.38330006E+02 -0.68971E-05
 0.38380005E+02  0.20021E-04
 0.38430004E+02  0.68055E-04
 0.38480003E+02  0.12355E-04
 0.38530003E+02 -0.46651E-04
 0.38580006E+02 -0.67385E-04
 0.38630005E+02 -0.83841E-04
 0.38680004E+02 -0.51568E-04
 0.38730003E+02  0.12509E-04
 0.38780003E+02  0.80341E-04
 0.38830006E+02  0.12585E-03
 0.38880005E+02  0.17275E-03
 0.38930004E+02  0.73928E-04
 0.38980003E+02 -0.74628E-04
 0.39030003E+02 -0.10927E-03
 0.39080006E+02 -0.14158E-03
 0.39130005E+02 -0.83625E-04
 0.39180004E+02  0.11609E-04
 0.39230003E+02  0.19144E-04
 0.39280003E+02 -0.40956E-04
 0.39330006E+02 -0.53148E-04
 0.39380005E+02  0.43266E-04
 0.39430004E+02  0.56899E-04
 0.39480003E+02  0.12203E-04
 0.39530003E+02  0.36098E-04
 0.39580006E+02  0.62786E-04
 0.39630005E+02  0.52002E-04
 0.39680004E+02 -0.21427E-04
 0.39730003E+02 -0.11333E-03
 0.39780003E+02 -0.92125E-04
 0.39830006E+02 -0.52401E-04
 0.39880005E+02 -0.53757E-04
 0.39930004E+02  0.13019E-04
 0.39980003E+02  0.80783E-04
 0.40030003E+02  0.14514E-03
 0.40080006E+02  0.14652E-03
 0.40130005E+02  0.62975E-04
 0.40180004E+02  0.17701E-04
 0.40230003E+02 -0.63919E-04
 0.40280003E+02 -0.10177E-03
 0.40330006E+02 -0.58600E-04
 0.40380005E+02 -0.20175E-04
 0.40430004E+02  0.29303E-04
 0.40480003E+02 -0.33410E-05
 0.40530003E+02 -0.65179E-04
 0.40580006E+02 -0.51398E-04
 0.40630005E+02 -0.42559E-04
 0.40680004E+02 -0.30732E-04
 0.40730003E+02 -0.19397E-04
 0.40780003E+02 -0.38741E-04
 0.40830006E+02  0.43175E-04
 0.40880005E+02  0.12724E-03
 0.40930004E+02  0.87325E-04
 0.40980003E+02  0.61993E-04
 0.41030003E+02  0.38337E-04
 0.41080006E+02 -0.10124E-04
 0.41130005E+02  0.11587E-04
 0.41180004E+02  0.47077E-04
 0.41230003E+02 -0.25438E-04
 0.41280003E+02 -0.80036E-04
 0.41330006E+02 -0.74402E-05
 0.41380005E+02  0.27680E-04
 0.41430004E+02  0.76140E-06
 0.41480003E+02 -0.12467E-04
 0.41530003E+02 -0.42918E-04
 0.41580006E+02 -0.91357E-04
 0.41630005E+02 -0.11099E-03
 0.41680004E+02 -0.50544E-04
 0.41730003E+02  0.18758E-04
 0.41780003E+02  0.39572E-04
 0.41830006E+02  0.34180E-04
 0.41880005E+02  0.20736E-04
 0.41930004E+02  0.40732E-04
 0.41980003E+02  0.66020E-04
 0.42030003E+02  0.69597E-04
 0.42080006E+02  0.77173E-04
 0.42130005E+02  0.63459E-04
 0.42180004E+02 -0.32757E-04
 0.42230003E+02 -0.11519E-03
 0.42280003E+02 -0.12119E-03
 0.42330006E+02 -0.87466E-04
 0.42380005E+02  0.23617E-04
 0.42430004E+02  0.61636E-04
 0.42480003E+02  0.67347E-05
 0.42530003E+02  0.26183E-04
 0.42580006E+02  0.24488E-04
 0.42630005E+02 -0.28107E-04
 0.42680004E+02 -0.21994E-04
 0.42730003E+02  0.31301E-04
 0.42780003E+02  0.54658E-04
 0.42830006E+02  0.14045E-04
 0.42880005E+02 -0.40490E-04
 0.42930004E+02 -0.41483E-04
 0.42980003E+02  0.17580E-04
 0.43030003E+02  0.70446E-04
 0.43080006E+02  0.70651E-04
 0.43130005E+02  0.97325E-05
 0.43180004E+02 -0.60892E-04
 0.43230003E+02 -0.90667E-04
 0.43280003E+02 -0.87993E-04
 0.43330006E+02 -0.53840E-04
 0.43380005E+02 -0.96635E-05
 0.43430004E+02  0.24108E-04
 0.43480003E+02  0.77842E-05
 0.43530003E+02  0.17751E-04
 0.43580006E+02  0.67252E-04
 0.43630005E+02  0.67867E-04
 0.43680004E+02  0.64330E-04
 0.43730003E+02  0.36151E-04
 0.43780003E+02  0.13988E-05
 0.43830006E+02 -0.36836E-04
 0.43880005E+02 -0.39940E-04
 0.43930004E+02 -0.21969E-04
 0.43980003E+02  0.90351E-05
 0.44030003E+02  0.38108E-04
 0.44080006E+02 -0.59087E-04
 0.44130005E+02 -0.73834E-04
 0.44180004E+02 -0.43106E-04
 0.44230003E+02 -0.31792E-04
 0.44280003E+02 -0.45914E-05
 0.44330006E+02 -0.25703E-04
 0.44380005E+02  0.32513E-04
 0.44430004E+02  0.66216E-04
 0.44480003E+02  0.37530E-04
 0.44530003E+02 -0.35330E-04
 0.44580006E+02 -0.81609E-04
 0.44630005E+02 -0.97051E-05
 0.44680004E+02  0.32055E-04
 0.44730003E+02  0.57206E-04
 0.44780003E+02  0.87564E-04
 0.44830006E+02  0.87828E-04
 0.44880005E+02  0.60697E-04
 0.44930004E+02  0.32571E-04
 0.44980003E+02  0.90411E-07
 0.45030003E+02 -0.30000E-04
 0.45080006E+02 -0.45553E-04
 0.45130005E+02 -0.93415E-04
 0.45180004E+02 -0.51567E-04
 0.45230003E+02 -0.22439E-04
 0.45280003E+02 -0.39883E-04
 0.45330006E+02  0.27666E-04
 0.45380005E+02  0.83824E-04
 0.45430004E+02  0.13171E-03
 0.45480003E+02  0.58884E-04
 0.45530003E+02 -0.82769E-04
 0.45580006E+02 -0.94764E-04
 0.45630005E+02 -0.64690E-04
 0.45680004E+02 -0.36446E-04
 0.45730003E+02 -0.18726E-04
 0.45780003E+02 -0.82938E-05
 0.45830006E+02  0.35441E-04
 0.45880005E+02  0.52638E-04
 0.45930004E+02 -0.55829E-05
 0.45980003E+02 -0.58013E-04
 0.46030003E+02 -0.43171E-04
 0.46080006E+02 -0.13875E-05
 0.46130005E+02  0.13631E-04
 0.46180004E+02 -0.17375E-04
 0.46230003E+02  0.40987E-05
 0.46280003E+02  0.56661E-04
 0.46330006E+02  0.26304E-04
 0.46380005E+02 -0.29192E-04
 0.46430004E+02 -0.51763E-04
 0.46480003E+02 -0.51651E-04
 0.46530003E+02 -0.39044E-04
 0.46580006E+02  0.11486E-04
 0.46630005E+02  0.15485E-04
 0.46680004E+02  0.26194E-04
 0.46730003E+02  0.16314E-03
 0.46780003E+02  0.17460E-03
 0.46830006E+02  0.73528E-04
 0.46880005E+02  0.47392E-04
 0.46930004E+02  0.16797E-04
 0.46980003E+02  0.29501E-04
 0.47030003E+02  0.13110E-04
 0.47080006E+02 -0.13062E-03
 0.47130005E+02 -0.23907E-03
 0.47180004E+02 -0.31441E-03
 0.47230003E+02 -0.29969E-03
 0.47280003E+02 -0.67875E-04
 0.47330006E+02  0.14246E-03
 0.47380005E+02  0.23949E-03
 0.47430004E+02  0.27442E-03
 0.47480003E+02  0.13315E-03
 0.47530003E+02 -0.62701E-04
 0.47580006E+02 -0.19801E-03
 0.47630005E+02 -0.25789E-03
 0.47680004E+02 -0.18177E-03
 0.47730003E+02 -0.46724E-04
 0.47780003E+02  0.12693E-03
 0.47830006E+02  0.23260E-03
 0.47880005E+02  0.14955E-03
 0.47930004E+02  0.99653E-04
 0.47980003E+02  0.14719E-03
 0.48030003E+02  0.21121E-03
 0.48080006E+02  0.31322E-03
 0.48130005E+02  0.34392E-03
 0.48180004E+02  0.33583E-03
 0.48230003E+02  0.25387E-03
 0.48280003E+02 -0.92882E-04
 0.48330006E+02 -0.42314E-03
 0.48380005E+02 -0.35040E-03
 0.48430004E+02  0.57301E-06
 0.48480003E+02  0.12205E-03
 0.48530003E+02 -0.22673E-03
 0.48580006E+02 -0.55263E-03
 0.48630005E+02 -0.45030E-03
 0.48680004E+02 -0.14117E-03
 0.48730003E+02 -0.16120E-04
 0.48780003E+02 -0.86829E-04
 0.48830006E+02 -0.10639E-03
 0.48880005E+02 -0.11150E-03
 0.48930004E+02 -0.10762E-03
 0.48980003E+02 -0.53086E-04
 0.49030003E+02  0.54602E-04
 0.49080006E+02  0.43837E-04
 0.49130005E+02 -0.18452E-03
 0.49180004E+02 -0.25717E-03
 0.49230003E+02  0.28236E-04
 0.49280003E+02  0.37667E-03
 0.49330006E+02  0.41489E-03
 0.49380005E+02  0.33458E-03
 0.49430004E+02  0.18519E-03
 0.49480003E+02 -0.20052E-04
 0.49530003E+02  0.22752E-03
 0.49580006E+02  0.71124E-03
 0.49630005E+02  0.72064E-03
 0.49680004E+02  0.30999E-03
 0.49730003E+02  0.22301E-04
 0.49780003E+02 -0.68893E-04
 0.49830006E+02 -0.11690E-03
 0.49880005E+02 -0.36687E-03
 0.49930004E+02 -0.92960E-03
 0.49980003E+02 -0.13193E-02
 0.50030003E+02 -0.10006E-02
 0.50080006E+02 -0.13674E-04
 0.50130005E+02  0.76930E-03
 0.50180004E+02  0.64197E-03
 0.50230003E+02  0.88662E-04
 0.50280003E+02 -0.25739E-04
 0.50330006E+02  0.17158E-03
 0.50380005E+02  0.26594E-03
 0.50430004E+02  0.27981E-03
 0.50480003E+02  0.21875E-03
 0.50530003E+02  0.15258E-03
 0.50580006E+02 -0.61169E-05
 0.50630005E+02 -0.11780E-03
 0.50680004E+02 -0.11961E-03
 0.50730003E+02 -0.31782E-03
 0.50780003E+02 -0.52762E-03
 0.50830006E+02 -0.53290E-03
 0.50880005E+02 -0.57885E-03
 0.50930004E+02 -0.55299E-03
 0.50980003E+02  0.25564E-04
 0.51030003E+02  0.61015E-03
 0.51080006E+02  0.56868E-03
 0.51130005E+02  0.39769E-03
 0.51180004E+02  0.54757E-03
 0.51230003E+02  0.83459E-03
 0.51280003E+02  0.67623E-03
 0.51330006E+02  0.18680E-03
 0.51380005E+02 -0.80247E-04
 0.51430004E+02 -0.14690E-03
 0.51480003E+02 -0.15124E-03
 0.51530003E+02 -0.33015E-03
 0.51580006E+02 -0.58198E-03
 0.51630005E+02 -0.59959E-03
 0.51680004E+02 -0.41718E-03
 0.51730003E+02 -0.30060E-03
 0.51780003E+02 -0.40006E-03
 0.51830006E+02 -0.23176E-03
 0.51880005E+02  0.22338E-03
 0.51930004E+02  0.43168E-03
 0.51980003E+02  0.18866E-03
 0.52030003E+02 -0.20643E-03
 0.52080006E+02 -0.18535E-03
 0.52130005E+02  0.11171E-03
 0.52180004E+02  0.39942E-03
 0.52230003E+02  0.66461E-03
 0.52280003E+02  0.81848E-03
 0.52330006E+02  0.88531E-03
 0.52380005E+02  0.75311E-03
 0.52430004E+02  0.26765E-03
 0.52480003E+02 -0.45848E-03
 0.52530003E+02 -0.10293E-02
 0.52580006E+02 -0.10986E-02
 0.52630005E+02 -0.74265E-03
 0.52680004E+02 -0.35275E-03
 0.52730003E+02 -0.10764E-03
 0.52780003E+02  0.21289E-03
 0.52830006E+02  0.39631E-03
 0.52880005E+02  0.12326E-03
 0.52930004E+02 -0.19264E-03
 0.52980003E+02 -0.35839E-03
 0.53030003E+02 -0.49761E-03
 0.53080006E+02 -0.47691E-03
 0.53130005E+02 -0.29890E-03
 0.53180004E+02  0.35013E-04
 0.53230003E+02  0.49760E-03
 0.53280003E+02  0.85288E-03
 0.53330006E+02  0.86208E-03
 0.53380005E+02  0.57940E-03
 0.53430004E+02  0.32365E-03
 0.53480003E+02  0.14541E-03
 0.53530003E+02  0.65871E-05
 0.53580006E+02 -0.20769E-03
 0.53630005E+02 -0.48664E-03
 0.53680004E+02 -0.46175E-03
 0.53730003E+02 -0.24291E-03
 0.53780003E+02 -0.13045E-03
 0.53830006E+02 -0.99040E-04
 0.53880005E+02 -0.23642E-03
 0.53930004E+02 -0.37127E-03
 0.53980003E+02 -0.14599E-03
 0.54030003E+02  0.18846E-03
 0.54080006E+02  0.32476E-03
 0.54130005E+02  0.39206E-03
 0.54180004E+02  0.39661E-03
 0.54230003E+02  0.38812E-03
 0.54280003E+02  0.46602E-03
 0.54330006E+02  0.28853E-03
 0.54380005E+02 -0.79129E-04
 0.54430004E+02 -0.30444E-03
 0.54480003E+02 -0.40656E-03
 0.54530003E+02 -0.36844E-03
 0.54580006E+02 -0.29491E-03
 0.54630005E+02 -0.10493E-03
 0.54680004E+02  0.11439E-03
 0.54730003E+02 -0.18390E-04
 0.54780003E+02 -0.36762E-03
 0.54830006E+02 -0.58997E-03
 0.54880005E+02 -0.43005E-03
 0.54930004E+02 -0.59891E-04
 0.54980003E+02  0.22227E-03
 0.55030003E+02  0.36804E-03
 0.55080006E+02  0.36950E-03
 0.55130005E+02  0.41831E-03
 0.55180004E+02  0.33601E-03
 0.55230003E+02  0.34240E-04
 0.55280003E+02 -0.10003E-03
 0.55330006E+02 -0.49411E-04
 0.55380005E+02  0.10742E-03
 0.55430004E+02  0.26895E-03
 0.55480003E+02  0.20461E-03
 0.55530003E+02  0.41787E-04
 0.55580006E+02 -0.20304E-04
 0.55630005E+02  0.35412E-04
 0.55680004E+02  0.15526E-03
 0.55730003E+02  0.73776E-04
 0.55780003E+02 -0.16399E-03
 0.55830006E+02 -0.26797E-03
 0.55880005E+02 -0.28256E-03
 0.55930004E+02 -0.28504E-03
 0.55980003E+02 -0.20916E-03
 0.56030003E+02 -0.70724E-04
 0.56080006E+02 -0.27056E-04
 0.56130005E+02 -0.44264E-04
 0.56180004E+02  0.10897E-04
 0.56230003E+02  0.96833E-04
 0.56280003E+02  0.32728E-04
 0.56330006E+02 -0.14251E-03
 0.56380005E+02 -0.12868E-03
 0.56430004E+02  0.55782E-04
 0.56480003E+02  0.25960E-03
 0.56530003E+02  0.32376E-03
 0.56580006E+02  0.16429E-03
 0.56630005E+02 -0.11970E-04
 0.56680004E+02 -0.90327E-04
 0.56730003E+02 -0.67698E-04
 0.56780003E+02  0.10230E-04
 0.56830006E+02 -0.30741E-06
 0.56880005E+02 -0.77485E-04
 0.56930004E+02 -0.39152E-04
 0.56980003E+02  0.85890E-04
 0.57030003E+02  0.52794E-04
 0.57080006E+02 -0.16761E-03
 0.57130005E+02 -0.25207E-03
 0.57180004E+02 -0.23154E-04
 0.57230003E+02  0.16134E-03
 0.57280003E+02  0.87891E-04
 0.57330006E+02 -0.51586E-04
 0.57380005E+02 -0.12428E-03
 0.57430004E+02 -0.42466E-04
 0.57480003E+02  0.76324E-04
 0.57530003E+02  0.10681E-03
 0.57580006E+02  0.11832E-03
 0.57630005E+02  0.17397E-03
 0.57680004E+02  0.20379E-03
 0.57730003E+02  0.15592E-03
 0.57780003E+02  0.73544E-04
 0.57830006E+02 -0.13738E-03
 0.57880005E+02 -0.34595E-03
 0.57930004E+02 -0.39456E-03
 0.57980003E+02 -0.34018E-03
 0.58030003E+02 -0.17043E-03
 0.58080006E+02  0.34536E-04
 0.58130005E+02  0.16357E-03
 0.58180004E+02  0.19843E-03
 0.58230003E+02  0.18242E-03
 0.58280003E+02  0.15524E-03
 0.58330006E+02  0.13789E-03
 0.58380005E+02  0.15222E-03
 0.58430004E+02  0.10599E-03
 0.58480003E+02  0.32478E-04
 0.58530003E+02  0.32148E-04
 0.58580006E+02 -0.31105E-04
 0.58630005E+02 -0.14890E-03
 0.58680004E+02 -0.23538E-03
 0.58730003E+02 -0.28979E-03
 0.58780003E+02 -0.22887E-03
 0.58830006E+02 -0.74598E-04
 0.58880005E+02  0.13211E-03
 0.58930004E+02  0.30523E-03
 0.58980003E+02  0.36196E-03
 0.59030003E+02  0.38301E-03
 0.59080006E+02  0.22751E-03
 0.59130005E+02 -0.98914E-04
 0.59180004E+02 -0.26272E-03
 0.59230003E+02 -0.25420E-03
 0.59280003E+02 -0.21152E-03
 0.59330006E+02 -0.12131E-03
 0.59380005E+02 -0.80336E-05
 0.59430004E+02  0.29505E-06
 0.59480003E+02 -0.93551E-04
 0.59530003E+02 -0.17554E-03
 0.59580006E+02 -0.13043E-03
 0.59630005E+02  0.32909E-05
 0.59680004E+02  0.36264E-04
 0.59730003E+02  0.80288E-04
 0.59780003E+02  0.18319E-03
 0.59830006E+02  0.20188E-03
 0.59880005E+02  0.13342E-03
 0.59930004E+02 -0.24770E-05
 0.59980003E+02 -0.55043E-04
 0.60030003E+02  0.46980E-04
 0.60080006E+02  0.12481E-03
 0.60130005E+02  0.72302E-04
 0.60180004E+02 -0.47011E-04
 0.60230003E+02 -0.12423E-03
 0.60280003E+02 -0.11786E-03
 0.60330006E+02 -0.44342E-04
 0.60380005E+02  0.51630E-04
 0.60430004E+02  0.87443E-04
 0.60480003E+02  0.63878E-04
 0.60530003E+02  0.64975E-04
 0.60580006E+02  0.71962E-04
 0.60630005E+02  0.23477E-05
 0.60680004E+02 -0.53939E-04
 0.60730003E+02 -0.40189E-04
 0.60780003E+02 -0.85163E-04
 0.60830006E+02 -0.16809E-03
 0.60880005E+02 -0.20055E-03
 0.60930004E+02 -0.16878E-03
 0.60980003E+02 -0.65740E-04
 0.61030003E+02  0.37232E-04
 0.61080006E+02  0.85812E-04
 0.61130005E+02  0.99186E-04
 0.61180004E+02  0.49017E-04
 0.61230003E+02 -0.11492E-04
 0.61280003E+02  0.45891E-06
 0.61330006E+02  0.63442E-04
 0.61380005E+02  0.17049E-03
 0.61430004E+02  0.22241E-03
 0.61480003E+02  0.17983E-03
 0.61530003E+02  0.71426E-04
 0.61580006E+02 -0.10562E-03
 0.61630005E+02 -0.20161E-03
 0.61680004E+02 -0.16687E-03
 0.61730003E+02 -0.10980E-03
 0.61780003E+02 -0.87551E-04
 0.61830006E+02 -0.80829E-04
 0.61880005E+02 -0.58746E-04
 0.61930004E+02 -0.55016E-04
 0.61980003E+02 -0.70507E-04
 0.62030003E+02 -0.61702E-04
 0.62080006E+02 -0.11024E-04
 0.62130005E+02  0.60100E-04
 0.62180004E+02  0.10106E-03
 0.62230003E+02  0.11574E-03
 0.62280003E+02  0.13309E-03
 0.62330006E+02  0.14171E-03
 0.62380005E+02  0.13159E-03
 0.62430004E+02  0.11189E-03
 0.62480003E+02  0.86623E-04
 0.62530003E+02  0.45762E-04
 0.62580006E+02  0.70284E-05
 0.62630005E+02 -0.18958E-04
 0.62680004E+02 -0.67780E-04
 0.62730003E+02 -0.13911E-03
 0.62780003E+02 -0.15795E-03
 0.62830006E+02 -0.11055E-03
 0.62880005E+02 -0.54141E-04
 0.62930004E+02  0.13048E-04
 0.62980003E+02  0.53133E-04
 0.63030003E+02  0.57120E-04
 0.63080006E+02  0.96942E-04
 0.63130005E+02  0.14682E-03
 0.63180004E+02  0.16118E-03
 0.63230003E+02  0.95811E-04
 0.63280003E+02 -0.39723E-04
 0.63330006E+02 -0.11674E-03
 0.63380005E+02 -0.10973E-03
 0.63430004E+02 -0.71555E-04
 0.63480003E+02 -0.33725E-04
 0.63530003E+02 -0.19055E-05
 0.63580006E+02  0.47049E-04
 0.63630005E+02  0.54556E-04
 0.63680004E+02 -0.26092E-04
 0.63730003E+02 -0.12564E-03
 0.63780003E+02 -0.14176E-03
 0.63830006E+02 -0.67862E-04
 0.63880005E+02 -0.15020E-05
 0.63930004E+02 -0.30113E-08
 0.63980003E+02 -0.46972E-04
 0.64030006E+02 -0.93199E-04
 0.64080002E+02 -0.11865E-03
 0.64130005E+02 -0.14479E-03
 0.64180008E+02 -0.16865E-03
 0.64230003E+02 -0.17436E-03
 0.64280006E+02 -0.12168E-03
 0.64330002E+02  0.18991E-04
 0.64380005E+02  0.16997E-03
 0.64430008E+02  0.25356E-03
 0.64480003E+02  0.27182E-03
 0.64530006E+02  0.23506E-03
 0.64580002E+02  0.15627E-03
 0.64630005E+02  0.80895E-04
 0.64680008E+02  0.70112E-04
 0.64730003E+02  0.10368E-03
 0.64780006E+02  0.12621E-03
 0.64830002E+02  0.14067E-03
 0.64880005E+02  0.99922E-04
 0.64930008E+02 -0.14169E-04
 0.64980003E+02 -0.12202E-03
 0.65030006E+02 -0.17625E-03
 0.65080002E+02 -0.16532E-03
 0.65130005E+02 -0.11757E-03
 0.65180008E+02 -0.64150E-04
 0.65230003E+02 -0.25809E-04
 0.65280006E+02 -0.11874E-04
 0.65330002E+02 -0.23554E-05
 0.65380005E+02 -0.78270E-05
 0.65430008E+02 -0.13357E-04
 0.65480003E+02 -0.46705E-05
 0.65530006E+02  0.15199E-04
 0.65580002E+02  0.32176E-04
 0.65630005E+02 -0.55764E-06
 0.65680008E+02 -0.60120E-04
 0.65730003E+02 -0.10586E-03
 0.65780006E+02 -0.12059E-03
 0.65830002E+02 -0.11859E-03
 0.65880005E+02 -0.10735E-03
 0.65930008E+02 -0.51303E-04
 0.65980003E+02  0.22740E-04
 0.66030006E+02  0.91252E-04
 0.66080002E+02  0.15018E-03
 0.66130005E+02  0.17458E-03
 0.66180008E+02  0.14715E-03
 0.66230003E+02  0.68584E-04
 0.66280006E+02 -0.10895E-04
 0.66330002E+02 -0.36027E-04
 0.66380005E+02  0.83301E-05
 0.66430008E+02  0.76827E-04
 0.66480003E+02  0.92892E-04
 0.66530006E+02  0.42282E-04
 0.66580002E+02 -0.27209E-04
 0.66630005E+02 -0.80915E-04
 0.66680008E+02 -0.99102E-04
 0.66730003E+02 -0.75321E-04
 0.66780006E+02 -0.24093E-04
 0.66830002E+02  0.35272E-04
 0.66880005E+02  0.62926E-04
 0.66930008E+02  0.46313E-04
 0.66980003E+02  0.11356E-04
 0.67030006E+02 -0.10755E-04
 0.67080002E+02 -0.83539E-05
 0.67130005E+02 -0.80342E-05
 0.67180008E+02 -0.20362E-04
 0.67230003E+02 -0.31671E-04
 0.67280006E+02 -0.47693E-04
 0.67330002E+02 -0.71075E-04
 0.67380005E+02 -0.80135E-04
 0.67430008E+02 -0.50717E-04
 0.67480003E+02  0.65397E-05
 0.67530006E+02  0.39952E-04
 0.67580002E+02  0.33433E-04
 0.67630005E+02  0.50730E-05
 0.67680008E+02 -0.26446E-04
 0.67730003E+02 -0.65814E-04
 0.67780006E+02 -0.10610E-03
 0.67830002E+02 -0.88655E-04
 0.67880005E+02 -0.23800E-04
 0.67930008E+02  0.37476E-04
 0.67980003E+02  0.85698E-04
 0.68030006E+02  0.11818E-03
 0.68080002E+02  0.14672E-03
 0.68130005E+02  0.15686E-03
 0.68180008E+02  0.11701E-03
 0.68230003E+02  0.37581E-04
 0.68280006E+02 -0.53353E-04
 0.68330002E+02 -0.11031E-03
 0.68380005E+02 -0.11087E-03
 0.68430008E+02 -0.69696E-04
 0.68480003E+02 -0.10530E-04
 0.68530006E+02  0.26211E-04
 0.68580002E+02  0.29449E-04
 0.68630005E+02  0.25799E-04
 0.68680008E+02  0.31885E-04
 0.68730003E+02  0.97012E-05
 0.68780006E+02 -0.55267E-04
 0.68830002E+02 -0.93597E-04
 0.68880005E+02 -0.80638E-04
 0.68930008E+02 -0.38557E-04
 0.68980003E+02  0.24165E-04
 0.69030006E+02  0.71725E-04
 0.69080002E+02  0.92716E-04
 0.69130005E+02  0.91894E-04
 0.69180008E+02  0.44482E-04
 0.69230003E+02 -0.28766E-04
 0.69280006E+02 -0.78131E-04
 0.69330002E+02 -0.79203E-04
 0.69380005E+02 -0.57289E-04
 0.69430008E+02 -0.38930E-04
 0.69480003E+02 -0.14702E-04
 0.69530006E+02  0.25707E-05
 0.69580002E+02  0.23144E-04
 0.69630005E+02  0.52040E-04
 0.69680008E+02  0.73408E-04
 0.69730003E+02  0.94021E-04
 0.69780006E+02  0.10827E-03
 0.69830002E+02  0.11930E-03
 0.69880005E+02  0.10229E-03
 0.69930008E+02  0.33657E-04
 0.69980003E+02 -0.50910E-04
 0.70030006E+02 -0.12023E-03
 0.70080002E+02 -0.16066E-03
 0.70130005E+02 -0.16505E-03
 0.70180008E+02 -0.11274E-03
 0.70230003E+02 -0.21360E-04
 0.70280006E+02  0.29135E-04
 0.70330002E+02  0.36375E-04
 0.70380005E+02  0.35020E-04
 0.70430008E+02  0.36184E-04
 0.70480003E+02  0.52321E-04
 0.70530006E+02  0.52325E-04
 0.70580002E+02  0.34097E-04
 0.70630005E+02  0.20521E-04
 0.70680008E+02  0.23209E-04
 0.70730003E+02  0.27713E-04
 0.70780006E+02 -0.91081E-05
 0.70830002E+02 -0.71658E-04
 0.70880005E+02 -0.11571E-03
 0.70930008E+02 -0.11944E-03
 0.70980003E+02 -0.95159E-04
 0.71030006E+02 -0.63732E-04
 0.71080002E+02 -0.24474E-04
 0.71130005E+02  0.25091E-04
 0.71180008E+02  0.74881E-04
 0.71230003E+02  0.10821E-03
 0.71280006E+02  0.11130E-03
 0.71330002E+02  0.68830E-04
 0.71380005E+02 -0.60106E-06
 0.71430008E+02 -0.59919E-04
 0.71480003E+02 -0.96462E-04
 0.71530006E+02 -0.92331E-04
 0.71580002E+02 -0.42434E-04
 0.71630005E+02  0.80072E-05
 0.71680008E+02  0.53655E-04
 0.71730003E+02  0.10999E-03
 0.71780006E+02  0.14077E-03
 0.71830002E+02  0.13209E-03
 0.71880005E+02  0.99808E-04
 0.71930008E+02  0.64867E-04
 0.71980003E+02  0.42456E-04
 0.72030006E+02  0.23321E-04
 0.72080002E+02 -0.17983E-04
 0.72130005E+02 -0.78454E-04
 0.72180008E+02 -0.13572E-03
 0.72230003E+02 -0.17069E-03
 0.72280006E+02 -0.15147E-03
 0.72330002E+02 -0.10447E-03
 0.72380005E+02 -0.78838E-04
 0.72430008E+02 -0.75963E-04
 0.72480003E+02 -0.77712E-04
 0.72530006E+02 -0.48607E-04
 0.72580002E+02  0.59160E-05
 0.72630005E+02  0.56391E-04
 0.72680008E+02  0.10577E-03
 0.72730003E+02  0.14451E-03
 0.72780006E+02  0.13773E-03
 0.72830002E+02  0.94555E-04
 0.72880005E+02  0.63840E-04
 0.72930008E+02  0.54490E-04
 0.72980003E+02  0.69226E-04
 0.73030006E+02  0.92343E-04
 0.73080002E+02  0.92840E-04
 0.73130005E+02  0.70827E-04
 0.73180008E+02  0.25865E-04
 0.73230003E+02 -0.30483E-04
 0.73280006E+02 -0.80858E-04
 0.73330002E+02 -0.10720E-03
 0.73380005E+02 -0.10488E-03
 0.73430008E+02 -0.80057E-04
 0.73480003E+02 -0.36414E-04
 0.73530006E+02 -0.89217E-05
 0.73580002E+02 -0.13447E-04
 0.73630005E+02 -0.29244E-04
 0.73680008E+02 -0.52168E-04
 0.73730003E+02 -0.81148E-04
 0.73780006E+02 -0.86443E-04
 0.73830002E+02 -0.73018E-04
 0.73880005E+02 -0.71209E-04
 0.73930008E+02 -0.66937E-04
 0.73980003E+02 -0.60976E-04
 0.74030006E+02 -0.47722E-04
 0.74080002E+02 -0.99383E-05
 0.74130005E+02  0.39001E-04
 0.74180008E+02  0.81255E-04
 0.74230003E+02  0.10402E-03
 0.74280006E+02  0.11787E-03
 0.74330002E+02  0.11573E-03
 0.74380005E+02  0.86304E-04
 0.74430008E+02  0.45329E-04
 0.74480003E+02  0.12601E-04
 0.74530006E+02  0.26109E-04
 0.74580002E+02  0.86762E-04
 0.74630005E+02  0.13779E-03
 0.74680008E+02  0.13613E-03
 0.74730003E+02  0.90408E-04
 0.74780006E+02  0.38190E-04
 0.74830002E+02 -0.15611E-05
 0.74880005E+02 -0.30694E-04
 0.74930008E+02 -0.51180E-04
 0.74980003E+02 -0.66328E-04
 0.75030006E+02 -0.76975E-04
 0.75080002E+02 -0.83189E-04
 0.75130005E+02 -0.94241E-04
 0.75180008E+02 -0.11089E-03
 0.75230003E+02 -0.12184E-03
 0.75280006E+02 -0.12125E-03
 0.75330002E+02 -0.10443E-03
 0.75380005E+02 -0.73761E-04
 0.75430008E+02 -0.39800E-04
 0.75480003E+02 -0.15758E-04
 0.75530006E+02 -0.14486E-04
 0.75580002E+02 -0.22956E-04
 0.75630005E+02 -0.17059E-04
 0.75680008E+02  0.10981E-04
 0.75730003E+02  0.50505E-04
 0.75780006E+02  0.91070E-04
 0.75830002E+02  0.13369E-03
 0.75880005E+02  0.16443E-03
 0.75930008E+02  0.16500E-03
 0.75980003E+02  0.12724E-03
 0.76030006E+02  0.58977E-04
 0.76080002E+02 -0.18398E-04
 0.76130005E+02 -0.81581E-04
 0.76180008E+02 -0.10117E-03
 0.76230003E+02 -0.83868E-04
 0.76280006E+02 -0.61608E-04
 0.76330002E+02 -0.42130E-04
 0.76380005E+02 -0.29992E-04
 0.76430008E+02 -0.16817E-04
 0.76480003E+02  0.93106E-05
 0.76530006E+02  0.21898E-04
 0.76580002E+02  0.86511E-05
 0.76630005E+02 -0.31171E-05
 0.76680008E+02  0.20211E-05
 0.76730003E+02  0.15132E-04
 0.76780006E+02  0.17129E-04
 0.76830002E+02  0.99245E-05
 0.76880005E+02  0.60330E-05
 0.76930008E+02  0.45926E-05
 0.76980003E+02  0.59019E-05
 0.77030006E+02  0.84171E-05
 0.77080002E+02  0.10605E-04
 0.77130005E+02  0.91419E-05
 0.77180008E+02  0.52275E-05
 0.77230003E+02  0.51967E-05
 0.77280006E+02  0.13155E-04
 0.77330002E+02  0.31183E-04
 0.77380005E+02  0.53743E-04
 0.77430008E+02  0.70818E-04
 0.77480003E+02  0.66373E-04
 0.77530006E+02  0.28284E-04
 0.77580002E+02 -0.28675E-04
 0.77630005E+02 -0.74683E-04
 0.77680008E+02 -0.95570E-04
 0.77730003E+02 -0.93427E-04
 0.77780006E+02 -0.81298E-04
 0.77830002E+02 -0.59889E-04
 0.77880005E+02 -0.29319E-04
 0.77930008E+02 -0.75051E-05
 0.77980003E+02  0.56693E-05
 0.78030006E+02  0.67232E-05
 0.78080002E+02 -0.96825E-05
 0.78130005E+02 -0.29583E-04
 0.78180008E+02 -0.40584E-04
 0.78230003E+02 -0.34528E-04
 0.78280006E+02 -0.10330E-04
 0.78330002E+02  0.26573E-04
 0.78380005E+02  0.67535E-04
 0.78430008E+02  0.10246E-03
 0.78480003E+02  0.10767E-03
 0.78530006E+02  0.78309E-04
 0.78580002E+02  0.42079E-04
 0.78630005E+02  0.21913E-04
 0.78680008E+02  0.27344E-04
 0.78730003E+02  0.37611E-04
 0.78780006E+02  0.28547E-04
 0.78830002E+02  0.17075E-05
 0.78880005E+02 -0.21066E-04
 0.78930008E+02 -0.22193E-04
 0.78980003E+02 -0.12937E-04
 0.79030006E+02 -0.11336E-04
 0.79080002E+02 -0.22304E-04
 0.79130005E+02 -0.39218E-04
 0.79180008E+02 -0.60246E-04
 0.79230003E+02 -0.79196E-04
 0.79280006E+02 -0.85547E-04
 0.79330002E+02 -0.83809E-04
 0.79380005E+02 -0.74253E-04
 0.79430008E+02 -0.52733E-04
 0.79480003E+02 -0.30840E-04
 0.79530006E+02 -0.14744E-04
 0.79580002E+02  0.12025E-05
 0.79630005E+02  0.19644E-04
 0.79680008E+02  0.46593E-04
 0.79730003E+02  0.78330E-04
 0.79780006E+02  0.99350E-04
 0.79830002E+02  0.10023E-03
 0.79880005E+02  0.83854E-04
 0.79930008E+02  0.59132E-04
 0.79980003E+02  0.29035E-04
 0.80030006E+02  0.10066E-05
 0.80080002E+02 -0.13125E-04
 0.80130005E+02 -0.18633E-04
 0.80180008E+02 -0.19357E-04
 0.80230003E+02 -0.13190E-04
 0.80280006E+02 -0.16366E-04
 0.80330002E+02 -0.34507E-04
 0.80380005E+02 -0.48497E-04
 0.80430008E+02 -0.46777E-04
 0.80480003E+02 -0.32423E-04
 0.80530006E+02 -0.56930E-05
 0.80580002E+02  0.28610E-04
 0.80630005E+02  0.50136E-04
 0.80680008E+02  0.46755E-04
 0.80730003E+02  0.30344E-04
 0.80780006E+02  0.82619E-05
 0.80830002E+02 -0.20053E-04
 0.80880005E+02 -0.41302E-04
 0.80930008E+02 -0.46013E-04
 0.80980003E+02 -0.32594E-04
 0.81030006E+02 -0.71557E-05
 0.81080002E+02  0.14531E-04
 0.81130005E+02  0.23288E-04
 0.81180008E+02  0.16668E-04
 0.81230003E+02 -0.20721E-05
 0.81280006E+02 -0.18537E-04
 0.81330002E+02 -0.20662E-04
 0.81380005E+02 -0.12725E-04
 0.81430008E+02  0.12069E-05
 0.81480003E+02  0.21561E-04
 0.81530006E+02  0.35906E-04
 0.81580002E+02  0.31353E-04
 0.81630005E+02  0.17348E-04
 0.81680008E+02  0.77395E-05
 0.81730003E+02  0.27827E-05
 0.81780006E+02  0.43128E-05
 0.81830002E+02  0.10024E-04
 0.81880005E+02  0.50133E-05
 0.81930008E+02 -0.11251E-04
 0.81980003E+02 -0.26931E-04
 0.82030006E+02 -0.33630E-04
 0.82080002E+02 -0.30577E-04
 0.82130005E+02 -0.25081E-04
 0.82180008E+02 -0.15062E-04
 0.82230003E+02 -0.49480E-05
 0.82280006E+02 -0.43206E-05
 0.82330002E+02 -0.11264E-04
 0.82380005E+02 -0.21267E-04
 0.82430008E+02 -0.25516E-04
 0.82480003E+02 -0.15328E-04
 0.82530006E+02  0.12840E-04
 0.82580002E+02  0.43362E-04
 0.82630005E+02  0.55602E-04
 0.82680008E+02  0.49064E-04
 0.82730003E+02  0.35842E-04
 0.82780006E+02  0.29117E-04
 0.82830002E+02  0.24865E-04
 0.82880005E+02  0.20994E-04
 0.82930008E+02  0.21097E-04
 0.82980003E+02  0.16624E-04
 0.83030006E+02  0.90927E-05
 0.83080002E+02  0.58378E-05
 0.83130005E+02  0.52049E-05
 0.83180008E+02  0.47440E-05
 0.83230003E+02  0.63732E-05
 0.83280006E+02  0.33408E-05
 0.83330002E+02 -0.67409E-05
 0.83380005E+02 -0.16745E-04
 0.83430008E+02 -0.32520E-04
 0.83480003E+02 -0.47769E-04
 0.83530006E+02 -0.57730E-04
 0.83580002E+02 -0.70951E-04
 0.83630005E+02 -0.81737E-04
 0.83680008E+02 -0.83256E-04
 0.83730003E+02 -0.70334E-04
 0.83780006E+02 -0.42509E-04
 0.83830002E+02 -0.91095E-05
 0.83880005E+02  0.17652E-04
 0.83930008E+02  0.30059E-04
 0.83980003E+02  0.31315E-04
 0.84030006E+02  0.31715E-04
 0.84080002E+02  0.37726E-04
 0.84130005E+02  0.46571E-04
 0.84180008E+02  0.60415E-04
 0.84230003E+02  0.76298E-04
 0.84280006E+02  0.78132E-04
 0.84330002E+02  0.61312E-04
 0.84380005E+02  0.33712E-04
 0.84430008E+02  0.51772E-05
 0.84480003E+02 -0.18134E-04
 0.84530006E+02 -0.31826E-04
 0.84580002E+02 -0.30399E-04
 0.84630005E+02 -0.24155E-04
 0.84680008E+02 -0.21933E-04
 0.84730003E+02 -0.15403E-04
 0.84780006E+02 -0.78360E-05
 0.84830002E+02 -0.50355E-05
 0.84880005E+02 -0.72818E-05
 0.84930008E+02 -0.16971E-04
 0.84980003E+02 -0.29591E-04
 0.85030006E+02 -0.40896E-04
 0.85080002E+02 -0.45215E-04
 0.85130005E+02 -0.40009E-04
 0.85180008E+02 -0.26164E-04
 0.85230003E+02 -0.34432E-05
 0.85280006E+02  0.13962E-04
 0.85330002E+02  0.17749E-04
 0.85380005E+02  0.16499E-04
 0.85430008E+02  0.10267E-04
 0.85480003E+02 -0.24160E-05
 0.85530006E+02 -0.97862E-05
 0.85580002E+02  0.14218E-05
 0.85630005E+02  0.34124E-04
 0.85680008E+02  0.75932E-04
 0.85730003E+02  0.99262E-04
 0.85780006E+02  0.95602E-04
 0.85830002E+02  0.80387E-04
 0.85880005E+02  0.60858E-04
 0.85930008E+02  0.39046E-04
 0.85980003E+02  0.84959E-05
 0.86030006E+02 -0.31561E-04
 0.86080002E+02 -0.68353E-04
 0.86130005E+02 -0.93692E-04
 0.86180008E+02 -0.94951E-04
 0.86230003E+02 -0.69504E-04
 0.86280006E+02 -0.35106E-04
 0.86330002E+02 -0.77529E-05
 0.86380005E+02  0.60086E-05
 0.86430008E+02  0.71667E-05
 0.86480003E+02  0.19165E-05
 0.86530006E+02 -0.40841E-05
 0.86580002E+02 -0.65764E-05
 0.86630005E+02 -0.33086E-05
 0.86680008E+02 -0.70376E-07
 0.86730003E+02 -0.24854E-05
 0.86780006E+02 -0.10813E-04
 0.86830002E+02 -0.20967E-04
 0.86880005E+02 -0.26095E-04
 0.86930008E+02 -0.25846E-04
 0.86980003E+02 -0.19148E-04
 0.87030006E+02 -0.70551E-05
 0.87080002E+02  0.53749E-05
 0.87130005E+02  0.13915E-04
 0.87180008E+02  0.12573E-04
 0.87230003E+02  0.80146E-05
 0.87280006E+02  0.50081E-05
 0.87330002E+02  0.16515E-05
 0.87380005E+02  0.73564E-05
 0.87430008E+02  0.17567E-04
 0.87480003E+02  0.16012E-04
 0.87530006E+02  0.48249E-05
 0.87580002E+02 -0.11704E-05
 0.87630005E+02  0.51151E-05
 0.87680008E+02  0.15903E-04
 0.87730003E+02  0.23740E-04
 0.87780006E+02  0.29365E-04
 0.87830002E+02  0.32192E-04
 0.87880005E+02  0.31325E-04
 0.87930008E+02  0.29198E-04
 0.87980003E+02  0.26369E-04
 0.88030006E+02  0.17648E-04
 0.88080002E+02  0.26654E-05
 0.88130005E+02 -0.83893E-05
 0.88180008E+02 -0.13675E-04
 0.88230003E+02 -0.17377E-04
 0.88280006E+02 -0.22428E-04
 0.88330002E+02 -0.30014E-04
 0.88380005E+02 -0.33204E-04
 0.88430008E+02 -0.31623E-04
 0.88480003E+02 -0.24543E-04
 0.88530006E+02 -0.84498E-05
 0.88580002E+02  0.10578E-04
 0.88630005E+02  0.22690E-04
 0.88680008E+02  0.19973E-04
 0.88730003E+02  0.65018E-05
 0.88780006E+02 -0.11810E-04
 0.88830002E+02 -0.31201E-04
 0.88880005E+02 -0.42084E-04
 0.88930008E+02 -0.36353E-04
 0.88980003E+02 -0.15938E-04
 0.89030006E+02  0.51259E-05
 0.89080002E+02  0.17873E-04
 0.89130005E+02  0.19392E-04
 0.89180008E+02  0.10658E-04
 0.89230003E+02  0.51470E-06
 0.89280006E+02 -0.51611E-05
 0.89330002E+02 -0.58446E-05
 0.89380005E+02 -0.93371E-06
 0.89430008E+02  0.12408E-04
 0.89480003E+02  0.26071E-04
 0.89530006E+02  0.29502E-04
 0.89580002E+02  0.22127E-04
 0.89630005E+02  0.46284E-05
 0.89680008E+02 -0.13073E-04
 0.89730003E+02 -0.16112E-04
 0.89780006E+02 -0.35743E-05
 0.89830002E+02  0.12615E-04
 0.89880005E+02  0.21645E-04
 0.89930008E+02  0.20516E-04
 0.89980003E+02  0.14385E-04
 0.90030006E+02  0.11379E-04
 0.90080002E+02  0.91260E-05
 0.90130005E+02  0.10358E-05
 0.90180008E+02 -0.86818E-05
 0.90230003E+02 -0.15003E-04
 0.90280006E+02 -0.20027E-04
 0.90330002E+02 -0.23443E-04
 0.90380005E+02 -0.20785E-04
 0.90430008E+02 -0.16039E-04
 0.90480003E+02 -0.12952E-04
 0.90530006E+02 -0.11634E-04
 0.90580002E+02 -0.14433E-04
 0.90630005E+02 -0.11783E-04
 0.90680008E+02 -0.19622E-06
 0.90730003E+02  0.86661E-05
 0.90780006E+02  0.11456E-04
 0.90830002E+02  0.12567E-04
 0.90880005E+02  0.12083E-04
 0.90930008E+02  0.14339E-04
 0.90980003E+02  0.26077E-04
 0.91030006E+02  0.38945E-04
 0.91080002E+02  0.45147E-04
 0.91130005E+02  0.40534E-04
 0.91180008E+02  0.21080E-04
 0.91230003E+02 -0.32555E-05
 0.91280006E+02 -0.22698E-04
 0.91330002E+02 -0.33297E-04
 0.91380005E+02 -0.33582E-04
 0.91430008E+02 -0.27655E-04
 0.91480003E+02 -0.18476E-04
 0.91530006E+02 -0.84815E-05
 0.91580002E+02 -0.41749E-05
 0.91630005E+02 -0.93308E-05
 0.91680008E+02 -0.15360E-04
 0.91730003E+02 -0.15048E-04
 0.91780006E+02 -0.10561E-04
 0.91830002E+02 -0.55296E-05
 0.91880005E+02 -0.22184E-05
 0.91930008E+02 -0.60730E-06
 0.91980003E+02 -0.30945E-05
 0.92030006E+02 -0.62014E-05
 0.92080002E+02 -0.35847E-05
 0.92130005E+02  0.20485E-05
 0.92180008E+02  0.72510E-05
 0.92230003E+02  0.10165E-04
 0.92280006E+02  0.10366E-04
 0.92330002E+02  0.91554E-05
 0.92380005E+02  0.36424E-05
 0.92430008E+02 -0.73535E-05
 0.92480003E+02 -0.15403E-04
 0.92530006E+02 -0.11929E-04
 0.92580002E+02  0.34806E-06
 0.92630005E+02  0.12264E-04
 0.92680008E+02  0.21204E-04
 0.92730003E+02  0.24364E-04
 0.92780006E+02  0.15440E-04
 0.92830002E+02 -0.37939E-06
 0.92880005E+02 -0.13310E-04
 0.92930008E+02 -0.18499E-04
 0.92980003E+02 -0.14906E-04
 0.93030006E+02 -0.71596E-05
 0.93080002E+02 -0.30368E-05
 0.93130005E+02 -0.53940E-05
 0.93180008E+02 -0.95198E-05
 0.93230003E+02 -0.12347E-04
 0.93280006E+02 -0.81354E-05
 0.93330002E+02  0.62940E-05
 0.93380005E+02  0.20178E-04
 0.93430008E+02  0.29643E-04
 0.93480003E+02  0.38098E-04
 0.93530006E+02  0.40574E-04
 0.93580002E+02  0.35476E-04
 0.93630005E+02  0.26228E-04
 0.93680008E+02  0.16140E-04
 0.93730003E+02  0.78769E-05
 0.93780006E+02 -0.31791E-05
 0.93830002E+02 -0.15979E-04
 0.93880005E+02 -0.27386E-04
 0.93930008E+02 -0.37658E-04
 0.93980003E+02 -0.40333E-04
 0.94030006E+02 -0.36733E-04
 0.94080002E+02 -0.27401E-04
 0.94130005E+02 -0.15030E-04
 0.94180008E+02 -0.98350E-05
 0.94230003E+02 -0.68281E-05
 0.94280006E+02  0.17028E-06
 0.94330002E+02  0.97771E-05
 0.94380005E+02  0.15674E-04
 0.94430008E+02  0.11585E-04
 0.94480003E+02  0.11279E-05
 0.94530006E+02 -0.85775E-05
 0.94580002E+02 -0.95907E-05
 0.94630005E+02 -0.61596E-05
 0.94680008E+02 -0.55399E-05
 0.94730003E+02 -0.24268E-05
 0.94780006E+02  0.46813E-05
 0.94830002E+02  0.13524E-04
 0.94880005E+02  0.17348E-04
 0.94930008E+02  0.15042E-04
 0.94980003E+02  0.13379E-04
 0.95030006E+02  0.12705E-04
 0.95080002E+02  0.15320E-04
 0.95130005E+02  0.17413E-04
 0.95180008E+02  0.13572E-04
 0.95230003E+02  0.27600E-05
 0.95280006E+02 -0.10140E-04
 0.95330002E+02 -0.12538E-04
 0.95380005E+02 -0.44358E-05
 0.95430008E+02  0.75050E-05
 0.95480003E+02  0.16811E-04
 0.95530006E+02  0.20305E-04
 0.95580002E+02  0.18988E-04
 0.95630005E+02  0.10591E-04
 0.95680008E+02 -0.33717E-05
 0.95730003E+02 -0.17938E-04
 0.95780006E+02 -0.26147E-04
 0.95830002E+02 -0.25048E-04
 0.95880005E+02 -0.20591E-04
 0.95930008E+02 -0.20169E-04
 0.95980003E+02 -0.28760E-04
 0.96030006E+02 -0.40372E-04
 0.96080002E+02 -0.40505E-04
 0.96130005E+02 -0.29178E-04
 0.96180008E+02 -0.19654E-04
 0.96230003E+02 -0.14876E-04
 0.96280006E+02 -0.10931E-04
 0.96330002E+02 -0.40825E-05
 0.96380005E+02  0.93419E-05
 0.96430008E+02  0.26616E-04
 0.96480003E+02  0.46145E-04
 0.96530006E+02  0.64261E-04
 0.96580002E+02  0.75265E-04
 0.96630005E+02  0.81813E-04
 0.96680008E+02  0.83078E-04
 0.96730003E+02  0.73226E-04
 0.96780006E+02  0.48860E-04
 0.96830002E+02  0.94891E-05
 0.96880005E+02 -0.34520E-04
 0.96930008E+02 -0.71291E-04
 0.96980003E+02 -0.98069E-04
 0.97030006E+02 -0.10783E-03
 0.97080002E+02 -0.94594E-04
 0.97130005E+02 -0.63658E-04
 0.97180008E+02 -0.27326E-04
 0.97230003E+02  0.10487E-05
 0.97280006E+02  0.15412E-04
 0.97330002E+02  0.16916E-04
 0.97380005E+02  0.13834E-04
 0.97430008E+02  0.12929E-04
 0.97480003E+02  0.16150E-04
 0.97530006E+02  0.24028E-04
 0.97580002E+02  0.31392E-04
 0.97630005E+02  0.35981E-04
 0.97680008E+02  0.38247E-04
 0.97730003E+02  0.37014E-04
 0.97780006E+02  0.34750E-04
 0.97830002E+02  0.30460E-04
 0.97880005E+02  0.17556E-04
 0.97930008E+02 -0.18720E-05
 0.97980003E+02 -0.17918E-04
 0.98030006E+02 -0.27006E-04
 0.98080002E+02 -0.32672E-04
 0.98130005E+02 -0.37593E-04
 0.98180008E+02 -0.39501E-04
 0.98230003E+02 -0.34999E-04
 0.98280006E+02 -0.26172E-04
 0.98330002E+02 -0.17666E-04
 0.98380005E+02 -0.10597E-04
 0.98430008E+02 -0.32721E-05
 0.98480003E+02  0.39418E-05
 0.98530006E+02  0.70462E-05
 0.98580002E+02  0.66566E-05
 0.98630005E+02  0.65223E-05
 0.98680008E+02  0.81511E-05
 0.98730003E+02  0.12430E-04
 0.98780006E+02  0.21611E-04
 0.98830002E+02  0.34635E-04
 0.98880005E+02  0.43486E-04
 0.98930008E+02  0.45262E-04
 0.98980003E+02  0.36870E-04
 0.99030006E+02  0.17740E-04
 0.99080002E+02 -0.16281E-05
 0.99130005E+02 -0.10495E-04
 0.99180008E+02 -0.67623E-05
 0.99230003E+02  0.73987E-07
 0.99280006E+02  0.35092E-05
 0.99330002E+02  0.56150E-06
 0.99380005E+02 -0.75560E-05
 0.99430008E+02 -0.16552E-04
 0.99480003E+02 -0.26798E-04
 0.99530006E+02 -0.34280E-04
 0.99580002E+02 -0.37582E-04
 0.99630005E+02 -0.36964E-04
 0.99680008E+02 -0.30830E-04
 0.99730003E+02 -0.21386E-04
 0.99780006E+02 -0.11856E-04
 0.99830002E+02 -0.56209E-05
 0.99880005E+02 -0.25172E-05
 0.99930008E+02 -0.38582E-05
 0.99980003E+02 -0.10216E-04
