-0.19996643E-01  0.29506E-07
 0.30003358E-01  0.77626E-08
 0.80003358E-01 -0.18215E-07
 0.13000336E+00 -0.32812E-07
 0.18000336E+00 -0.38136E-07
 0.23000336E+00 -0.27680E-07
 0.28000337E+00 -0.15372E-08
 0.33000335E+00  0.12751E-07
 0.38000336E+00  0.20290E-07
 0.43000337E+00  0.29500E-07
 0.48000336E+00  0.37840E-07
 0.53000337E+00  0.46554E-07
 0.58000338E+00  0.44800E-07
 0.63000339E+00  0.35673E-07
 0.68000335E+00  0.40164E-07
 0.73000336E+00  0.39617E-07
 0.78000337E+00  0.26076E-07
 0.83000338E+00  0.25104E-07
 0.88000339E+00  0.23065E-07
 0.93000335E+00  0.15901E-07
 0.98000336E+00  0.68266E-08
 0.10300034E+01 -0.73474E-08
 0.10800034E+01 -0.16648E-07
 0.11300033E+01 -0.31484E-07
 0.11800034E+01 -0.48276E-07
 0.12300034E+01 -0.64575E-07
 0.12800034E+01 -0.80248E-07
 0.13300034E+01 -0.82653E-07
 0.13800033E+01 -0.79957E-07
 0.14300034E+01 -0.84414E-07
 0.14800034E+01 -0.94902E-07
 0.15300034E+01 -0.10241E-06
 0.15800034E+01 -0.88992E-07
 0.16300033E+01 -0.62830E-07
 0.16800034E+01 -0.43605E-07
 0.17300034E+01 -0.21367E-07
 0.17800034E+01 -0.12394E-07
 0.18300034E+01 -0.14650E-07
 0.18800033E+01 -0.10854E-09
 0.19300034E+01  0.20434E-07
 0.19800034E+01  0.34970E-07
 0.20300033E+01  0.42484E-07
 0.20800035E+01  0.49094E-07
 0.21300035E+01  0.59397E-07
 0.21800034E+01  0.62234E-07
 0.22300034E+01  0.61056E-07
 0.22800033E+01  0.65202E-07
 0.23300035E+01  0.71630E-07
 0.23800035E+01  0.75403E-07
 0.24300034E+01  0.73566E-07
 0.24800034E+01  0.76286E-07
 0.25300033E+01  0.79107E-07
 0.25800035E+01  0.73160E-07
 0.26300035E+01  0.60067E-07
 0.26800034E+01  0.53649E-07
 0.27300034E+01  0.56031E-07
 0.27800033E+01  0.41849E-07
 0.28300035E+01  0.23788E-07
 0.28800035E+01  0.38882E-08
 0.29300034E+01 -0.17593E-07
 0.29800034E+01 -0.24152E-07
 0.30300033E+01 -0.23417E-07
 0.30800035E+01 -0.25467E-07
 0.31300035E+01 -0.30941E-07
 0.31800034E+01 -0.33367E-07
 0.32300034E+01 -0.39247E-07
 0.32800033E+01 -0.39065E-07
 0.33300035E+01 -0.28805E-07
 0.33800035E+01 -0.20712E-07
 0.34300034E+01 -0.14257E-07
 0.34800034E+01 -0.71708E-08
 0.35300033E+01 -0.90552E-08
 0.35800035E+01 -0.23547E-07
 0.36300035E+01 -0.28147E-07
 0.36800034E+01 -0.28236E-07
 0.37300034E+01 -0.37033E-07
 0.37800033E+01 -0.43302E-07
 0.38300035E+01 -0.44045E-07
 0.38800035E+01 -0.33177E-07
 0.39300034E+01 -0.18538E-07
 0.39800034E+01 -0.16467E-07
 0.40300035E+01 -0.10413E-07
 0.40800033E+01 -0.32917E-08
 0.41300035E+01 -0.32638E-08
 0.41800036E+01 -0.98226E-09
 0.42300034E+01  0.37623E-08
 0.42800035E+01  0.13308E-07
 0.43300033E+01  0.13157E-07
 0.43800035E+01  0.63995E-08
 0.44300036E+01  0.65549E-08
 0.44800034E+01  0.10731E-07
 0.45300035E+01  0.12348E-07
 0.45800033E+01  0.10391E-07
 0.46300035E+01  0.20911E-07
 0.46800036E+01  0.34184E-07
 0.47300034E+01  0.36548E-07
 0.47800035E+01  0.34527E-07
 0.48300033E+01  0.37263E-07
 0.48800035E+01  0.35624E-07
 0.49300036E+01  0.27708E-07
 0.49800034E+01  0.14400E-07
 0.50300035E+01 -0.46981E-08
 0.50800033E+01 -0.13567E-07
 0.51300035E+01 -0.23770E-07
 0.51800036E+01 -0.40613E-07
 0.52300034E+01 -0.55958E-07
 0.52800035E+01 -0.62105E-07
 0.53300033E+01 -0.69665E-07
 0.53800035E+01 -0.76723E-07
 0.54300036E+01 -0.63077E-07
 0.54800034E+01 -0.53261E-07
 0.55300035E+01 -0.41886E-07
 0.55800033E+01 -0.30426E-07
 0.56300035E+01 -0.26235E-07
 0.56800036E+01 -0.38271E-08
 0.57300034E+01  0.24662E-07
 0.57800035E+01  0.55563E-07
 0.58300033E+01  0.77723E-07
 0.58800035E+01  0.80688E-07
 0.59300036E+01  0.77308E-07
 0.59800034E+01  0.63326E-07
 0.60300035E+01  0.61481E-07
 0.60800033E+01  0.57360E-07
 0.61300035E+01  0.44504E-07
 0.61800036E+01  0.38289E-07
 0.62300034E+01  0.19017E-07
 0.62800035E+01  0.57303E-08
 0.63300033E+01 -0.50530E-08
 0.63800035E+01 -0.13564E-07
 0.64300036E+01 -0.67253E-08
 0.64800034E+01 -0.98047E-08
 0.65300035E+01 -0.75895E-08
 0.65800033E+01 -0.33574E-08
 0.66300035E+01 -0.11582E-07
 0.66800036E+01 -0.16727E-07
 0.67300034E+01 -0.25087E-07
 0.67800035E+01 -0.25232E-07
 0.68300033E+01 -0.21896E-07
 0.68800035E+01 -0.18198E-07
 0.69300036E+01 -0.13764E-07
 0.69800034E+01 -0.25827E-07
 0.70300035E+01 -0.28085E-07
 0.70800033E+01 -0.28679E-07
 0.71300035E+01 -0.30559E-07
 0.71800036E+01 -0.20303E-07
 0.72300034E+01 -0.14296E-07
 0.72800035E+01 -0.10295E-07
 0.73300033E+01 -0.20990E-08
 0.73800035E+01  0.14535E-07
 0.74300036E+01  0.22234E-07
 0.74800034E+01  0.17379E-07
 0.75300035E+01  0.24479E-07
 0.75800033E+01  0.32469E-07
 0.76300035E+01  0.23777E-07
 0.76800036E+01  0.17293E-07
 0.77300034E+01  0.49406E-08
 0.77800035E+01 -0.28197E-07
 0.78300033E+01 -0.40380E-07
 0.78800035E+01 -0.51154E-07
 0.79300036E+01 -0.66964E-07
 0.79800034E+01 -0.61717E-07
 0.80300035E+01 -0.68806E-07
 0.80800037E+01 -0.71027E-07
 0.81300039E+01 -0.52935E-07
 0.81800032E+01 -0.37880E-07
 0.82300034E+01 -0.22179E-07
 0.82800035E+01 -0.49240E-08
 0.83300037E+01  0.14144E-07
 0.83800039E+01  0.39848E-07
 0.84300032E+01  0.51531E-07
 0.84800034E+01  0.54684E-07
 0.85300035E+01  0.64322E-07
 0.85800037E+01  0.65737E-07
 0.86300039E+01  0.68568E-07
 0.86800032E+01  0.71681E-07
 0.87300034E+01  0.68319E-07
 0.87800035E+01  0.67280E-07
 0.88300037E+01  0.63610E-07
 0.88800039E+01  0.66955E-07
 0.89300032E+01  0.73128E-07
 0.89800034E+01  0.72213E-07
 0.90300035E+01  0.70629E-07
 0.90800037E+01  0.62938E-07
 0.91300039E+01  0.51749E-07
 0.91800032E+01  0.37413E-07
 0.92300034E+01  0.20010E-07
 0.92800035E+01  0.16247E-07
 0.93300037E+01  0.33218E-08
 0.93800039E+01 -0.24849E-07
 0.94300032E+01 -0.41521E-07
 0.94800034E+01 -0.53081E-07
 0.95300035E+01 -0.63436E-07
 0.95800037E+01 -0.74989E-07
 0.96300039E+01 -0.82178E-07
 0.96800032E+01 -0.88193E-07
 0.97300034E+01 -0.97976E-07
 0.97800035E+01 -0.10098E-06
 0.98300037E+01 -0.10080E-06
 0.98800039E+01 -0.95192E-07
 0.99300032E+01 -0.85948E-07
 0.99800034E+01 -0.75917E-07
 0.10030004E+02 -0.53177E-07
 0.10080004E+02 -0.23513E-07
 0.10130004E+02  0.28051E-08
 0.10180003E+02  0.26464E-07
 0.10230003E+02  0.49119E-07
 0.10280004E+02  0.73713E-07
 0.10330004E+02  0.84566E-07
 0.10380004E+02  0.82931E-07
 0.10430003E+02  0.73219E-07
 0.10480003E+02  0.60909E-07
 0.10530004E+02  0.47920E-07
 0.10580004E+02  0.33138E-07
 0.10630004E+02  0.21996E-07
 0.10680003E+02  0.58781E-08
 0.10730003E+02 -0.83340E-08
 0.10780004E+02 -0.13577E-07
 0.10830004E+02 -0.21053E-07
 0.10880004E+02 -0.35365E-07
 0.10930003E+02 -0.45705E-07
 0.10980003E+02 -0.55071E-07
 0.11030004E+02 -0.61657E-07
 0.11080004E+02 -0.60327E-07
 0.11130004E+02 -0.54228E-07
 0.11180003E+02 -0.56567E-07
 0.11230003E+02 -0.51322E-07
 0.11280004E+02 -0.30826E-07
 0.11330004E+02 -0.28814E-07
 0.11380004E+02 -0.21606E-07
 0.11430003E+02 -0.14647E-07
 0.11480003E+02 -0.11009E-07
 0.11530004E+02  0.42175E-08
 0.11580004E+02  0.12243E-07
 0.11630004E+02  0.17008E-07
 0.11680003E+02  0.23901E-07
 0.11730003E+02  0.36809E-07
 0.11780004E+02  0.49337E-07
 0.11830004E+02  0.58812E-07
 0.11880004E+02  0.69771E-07
 0.11930003E+02  0.77800E-07
 0.11980003E+02  0.81302E-07
 0.12030004E+02  0.82221E-07
 0.12080004E+02  0.79408E-07
 0.12130004E+02  0.72225E-07
 0.12180003E+02  0.53010E-07
 0.12230003E+02  0.35827E-07
 0.12280004E+02  0.24531E-07
 0.12330004E+02  0.14715E-07
 0.12380004E+02  0.14242E-07
 0.12430003E+02 -0.14152E-08
 0.12480003E+02 -0.14346E-07
 0.12530004E+02 -0.13080E-07
 0.12580004E+02 -0.18823E-07
 0.12630004E+02 -0.12588E-07
 0.12680003E+02 -0.85790E-08
 0.12730003E+02 -0.77202E-08
 0.12780004E+02  0.42588E-08
 0.12830004E+02  0.41939E-08
 0.12880004E+02 -0.71927E-08
 0.12930003E+02 -0.11716E-07
 0.12980003E+02 -0.14877E-07
 0.13030004E+02 -0.25917E-07
 0.13080004E+02 -0.29514E-07
 0.13130004E+02 -0.34654E-07
 0.13180003E+02 -0.32565E-07
 0.13230003E+02 -0.22604E-07
 0.13280004E+02 -0.31813E-07
 0.13330004E+02 -0.42369E-07
 0.13380004E+02 -0.50138E-07
 0.13430003E+02 -0.54496E-07
 0.13480003E+02 -0.47309E-07
 0.13530004E+02 -0.36497E-07
 0.13580004E+02 -0.35438E-07
 0.13630004E+02 -0.28309E-07
 0.13680003E+02 -0.16058E-07
 0.13730003E+02 -0.11115E-07
 0.13780004E+02 -0.46493E-08
 0.13830004E+02  0.52747E-08
 0.13880004E+02  0.20423E-07
 0.13930003E+02  0.28297E-07
 0.13980003E+02  0.29273E-07
 0.14030004E+02  0.20542E-07
 0.14080004E+02  0.16494E-07
 0.14130004E+02  0.29386E-07
 0.14180003E+02  0.33292E-07
 0.14230003E+02  0.29319E-07
 0.14280004E+02  0.26818E-07
 0.14330004E+02  0.24661E-07
 0.14380004E+02  0.22297E-07
 0.14430003E+02  0.25995E-07
 0.14480003E+02  0.26478E-07
 0.14530004E+02  0.20859E-07
 0.14580004E+02  0.14578E-07
 0.14630004E+02  0.61763E-08
 0.14680003E+02 -0.31107E-08
 0.14730003E+02 -0.12620E-07
 0.14780004E+02 -0.22709E-07
 0.14830004E+02 -0.35160E-07
 0.14880004E+02 -0.41923E-07
 0.14930003E+02 -0.47096E-07
 0.14980003E+02 -0.50833E-07
 0.15030004E+02 -0.56952E-07
 0.15080004E+02 -0.61905E-07
 0.15130004E+02 -0.48500E-07
 0.15180003E+02 -0.42812E-07
 0.15230003E+02 -0.39127E-07
 0.15280004E+02 -0.24214E-07
 0.15330004E+02 -0.17507E-07
 0.15380004E+02 -0.95980E-08
 0.15430003E+02  0.40514E-08
 0.15480003E+02  0.12680E-07
 0.15530004E+02  0.25001E-07
 0.15580004E+02  0.35899E-07
 0.15630004E+02  0.35601E-07
 0.15680003E+02  0.43558E-07
 0.15730003E+02  0.49966E-07
 0.15780004E+02  0.53264E-07
 0.15830004E+02  0.54502E-07
 0.15880004E+02  0.50118E-07
 0.15930003E+02  0.49084E-07
 0.15980003E+02  0.45078E-07
 0.16030005E+02  0.46894E-07
 0.16080004E+02  0.44692E-07
 0.16130003E+02  0.42891E-07
 0.16180004E+02  0.41894E-07
 0.16230003E+02  0.27481E-07
 0.16280005E+02  0.16830E-07
 0.16330004E+02  0.30427E-08
 0.16380003E+02 -0.13249E-07
 0.16430004E+02 -0.24635E-07
 0.16480003E+02 -0.37565E-07
 0.16530005E+02 -0.48643E-07
 0.16580004E+02 -0.50440E-07
 0.16630003E+02 -0.42937E-07
 0.16680004E+02 -0.38278E-07
 0.16730003E+02 -0.38019E-07
 0.16780005E+02 -0.36601E-07
 0.16830004E+02 -0.32550E-07
 0.16880003E+02 -0.26537E-07
 0.16930004E+02 -0.18347E-07
 0.16980003E+02 -0.18826E-07
 0.17030005E+02 -0.16019E-07
 0.17080004E+02 -0.41261E-08
 0.17130003E+02 -0.21712E-08
 0.17180004E+02  0.10265E-07
 0.17230003E+02  0.21219E-07
 0.17280005E+02  0.22537E-07
 0.17330004E+02  0.28977E-07
 0.17380003E+02  0.20973E-07
 0.17430004E+02  0.15956E-07
 0.17480003E+02  0.13257E-07
 0.17530005E+02  0.64587E-08
 0.17580004E+02  0.12187E-07
 0.17630003E+02  0.13081E-07
 0.17680004E+02  0.63990E-08
 0.17730003E+02 -0.70071E-08
 0.17780005E+02 -0.27852E-07
 0.17830004E+02 -0.36381E-07
 0.17880003E+02 -0.32124E-07
 0.17930004E+02 -0.24611E-07
 0.17980003E+02 -0.13813E-07
 0.18030005E+02 -0.41764E-08
 0.18080004E+02  0.29399E-08
 0.18130003E+02  0.15474E-07
 0.18180004E+02  0.30275E-07
 0.18230003E+02  0.38737E-07
 0.18280005E+02  0.43654E-07
 0.18330004E+02  0.45703E-07
 0.18380003E+02  0.44546E-07
 0.18430004E+02  0.34821E-07
 0.18480003E+02  0.18982E-07
 0.18530005E+02  0.12102E-07
 0.18580004E+02  0.23146E-08
 0.18630003E+02 -0.13155E-07
 0.18680004E+02 -0.24622E-07
 0.18730003E+02 -0.36804E-07
 0.18780005E+02 -0.40859E-07
 0.18830004E+02 -0.41378E-07
 0.18880003E+02 -0.47794E-07
 0.18930004E+02 -0.46469E-07
 0.18980003E+02 -0.41885E-07
 0.19030005E+02 -0.38583E-07
 0.19080004E+02 -0.27161E-07
 0.19130003E+02 -0.14252E-07
 0.19180004E+02  0.77734E-09
 0.19230003E+02  0.14557E-07
 0.19280005E+02  0.22025E-07
 0.19330004E+02  0.26246E-07
 0.19380003E+02  0.23642E-07
 0.19430004E+02  0.35685E-07
 0.19480003E+02  0.51750E-07
 0.19530005E+02  0.48689E-07
 0.19580004E+02  0.45417E-07
 0.19630003E+02  0.37468E-07
 0.19680004E+02  0.28359E-07
 0.19730003E+02  0.23642E-07
 0.19780005E+02  0.15514E-07
 0.19830004E+02  0.64537E-08
 0.19880003E+02 -0.82820E-08
 0.19930004E+02 -0.17268E-07
 0.19980003E+02 -0.27247E-07
 0.20030005E+02 -0.28857E-07
 0.20080004E+02 -0.23569E-07
 0.20130003E+02 -0.28291E-07
 0.20180004E+02 -0.31448E-07
 0.20230003E+02 -0.37752E-07
 0.20280005E+02 -0.30156E-07
 0.20330004E+02 -0.22061E-07
 0.20380003E+02 -0.18099E-07
 0.20430004E+02 -0.66990E-08
 0.20480003E+02 -0.50538E-08
 0.20530005E+02  0.42131E-08
 0.20580004E+02  0.16223E-07
 0.20630003E+02  0.21821E-07
 0.20680004E+02  0.22858E-07
 0.20730003E+02  0.20086E-07
 0.20780005E+02  0.18896E-07
 0.20830004E+02  0.13412E-07
 0.20880003E+02  0.12125E-08
 0.20930004E+02 -0.17718E-07
 0.20980003E+02 -0.32638E-07
 0.21030005E+02 -0.38585E-07
 0.21080004E+02 -0.42301E-07
 0.21130003E+02 -0.50894E-07
 0.21180004E+02 -0.54518E-07
 0.21230003E+02 -0.50261E-07
 0.21280005E+02 -0.47296E-07
 0.21330004E+02 -0.30987E-07
 0.21380003E+02 -0.64291E-08
 0.21430004E+02  0.12239E-07
 0.21480003E+02  0.18826E-07
 0.21530005E+02  0.23339E-07
 0.21580004E+02  0.38169E-07
 0.21630003E+02  0.52420E-07
 0.21680004E+02  0.55547E-07
 0.21730003E+02  0.53090E-07
 0.21780005E+02  0.54655E-07
 0.21830004E+02  0.51869E-07
 0.21880003E+02  0.55322E-07
 0.21930004E+02  0.59097E-07
 0.21980003E+02  0.55369E-07
 0.22030005E+02  0.53734E-07
 0.22080004E+02  0.42165E-07
 0.22130003E+02  0.38563E-07
 0.22180004E+02  0.41360E-07
 0.22230003E+02  0.34028E-07
 0.22280005E+02  0.27993E-07
 0.22330004E+02  0.20873E-07
 0.22380003E+02  0.20634E-07
 0.22430004E+02  0.18823E-07
 0.22480003E+02  0.91442E-08
 0.22530005E+02  0.10013E-08
 0.22580004E+02 -0.23115E-07
 0.22630003E+02 -0.42530E-07
 0.22680004E+02 -0.49364E-07
 0.22730003E+02 -0.58787E-07
 0.22780005E+02 -0.61910E-07
 0.22830004E+02 -0.65544E-07
 0.22880003E+02 -0.70615E-07
 0.22930004E+02 -0.74200E-07
 0.22980003E+02 -0.68136E-07
 0.23030005E+02 -0.52769E-07
 0.23080004E+02 -0.48281E-07
 0.23130003E+02 -0.51532E-07
 0.23180004E+02 -0.48076E-07
 0.23230003E+02 -0.47201E-07
 0.23280005E+02 -0.41247E-07
 0.23330004E+02 -0.36717E-07
 0.23380003E+02 -0.41470E-07
 0.23430004E+02 -0.24574E-07
 0.23480003E+02 -0.55595E-08
 0.23530005E+02 -0.10131E-07
 0.23580004E+02 -0.12248E-07
 0.23630003E+02 -0.11422E-07
 0.23680004E+02 -0.77725E-08
 0.23730003E+02  0.11004E-07
 0.23780005E+02  0.30969E-07
 0.23830004E+02  0.39484E-07
 0.23880003E+02  0.50981E-07
 0.23930004E+02  0.63865E-07
 0.23980003E+02  0.65998E-07
 0.24030005E+02  0.69469E-07
 0.24080004E+02  0.64513E-07
 0.24130003E+02  0.53951E-07
 0.24180004E+02  0.46045E-07
 0.24230003E+02  0.30871E-07
 0.24280005E+02  0.16858E-07
 0.24330004E+02  0.95181E-08
 0.24380003E+02  0.58476E-08
 0.24430004E+02 -0.45818E-08
 0.24480003E+02 -0.62993E-08
 0.24530005E+02 -0.38925E-08
 0.24580004E+02  0.16542E-09
 0.24630003E+02  0.85590E-08
 0.24680004E+02 -0.69603E-08
 0.24730003E+02 -0.17355E-07
 0.24780005E+02 -0.17424E-07
 0.24830004E+02 -0.26876E-07
 0.24880003E+02 -0.14968E-07
 0.24930004E+02  0.32790E-08
 0.24980003E+02  0.19088E-08
 0.25030005E+02  0.70813E-08
 0.25080004E+02  0.76282E-08
 0.25130003E+02  0.43639E-08
 0.25180004E+02  0.10726E-07
 0.25230003E+02  0.19950E-07
 0.25280005E+02  0.20460E-07
 0.25330004E+02  0.19944E-07
 0.25380003E+02  0.48233E-07
 0.25430004E+02  0.27676E-07
 0.25480003E+02  0.35886E-07
 0.25530005E+02  0.23057E-07
 0.25580004E+02  0.33993E-07
 0.25630003E+02  0.44280E-07
 0.25680004E+02 -0.65194E-08
 0.25730003E+02  0.28674E-07
 0.25780005E+02 -0.46529E-07
 0.25830004E+02  0.20620E-06
 0.25880003E+02  0.66895E-06
 0.25930004E+02  0.18751E-05
 0.25980003E+02  0.25739E-05
 0.26030005E+02  0.19437E-05
 0.26080004E+02  0.17256E-05
 0.26130003E+02  0.57223E-06
 0.26180004E+02 -0.76665E-06
 0.26230003E+02 -0.41403E-05
 0.26280005E+02 -0.62972E-05
 0.26330004E+02 -0.34199E-05
 0.26380003E+02 -0.29630E-05
 0.26430004E+02  0.70098E-06
 0.26480003E+02  0.36456E-05
 0.26530005E+02 -0.18345E-05
 0.26580004E+02 -0.18335E-05
 0.26630003E+02 -0.24864E-05
 0.26680004E+02 -0.61546E-06
 0.26730003E+02  0.71840E-05
 0.26780005E+02  0.25253E-05
 0.26830004E+02  0.39020E-05
 0.26880003E+02  0.64369E-05
 0.26930004E+02  0.87867E-06
 0.26980003E+02  0.55514E-06
 0.27030005E+02 -0.26796E-05
 0.27080004E+02  0.17356E-05
 0.27130003E+02  0.38109E-05
 0.27180004E+02  0.60663E-05
 0.27230003E+02  0.18076E-04
 0.27280005E+02  0.86163E-05
 0.27330004E+02 -0.84612E-05
 0.27380003E+02 -0.72558E-05
 0.27430004E+02 -0.94560E-05
 0.27480003E+02  0.55057E-05
 0.27530005E+02  0.30023E-04
 0.27580004E+02  0.35084E-04
 0.27630003E+02  0.28337E-04
 0.27680004E+02 -0.32571E-04
 0.27730003E+02 -0.57248E-04
 0.27780005E+02 -0.59945E-04
 0.27830004E+02 -0.73507E-04
 0.27880003E+02 -0.21685E-04
 0.27930004E+02 -0.14258E-04
 0.27980003E+02 -0.91547E-05
 0.28030005E+02 -0.21138E-05
 0.28080004E+02  0.46917E-05
 0.28130003E+02  0.45667E-05
 0.28180004E+02  0.35943E-05
 0.28230003E+02  0.92135E-04
 0.28280005E+02  0.27147E-04
 0.28330004E+02 -0.37994E-04
 0.28380003E+02  0.65827E-04
 0.28430004E+02  0.92249E-04
 0.28480003E+02  0.48942E-04
 0.28530005E+02  0.29813E-04
 0.28580004E+02 -0.19902E-04
 0.28630003E+02 -0.12636E-03
 0.28680004E+02 -0.11689E-03
 0.28730003E+02 -0.66797E-04
 0.28780005E+02 -0.21283E-04
 0.28830004E+02  0.61561E-04
 0.28880003E+02  0.79468E-04
 0.28930004E+02  0.88738E-04
 0.28980003E+02  0.14422E-03
 0.29030005E+02  0.71689E-04
 0.29080004E+02 -0.86040E-04
 0.29130003E+02 -0.68283E-04
 0.29180004E+02 -0.59546E-04
 0.29230003E+02 -0.81258E-04
 0.29280005E+02 -0.77604E-04
 0.29330004E+02 -0.67107E-04
 0.29380003E+02 -0.13140E-03
 0.29430004E+02 -0.36296E-04
 0.29480003E+02  0.28117E-03
 0.29530005E+02  0.21908E-03
 0.29580004E+02  0.70361E-04
 0.29630003E+02 -0.65063E-04
 0.29680004E+02 -0.16511E-03
 0.29730003E+02 -0.44341E-04
 0.29780005E+02 -0.16199E-05
 0.29830004E+02 -0.87515E-05
 0.29880003E+02 -0.71061E-05
 0.29930004E+02  0.86809E-05
 0.29980003E+02  0.51776E-05
 0.30030005E+02  0.56358E-04
 0.30080004E+02  0.45322E-04
 0.30130003E+02 -0.46209E-04
 0.30180004E+02 -0.79256E-04
 0.30230003E+02 -0.12347E-03
 0.30280005E+02 -0.41341E-04
 0.30330004E+02  0.84181E-04
 0.30380003E+02  0.16972E-03
 0.30430004E+02  0.19824E-03
 0.30480003E+02  0.10864E-03
 0.30530005E+02 -0.15547E-04
 0.30580004E+02 -0.11227E-03
 0.30630003E+02 -0.80876E-04
 0.30680004E+02 -0.85821E-04
 0.30730003E+02 -0.86699E-04
 0.30780005E+02  0.25119E-04
 0.30830004E+02  0.50066E-05
 0.30880003E+02 -0.40264E-04
 0.30930004E+02  0.44678E-04
 0.30980003E+02  0.12488E-03
 0.31030005E+02 -0.92863E-05
 0.31080004E+02 -0.19540E-03
 0.31130003E+02 -0.16629E-03
 0.31180004E+02 -0.84239E-04
 0.31230003E+02 -0.53124E-05
 0.31280005E+02  0.66486E-04
 0.31330004E+02  0.82285E-04
 0.31380003E+02  0.14198E-03
 0.31430004E+02  0.18470E-03
 0.31480003E+02  0.95169E-04
 0.31530005E+02  0.18329E-04
 0.31580004E+02 -0.43028E-04
 0.31630003E+02 -0.53336E-04
 0.31680004E+02  0.15966E-04
 0.31730003E+02 -0.19227E-04
 0.31780005E+02 -0.88941E-04
 0.31830004E+02 -0.13522E-03
 0.31880003E+02 -0.37525E-04
 0.31930004E+02  0.41439E-04
 0.31980003E+02  0.61806E-04
 0.32030003E+02  0.57887E-04
 0.32080006E+02 -0.11760E-03
 0.32130005E+02 -0.49081E-04
 0.32180004E+02  0.67772E-04
 0.32230003E+02  0.99791E-05
 0.32280003E+02 -0.23726E-04
 0.32330006E+02 -0.32817E-04
 0.32380005E+02  0.18323E-04
 0.32430004E+02 -0.24725E-04
 0.32480003E+02  0.58334E-04
 0.32530003E+02  0.86650E-04
 0.32580006E+02 -0.83210E-04
 0.32630005E+02  0.24478E-04
 0.32680004E+02  0.85587E-04
 0.32730003E+02  0.69329E-05
 0.32780003E+02  0.30545E-04
 0.32830006E+02  0.12081E-03
 0.32880005E+02  0.10394E-03
 0.32930004E+02  0.24942E-05
 0.32980003E+02  0.52219E-04
 0.33030003E+02 -0.25631E-04
 0.33080006E+02 -0.13982E-03
 0.33130005E+02 -0.14524E-03
 0.33180004E+02 -0.12316E-03
 0.33230003E+02 -0.37408E-04
 0.33280003E+02 -0.13827E-03
 0.33330006E+02 -0.24751E-03
 0.33380005E+02 -0.12032E-04
 0.33430004E+02  0.22988E-03
 0.33480003E+02  0.19283E-03
 0.33530003E+02  0.15316E-03
 0.33580006E+02  0.11226E-03
 0.33630005E+02 -0.61582E-04
 0.33680004E+02 -0.75935E-04
 0.33730003E+02  0.81529E-04
 0.33780003E+02  0.15609E-04
 0.33830006E+02 -0.23357E-03
 0.33880005E+02 -0.18821E-03
 0.33930004E+02 -0.17310E-04
 0.33980003E+02 -0.11860E-06
 0.34030003E+02  0.12390E-03
 0.34080006E+02  0.20320E-03
 0.34130005E+02  0.83372E-04
 0.34180004E+02 -0.13899E-04
 0.34230003E+02  0.47078E-04
 0.34280003E+02  0.77402E-04
 0.34330006E+02 -0.25726E-04
 0.34380005E+02 -0.12089E-03
 0.34430004E+02 -0.18989E-03
 0.34480003E+02 -0.10905E-03
 0.34530003E+02  0.95288E-04
 0.34580006E+02  0.18032E-03
 0.34630005E+02  0.13729E-03
 0.34680004E+02  0.15585E-04
 0.34730003E+02 -0.16022E-03
 0.34780003E+02 -0.99973E-04
 0.34830006E+02  0.11116E-03
 0.34880005E+02  0.11456E-03
 0.34930004E+02 -0.13236E-03
 0.34980003E+02 -0.23464E-03
 0.35030003E+02 -0.75061E-04
 0.35080006E+02 -0.92422E-04
 0.35130005E+02  0.49721E-04
 0.35180004E+02  0.23630E-03
 0.35230003E+02  0.67083E-04
 0.35280003E+02 -0.32810E-04
 0.35330006E+02  0.67694E-04
 0.35380005E+02  0.17790E-03
 0.35430004E+02  0.85465E-04
 0.35480003E+02  0.10986E-04
 0.35530003E+02 -0.74530E-04
 0.35580006E+02 -0.24963E-03
 0.35630005E+02 -0.18249E-03
 0.35680004E+02 -0.90389E-04
 0.35730003E+02 -0.36670E-04
 0.35780003E+02  0.55476E-04
 0.35830006E+02  0.10108E-03
 0.35880005E+02  0.10841E-03
 0.35930004E+02  0.87131E-04
 0.35980003E+02  0.94813E-04
 0.36030003E+02 -0.41870E-06
 0.36080006E+02 -0.68963E-04
 0.36130005E+02  0.47770E-04
 0.36180004E+02  0.59556E-04
 0.36230003E+02 -0.25217E-04
 0.36280003E+02  0.60402E-05
 0.36330006E+02 -0.10995E-04
 0.36380005E+02 -0.12743E-03
 0.36430004E+02 -0.14994E-03
 0.36480003E+02 -0.70054E-04
 0.36530003E+02  0.54649E-04
 0.36580006E+02  0.10582E-03
 0.36630005E+02  0.66171E-04
 0.36680004E+02 -0.81214E-05
 0.36730003E+02 -0.71746E-04
 0.36780003E+02 -0.12424E-04
 0.36830006E+02  0.13926E-03
 0.36880005E+02  0.19975E-03
 0.36930004E+02  0.67049E-04
 0.36980003E+02 -0.75554E-04
 0.37030003E+02 -0.16845E-03
 0.37080006E+02 -0.16210E-03
 0.37130005E+02 -0.59717E-04
 0.37180004E+02 -0.98087E-05
 0.37230003E+02  0.26642E-04
 0.37280003E+02 -0.80187E-05
 0.37330006E+02 -0.31791E-04
 0.37380005E+02  0.18179E-04
 0.37430004E+02  0.56300E-04
 0.37480003E+02  0.11795E-03
 0.37530003E+02  0.85923E-04
 0.37580006E+02 -0.41977E-04
 0.37630005E+02 -0.69052E-04
 0.37680004E+02 -0.18018E-04
 0.37730003E+02  0.39682E-04
 0.37780003E+02  0.60178E-04
 0.37830006E+02 -0.61810E-05
 0.37880005E+02 -0.64826E-04
 0.37930004E+02 -0.19127E-05
 0.37980003E+02  0.95121E-04
 0.38030003E+02  0.28055E-04
 0.38080006E+02 -0.12963E-03
 0.38130005E+02 -0.13984E-03
 0.38180004E+02 -0.29294E-04
 0.38230003E+02  0.14532E-04
 0.38280003E+02  0.12799E-03
 0.38330006E+02  0.20064E-03
 0.38380005E+02 -0.63305E-05
 0.38430004E+02 -0.93794E-04
 0.38480003E+02  0.51819E-05
 0.38530003E+02  0.68805E-04
 0.38580006E+02  0.81367E-04
 0.38630005E+02 -0.73807E-05
 0.38680004E+02 -0.11802E-03
 0.38730003E+02 -0.20157E-03
 0.38780003E+02 -0.21314E-03
 0.38830006E+02 -0.48974E-04
 0.38880005E+02  0.30486E-04
 0.38930004E+02 -0.45108E-04
 0.38980003E+02  0.53614E-04
 0.39030003E+02  0.14960E-03
 0.39080006E+02  0.15466E-03
 0.39130005E+02  0.10967E-03
 0.39180004E+02 -0.42728E-04
 0.39230003E+02 -0.10511E-03
 0.39280003E+02 -0.79057E-04
 0.39330006E+02  0.27482E-05
 0.39380005E+02  0.13627E-03
 0.39430004E+02  0.19445E-03
 0.39480003E+02  0.57038E-04
 0.39530003E+02 -0.68307E-04
 0.39580006E+02 -0.88345E-04
 0.39630005E+02 -0.10894E-03
 0.39680004E+02  0.55192E-04
 0.39730003E+02  0.21880E-03
 0.39780003E+02  0.13099E-03
 0.39830006E+02 -0.73313E-04
 0.39880005E+02 -0.21228E-03
 0.39930004E+02 -0.21661E-03
 0.39980003E+02 -0.13247E-03
 0.40030003E+02 -0.47518E-04
 0.40080006E+02  0.58860E-05
 0.40130005E+02  0.54864E-04
 0.40180004E+02  0.48024E-04
 0.40230003E+02  0.13558E-03
 0.40280003E+02  0.19217E-03
 0.40330006E+02  0.17146E-04
 0.40380005E+02 -0.11061E-03
 0.40430004E+02 -0.99263E-04
 0.40480003E+02 -0.55267E-05
 0.40530003E+02  0.59174E-05
 0.40580006E+02  0.37248E-05
 0.40630005E+02  0.39926E-04
 0.40680004E+02 -0.99224E-04
 0.40730003E+02 -0.65007E-04
 0.40780003E+02  0.17534E-03
 0.40830006E+02  0.17649E-03
 0.40880005E+02  0.35169E-04
 0.40930004E+02 -0.36444E-05
 0.40980003E+02 -0.71781E-04
 0.41030003E+02 -0.20233E-03
 0.41080006E+02 -0.16722E-03
 0.41130005E+02 -0.62987E-04
 0.41180004E+02 -0.22518E-04
 0.41230003E+02  0.62466E-04
 0.41280003E+02  0.13605E-03
 0.41330006E+02  0.10186E-03
 0.41380005E+02  0.23142E-04
 0.41430004E+02 -0.60674E-04
 0.41480003E+02  0.35230E-05
 0.41530003E+02  0.17526E-03
 0.41580006E+02  0.11873E-03
 0.41630005E+02 -0.17019E-04
 0.41680004E+02 -0.80220E-04
 0.41730003E+02 -0.88106E-04
 0.41780003E+02 -0.13333E-05
 0.41830006E+02 -0.53768E-05
 0.41880005E+02 -0.22222E-04
 0.41930004E+02 -0.77700E-04
 0.41980003E+02 -0.13436E-03
 0.42030003E+02 -0.35611E-04
 0.42080006E+02 -0.10126E-04
 0.42130005E+02  0.17325E-04
 0.42180004E+02  0.87987E-04
 0.42230003E+02  0.73951E-04
 0.42280003E+02  0.21263E-05
 0.42330006E+02  0.31322E-05
 0.42380005E+02  0.23488E-04
 0.42430004E+02 -0.27209E-04
 0.42480003E+02  0.10651E-04
 0.42530003E+02  0.59728E-04
 0.42580006E+02  0.76535E-04
 0.42630005E+02  0.65406E-04
 0.42680004E+02  0.81855E-05
 0.42730003E+02 -0.47744E-04
 0.42780003E+02 -0.11108E-03
 0.42830006E+02 -0.85695E-04
 0.42880005E+02  0.45799E-04
 0.42930004E+02  0.95522E-04
 0.42980003E+02  0.17999E-04
 0.43030003E+02 -0.60672E-04
 0.43080006E+02 -0.46853E-04
 0.43130005E+02  0.13169E-04
 0.43180004E+02  0.23312E-04
 0.43230003E+02  0.22134E-04
 0.43280003E+02 -0.47374E-04
 0.43330006E+02 -0.13095E-03
 0.43380005E+02 -0.84100E-04
 0.43430004E+02  0.63959E-04
 0.43480003E+02  0.10864E-03
 0.43530003E+02 -0.35623E-04
 0.43580006E+02 -0.90518E-04
 0.43630005E+02 -0.45012E-04
 0.43680004E+02  0.56423E-04
 0.43730003E+02  0.16448E-03
 0.43780003E+02  0.20096E-03
 0.43830006E+02  0.16879E-03
 0.43880005E+02 -0.88593E-04
 0.43930004E+02 -0.19440E-03
 0.43980003E+02 -0.10501E-03
 0.44030003E+02 -0.12245E-03
 0.44080006E+02 -0.16476E-04
 0.44130005E+02  0.74612E-04
 0.44180004E+02  0.88323E-04
 0.44230003E+02  0.77241E-04
 0.44280003E+02 -0.34021E-04
 0.44330006E+02 -0.60169E-04
 0.44380005E+02 -0.70237E-04
 0.44430004E+02 -0.89057E-04
 0.44480003E+02 -0.30556E-04
 0.44530003E+02  0.13626E-04
 0.44580006E+02  0.90082E-04
 0.44630005E+02  0.16337E-03
 0.44680004E+02  0.97870E-04
 0.44730003E+02 -0.45612E-04
 0.44780003E+02 -0.97835E-04
 0.44830006E+02 -0.24508E-04
 0.44880005E+02  0.73422E-04
 0.44930004E+02  0.12213E-03
 0.44980003E+02  0.63750E-04
 0.45030003E+02 -0.34040E-04
 0.45080006E+02 -0.85606E-04
 0.45130005E+02 -0.11310E-03
 0.45180004E+02 -0.16126E-03
 0.45230003E+02 -0.17278E-03
 0.45280003E+02 -0.73393E-04
 0.45330006E+02 -0.93605E-05
 0.45380005E+02  0.16678E-04
 0.45430004E+02  0.42841E-04
 0.45480003E+02  0.53799E-04
 0.45530003E+02  0.65977E-04
 0.45580006E+02  0.77528E-04
 0.45630005E+02  0.14368E-03
 0.45680004E+02  0.13940E-03
 0.45730003E+02  0.15483E-03
 0.45780003E+02  0.17089E-03
 0.45830006E+02  0.30563E-04
 0.45880005E+02 -0.79854E-04
 0.45930004E+02 -0.19589E-03
 0.45980003E+02 -0.23888E-03
 0.46030003E+02 -0.13187E-03
 0.46080006E+02 -0.83524E-04
 0.46130005E+02 -0.77983E-04
 0.46180004E+02 -0.87138E-05
 0.46230003E+02  0.52023E-04
 0.46280003E+02  0.31783E-04
 0.46330006E+02  0.61637E-04
 0.46380005E+02  0.12522E-03
 0.46430004E+02  0.15275E-03
 0.46480003E+02  0.18716E-03
 0.46530003E+02  0.17635E-03
 0.46580006E+02  0.63447E-04
 0.46630005E+02 -0.10073E-03
 0.46680004E+02 -0.18493E-03
 0.46730003E+02 -0.16283E-03
 0.46780003E+02 -0.10723E-03
 0.46830006E+02 -0.10372E-03
 0.46880005E+02 -0.92612E-04
 0.46930004E+02 -0.70070E-05
 0.46980003E+02  0.63636E-04
 0.47030003E+02  0.72940E-05
 0.47080006E+02 -0.15352E-03
 0.47130005E+02 -0.23083E-03
 0.47180004E+02 -0.22384E-03
 0.47230003E+02 -0.67226E-04
 0.47280003E+02  0.23208E-03
 0.47330006E+02  0.38250E-03
 0.47380005E+02  0.41993E-03
 0.47430004E+02  0.32738E-03
 0.47480003E+02  0.96671E-04
 0.47530003E+02 -0.14910E-04
 0.47580006E+02 -0.51584E-05
 0.47630005E+02 -0.77885E-05
 0.47680004E+02 -0.10860E-03
 0.47730003E+02 -0.22481E-03
 0.47780003E+02 -0.35814E-03
 0.47830006E+02 -0.47334E-03
 0.47880005E+02 -0.48427E-03
 0.47930004E+02 -0.45488E-03
 0.47980003E+02 -0.21665E-03
 0.48030003E+02  0.11541E-03
 0.48080006E+02  0.35019E-03
 0.48130005E+02  0.50632E-03
 0.48180004E+02  0.50304E-03
 0.48230003E+02  0.38849E-03
 0.48280003E+02  0.27819E-03
 0.48330006E+02  0.25584E-03
 0.48380005E+02  0.27678E-03
 0.48430004E+02  0.34172E-03
 0.48480003E+02  0.38089E-03
 0.48530003E+02  0.15626E-03
 0.48580006E+02 -0.18894E-03
 0.48630005E+02 -0.36223E-03
 0.48680004E+02 -0.47359E-03
 0.48730003E+02 -0.68969E-03
 0.48780003E+02 -0.77155E-03
 0.48830006E+02 -0.58272E-03
 0.48880005E+02 -0.24959E-03
 0.48930004E+02  0.14373E-03
 0.48980003E+02  0.31010E-03
 0.49030003E+02  0.46942E-03
 0.49080006E+02  0.73718E-03
 0.49130005E+02  0.60406E-03
 0.49180004E+02  0.27799E-03
 0.49230003E+02  0.57425E-04
 0.49280003E+02 -0.52141E-04
 0.49330006E+02 -0.26352E-03
 0.49380005E+02 -0.51834E-03
 0.49430004E+02 -0.39821E-03
 0.49480003E+02 -0.20760E-03
 0.49530003E+02 -0.74932E-05
 0.49580006E+02  0.19581E-03
 0.49630005E+02  0.14566E-03
 0.49680004E+02  0.10130E-03
 0.49730003E+02  0.57752E-04
 0.49780003E+02 -0.90147E-04
 0.49830006E+02 -0.25107E-03
 0.49880005E+02 -0.36977E-03
 0.49930004E+02 -0.36261E-03
 0.49980003E+02 -0.27030E-03
 0.50030003E+02 -0.66620E-04
 0.50080006E+02  0.19214E-03
 0.50130005E+02  0.27579E-03
 0.50180004E+02  0.29270E-03
 0.50230003E+02  0.39760E-03
 0.50280003E+02  0.27523E-03
 0.50330006E+02 -0.12368E-03
 0.50380005E+02 -0.40437E-03
 0.50430004E+02 -0.25244E-03
 0.50480003E+02  0.46683E-03
 0.50530003E+02  0.10083E-02
 0.50580006E+02  0.60992E-03
 0.50630005E+02 -0.13468E-03
 0.50680004E+02 -0.47293E-03
 0.50730003E+02 -0.35998E-03
 0.50780003E+02 -0.55180E-04
 0.50830006E+02  0.13343E-03
 0.50880005E+02 -0.10723E-03
 0.50930004E+02 -0.47835E-03
 0.50980003E+02 -0.40984E-03
 0.51030003E+02 -0.16307E-03
 0.51080006E+02 -0.51454E-04
 0.51130005E+02  0.61383E-04
 0.51180004E+02  0.32943E-03
 0.51230003E+02  0.44848E-03
 0.51280003E+02  0.14022E-03
 0.51330006E+02 -0.22303E-03
 0.51380005E+02 -0.39774E-03
 0.51430004E+02 -0.42069E-03
 0.51480003E+02 -0.43535E-03
 0.51530003E+02 -0.42850E-03
 0.51580006E+02 -0.18578E-03
 0.51630005E+02  0.21507E-03
 0.51680004E+02  0.61272E-03
 0.51730003E+02  0.90373E-03
 0.51780003E+02  0.89342E-03
 0.51830006E+02  0.63483E-03
 0.51880005E+02  0.36297E-03
 0.51930004E+02  0.51381E-04
 0.51980003E+02 -0.29758E-03
 0.52030003E+02 -0.55820E-03
 0.52080006E+02 -0.66260E-03
 0.52130005E+02 -0.56729E-03
 0.52180004E+02 -0.33925E-03
 0.52230003E+02 -0.21865E-03
 0.52280003E+02 -0.11090E-03
 0.52330006E+02  0.19608E-03
 0.52380005E+02  0.37486E-03
 0.52430004E+02  0.17211E-03
 0.52480003E+02 -0.25194E-03
 0.52530003E+02 -0.40726E-03
 0.52580006E+02 -0.21319E-03
 0.52630005E+02  0.31390E-04
 0.52680004E+02  0.21474E-03
 0.52730003E+02  0.19178E-03
 0.52780003E+02  0.22092E-03
 0.52830006E+02  0.43316E-03
 0.52880005E+02  0.58178E-03
 0.52930004E+02  0.52522E-03
 0.52980003E+02  0.12627E-03
 0.53030003E+02 -0.40661E-03
 0.53080006E+02 -0.58875E-03
 0.53130005E+02 -0.33624E-03
 0.53180004E+02 -0.74385E-04
 0.53230003E+02 -0.65213E-04
 0.53280003E+02 -0.16827E-03
 0.53330006E+02 -0.27127E-03
 0.53380005E+02 -0.25393E-03
 0.53430004E+02 -0.94001E-04
 0.53480003E+02  0.53414E-04
 0.53530003E+02  0.11480E-03
 0.53580006E+02  0.98678E-04
 0.53630005E+02  0.15686E-03
 0.53680004E+02  0.34108E-03
 0.53730003E+02  0.56800E-03
 0.53780003E+02  0.61049E-03
 0.53830006E+02  0.24953E-03
 0.53880005E+02 -0.24105E-03
 0.53930004E+02 -0.44956E-03
 0.53980003E+02 -0.37935E-03
 0.54030003E+02 -0.40495E-03
 0.54080006E+02 -0.49319E-03
 0.54130005E+02 -0.23605E-03
 0.54180004E+02  0.23177E-03
 0.54230003E+02  0.56771E-03
 0.54280003E+02  0.53557E-03
 0.54330006E+02  0.11616E-03
 0.54380005E+02 -0.24125E-03
 0.54430004E+02 -0.44691E-03
 0.54480003E+02 -0.58688E-03
 0.54530003E+02 -0.46076E-03
 0.54580006E+02 -0.66461E-05
 0.54630005E+02  0.52565E-03
 0.54680004E+02  0.62184E-03
 0.54730003E+02  0.20062E-03
 0.54780003E+02 -0.25284E-03
 0.54830006E+02 -0.26457E-03
 0.54880005E+02  0.12791E-03
 0.54930004E+02  0.42865E-03
 0.54980003E+02  0.38568E-03
 0.55030003E+02  0.23526E-03
 0.55080006E+02  0.17420E-03
 0.55130005E+02  0.65183E-04
 0.55180004E+02 -0.11740E-03
 0.55230003E+02 -0.24393E-03
 0.55280003E+02 -0.33377E-03
 0.55330006E+02 -0.43042E-03
 0.55380005E+02 -0.43354E-03
 0.55430004E+02 -0.40218E-03
 0.55480003E+02 -0.41105E-03
 0.55530003E+02 -0.29613E-03
 0.55580006E+02 -0.32192E-04
 0.55630005E+02  0.25294E-03
 0.55680004E+02  0.43120E-03
 0.55730003E+02  0.49528E-03
 0.55780003E+02  0.45742E-03
 0.55830006E+02  0.38523E-03
 0.55880005E+02  0.36604E-03
 0.55930004E+02  0.31482E-03
 0.55980003E+02  0.21303E-03
 0.56030003E+02  0.39804E-04
 0.56080006E+02 -0.16059E-03
 0.56130005E+02 -0.33093E-03
 0.56180004E+02 -0.44784E-03
 0.56230003E+02 -0.41552E-03
 0.56280003E+02 -0.23401E-03
 0.56330006E+02  0.13871E-04
 0.56380005E+02  0.15097E-03
 0.56430004E+02  0.14825E-03
 0.56480003E+02  0.10120E-03
 0.56530003E+02  0.16140E-04
 0.56580006E+02 -0.84928E-04
 0.56630005E+02 -0.15336E-03
 0.56680004E+02 -0.98781E-04
 0.56730003E+02 -0.27289E-04
 0.56780003E+02 -0.97901E-04
 0.56830006E+02 -0.14786E-03
 0.56880005E+02 -0.12371E-03
 0.56930004E+02 -0.12563E-03
 0.56980003E+02 -0.12515E-03
 0.57030003E+02 -0.11886E-03
 0.57080006E+02 -0.93365E-04
 0.57130005E+02 -0.30538E-04
 0.57180004E+02  0.47757E-04
 0.57230003E+02  0.18057E-03
 0.57280003E+02  0.41401E-03
 0.57330006E+02  0.62496E-03
 0.57380005E+02  0.67081E-03
 0.57430004E+02  0.54817E-03
 0.57480003E+02  0.28108E-03
 0.57530003E+02 -0.55544E-04
 0.57580006E+02 -0.32109E-03
 0.57630005E+02 -0.33397E-03
 0.57680004E+02 -0.17836E-03
 0.57730003E+02 -0.11777E-03
 0.57780003E+02 -0.13648E-03
 0.57830006E+02 -0.20809E-03
 0.57880005E+02 -0.36439E-03
 0.57930004E+02 -0.50190E-03
 0.57980003E+02 -0.48311E-03
 0.58030003E+02 -0.30469E-03
 0.58080006E+02 -0.10473E-03
 0.58130005E+02  0.95256E-04
 0.58180004E+02  0.26641E-03
 0.58230003E+02  0.30740E-03
 0.58280003E+02  0.29382E-03
 0.58330006E+02  0.30987E-03
 0.58380005E+02  0.29347E-03
 0.58430004E+02  0.16786E-03
 0.58480003E+02  0.14737E-04
 0.58530003E+02 -0.61330E-04
 0.58580006E+02 -0.11771E-03
 0.58630005E+02 -0.13845E-03
 0.58680004E+02 -0.86818E-04
 0.58730003E+02 -0.24841E-04
 0.58780003E+02  0.89585E-05
 0.58830006E+02 -0.11923E-04
 0.58880005E+02 -0.40418E-04
 0.58930004E+02 -0.49186E-04
 0.58980003E+02 -0.75816E-04
 0.59030003E+02 -0.74304E-04
 0.59080006E+02 -0.40453E-04
 0.59130005E+02  0.47806E-05
 0.59180004E+02  0.60346E-04
 0.59230003E+02  0.88107E-04
 0.59280003E+02  0.96827E-04
 0.59330006E+02  0.15448E-03
 0.59380005E+02  0.27791E-03
 0.59430004E+02  0.33966E-03
 0.59480003E+02  0.25584E-03
 0.59530003E+02  0.61031E-04
 0.59580006E+02 -0.13759E-03
 0.59630005E+02 -0.22122E-03
 0.59680004E+02 -0.20817E-03
 0.59730003E+02 -0.14271E-03
 0.59780003E+02 -0.79430E-04
 0.59830006E+02 -0.99570E-04
 0.59880005E+02 -0.17693E-03
 0.59930004E+02 -0.20687E-03
 0.59980003E+02 -0.11306E-03
 0.60030003E+02  0.15501E-04
 0.60080006E+02  0.75370E-04
 0.60130005E+02  0.71157E-04
 0.60180004E+02  0.38231E-05
 0.60230003E+02 -0.67527E-04
 0.60280003E+02 -0.86386E-04
 0.60330006E+02 -0.31990E-04
 0.60380005E+02  0.67560E-04
 0.60430004E+02  0.16066E-03
 0.60480003E+02  0.21337E-03
 0.60530003E+02  0.14778E-03
 0.60580006E+02  0.81166E-05
 0.60630005E+02 -0.79196E-04
 0.60680004E+02 -0.15319E-03
 0.60730003E+02 -0.22638E-03
 0.60780003E+02 -0.19024E-03
 0.60830006E+02 -0.73761E-04
 0.60880005E+02  0.40402E-04
 0.60930004E+02  0.11988E-03
 0.60980003E+02  0.18814E-03
 0.61030003E+02  0.22664E-03
 0.61080006E+02  0.16583E-03
 0.61130005E+02  0.69789E-04
 0.61180004E+02 -0.32088E-04
 0.61230003E+02 -0.10323E-03
 0.61280003E+02 -0.10483E-03
 0.61330006E+02 -0.11162E-03
 0.61380005E+02 -0.11620E-03
 0.61430004E+02 -0.55995E-04
 0.61480003E+02  0.72322E-04
 0.61530003E+02  0.15240E-03
 0.61580006E+02  0.12163E-03
 0.61630005E+02  0.51324E-04
 0.61680004E+02 -0.39181E-04
 0.61730003E+02 -0.79879E-04
 0.61780003E+02 -0.46409E-05
 0.61830006E+02  0.10439E-03
 0.61880005E+02  0.15784E-03
 0.61930004E+02  0.12495E-03
 0.61980003E+02  0.32345E-04
 0.62030003E+02 -0.55672E-04
 0.62080006E+02 -0.11764E-03
 0.62130005E+02 -0.11449E-03
 0.62180004E+02 -0.20083E-04
 0.62230003E+02  0.77510E-04
 0.62280003E+02  0.91733E-04
 0.62330006E+02  0.25369E-04
 0.62380005E+02 -0.55594E-04
 0.62430004E+02 -0.10761E-03
 0.62480003E+02 -0.14225E-03
 0.62530003E+02 -0.13605E-03
 0.62580006E+02 -0.81447E-04
 0.62630005E+02 -0.50912E-04
 0.62680004E+02 -0.72538E-04
 0.62730003E+02 -0.11417E-03
 0.62780003E+02 -0.10923E-03
 0.62830006E+02 -0.36236E-04
 0.62880005E+02  0.19501E-04
 0.62930004E+02  0.42266E-04
 0.62980003E+02  0.87067E-04
 0.63030003E+02  0.16269E-03
 0.63080006E+02  0.22715E-03
 0.63130005E+02  0.22465E-03
 0.63180004E+02  0.18449E-03
 0.63230003E+02  0.14184E-03
 0.63280003E+02  0.63791E-04
 0.63330006E+02 -0.38306E-04
 0.63380005E+02 -0.11789E-03
 0.63430004E+02 -0.16530E-03
 0.63480003E+02 -0.19054E-03
 0.63530003E+02 -0.17899E-03
 0.63580006E+02 -0.13513E-03
 0.63630005E+02 -0.96783E-04
 0.63680004E+02 -0.74143E-04
 0.63730003E+02 -0.56173E-04
 0.63780003E+02 -0.51792E-04
 0.63830006E+02 -0.72343E-04
 0.63880005E+02 -0.71109E-04
 0.63930004E+02 -0.27393E-05
 0.63980003E+02  0.11058E-03
 0.64030006E+02  0.21459E-03
 0.64080002E+02  0.25096E-03
 0.64130005E+02  0.23832E-03
 0.64180008E+02  0.21830E-03
 0.64230003E+02  0.16307E-03
 0.64280006E+02  0.10453E-03
 0.64330002E+02  0.50048E-04
 0.64380005E+02 -0.40574E-04
 0.64430008E+02 -0.10828E-03
 0.64480003E+02 -0.13661E-03
 0.64530006E+02 -0.14042E-03
 0.64580002E+02 -0.14052E-03
 0.64630005E+02 -0.17889E-03
 0.64680008E+02 -0.20127E-03
 0.64730003E+02 -0.16309E-03
 0.64780006E+02 -0.78037E-04
 0.64830002E+02 -0.35838E-05
 0.64880005E+02  0.24187E-04
 0.64930008E+02  0.73500E-04
 0.64980003E+02  0.13484E-03
 0.65030006E+02  0.16397E-03
 0.65080002E+02  0.15684E-03
 0.65130005E+02  0.94025E-04
 0.65180008E+02  0.41382E-04
 0.65230003E+02  0.85039E-05
 0.65280006E+02 -0.21075E-04
 0.65330002E+02 -0.25921E-04
 0.65380005E+02 -0.37489E-04
 0.65430008E+02 -0.33431E-04
 0.65480003E+02 -0.17023E-04
 0.65530006E+02  0.27328E-04
 0.65580002E+02  0.84986E-04
 0.65630005E+02  0.82219E-04
 0.65680008E+02  0.60707E-04
 0.65730003E+02  0.40671E-04
 0.65780006E+02  0.29468E-04
 0.65830002E+02  0.98741E-05
 0.65880005E+02 -0.56999E-04
 0.65930008E+02 -0.11407E-03
 0.65980003E+02 -0.12799E-03
 0.66030006E+02 -0.87869E-04
 0.66080002E+02 -0.29765E-04
 0.66130005E+02 -0.25760E-04
 0.66180008E+02 -0.57460E-04
 0.66230003E+02 -0.88859E-04
 0.66280006E+02 -0.81325E-04
 0.66330002E+02 -0.35907E-04
 0.66380005E+02 -0.74853E-05
 0.66430008E+02 -0.70256E-05
 0.66480003E+02 -0.86433E-06
 0.66530006E+02  0.15872E-04
 0.66580002E+02  0.25256E-04
 0.66630005E+02  0.57595E-04
 0.66680008E+02  0.93752E-04
 0.66730003E+02  0.94099E-04
 0.66780006E+02  0.70467E-04
 0.66830002E+02  0.56708E-04
 0.66880005E+02  0.67087E-04
 0.66930008E+02  0.69941E-04
 0.66980003E+02  0.75968E-04
 0.67030006E+02  0.69961E-04
 0.67080002E+02  0.34324E-04
 0.67130005E+02  0.73508E-05
 0.67180008E+02 -0.15910E-04
 0.67230003E+02 -0.58304E-04
 0.67280006E+02 -0.12593E-03
 0.67330002E+02 -0.17514E-03
 0.67380005E+02 -0.17557E-03
 0.67430008E+02 -0.14942E-03
 0.67480003E+02 -0.12099E-03
 0.67530006E+02 -0.11212E-03
 0.67580002E+02 -0.83100E-04
 0.67630005E+02 -0.23226E-04
 0.67680008E+02  0.22977E-04
 0.67730003E+02  0.60032E-04
 0.67780006E+02  0.10976E-03
 0.67830002E+02  0.16383E-03
 0.67880005E+02  0.19791E-03
 0.67930008E+02  0.19928E-03
 0.67980003E+02  0.16709E-03
 0.68030006E+02  0.11661E-03
 0.68080002E+02  0.48859E-04
 0.68130005E+02 -0.30912E-04
 0.68180008E+02 -0.86860E-04
 0.68230003E+02 -0.81385E-04
 0.68280006E+02 -0.33815E-04
 0.68330002E+02 -0.93729E-05
 0.68380005E+02 -0.38247E-04
 0.68430008E+02 -0.99885E-04
 0.68480003E+02 -0.14533E-03
 0.68530006E+02 -0.16519E-03
 0.68580002E+02 -0.14457E-03
 0.68630005E+02 -0.90975E-04
 0.68680008E+02 -0.57323E-04
 0.68730003E+02 -0.14341E-04
 0.68780006E+02  0.51290E-04
 0.68830002E+02  0.11040E-03
 0.68880005E+02  0.17081E-03
 0.68930008E+02  0.19977E-03
 0.68980003E+02  0.15875E-03
 0.69030006E+02  0.62730E-04
 0.69080002E+02 -0.31923E-04
 0.69130005E+02 -0.66781E-04
 0.69180008E+02 -0.31982E-04
 0.69230003E+02  0.49550E-04
 0.69280006E+02  0.12319E-03
 0.69330002E+02  0.13707E-03
 0.69380005E+02  0.86461E-04
 0.69430008E+02  0.17103E-04
 0.69480003E+02 -0.40565E-04
 0.69530006E+02 -0.72287E-04
 0.69580002E+02 -0.72415E-04
 0.69630005E+02 -0.91056E-04
 0.69680008E+02 -0.12049E-03
 0.69730003E+02 -0.13378E-03
 0.69780006E+02 -0.13919E-03
 0.69830002E+02 -0.11657E-03
 0.69880005E+02 -0.74199E-04
 0.69930008E+02 -0.11998E-04
 0.69980003E+02  0.59368E-04
 0.70030006E+02  0.10059E-03
 0.70080002E+02  0.10182E-03
 0.70130005E+02  0.68309E-04
 0.70180008E+02  0.39725E-04
 0.70230003E+02  0.34553E-04
 0.70280006E+02  0.29503E-04
 0.70330002E+02  0.13661E-04
 0.70380005E+02 -0.10528E-05
 0.70430008E+02 -0.28621E-04
 0.70480003E+02 -0.82740E-04
 0.70530006E+02 -0.11865E-03
 0.70580002E+02 -0.10747E-03
 0.70630005E+02 -0.50833E-04
 0.70680008E+02  0.26913E-04
 0.70730003E+02  0.83540E-04
 0.70780006E+02  0.95699E-04
 0.70830002E+02  0.96543E-04
 0.70880005E+02  0.11122E-03
 0.70930008E+02  0.10964E-03
 0.70980003E+02  0.82671E-04
 0.71030006E+02  0.23412E-04
 0.71080002E+02 -0.48686E-04
 0.71130005E+02 -0.10664E-03
 0.71180008E+02 -0.14216E-03
 0.71230003E+02 -0.11849E-03
 0.71280006E+02 -0.51662E-04
 0.71330002E+02  0.18504E-04
 0.71380005E+02  0.83254E-04
 0.71430008E+02  0.11150E-03
 0.71480003E+02  0.92512E-04
 0.71530006E+02  0.59300E-04
 0.71580002E+02  0.28321E-04
 0.71630005E+02 -0.29212E-05
 0.71680008E+02 -0.22944E-04
 0.71730003E+02 -0.24262E-04
 0.71780006E+02 -0.17150E-04
 0.71830002E+02 -0.21042E-04
 0.71880005E+02 -0.41585E-04
 0.71930008E+02 -0.65044E-04
 0.71980003E+02 -0.77665E-04
 0.72030006E+02 -0.72403E-04
 0.72080002E+02 -0.61084E-04
 0.72130005E+02 -0.39176E-04
 0.72180008E+02  0.60226E-05
 0.72230003E+02  0.45116E-04
 0.72280006E+02  0.57966E-04
 0.72330002E+02  0.49283E-04
 0.72380005E+02  0.27938E-04
 0.72430008E+02  0.13398E-04
 0.72480003E+02  0.13385E-04
 0.72530006E+02  0.28552E-04
 0.72580002E+02  0.42774E-04
 0.72630005E+02  0.49164E-04
 0.72680008E+02  0.51510E-04
 0.72730003E+02  0.34667E-04
 0.72780006E+02  0.64745E-05
 0.72830002E+02 -0.17424E-04
 0.72880005E+02 -0.27266E-04
 0.72930008E+02 -0.21996E-04
 0.72980003E+02 -0.23316E-04
 0.73030006E+02 -0.50793E-04
 0.73080002E+02 -0.89142E-04
 0.73130005E+02 -0.10216E-03
 0.73180008E+02 -0.88861E-04
 0.73230003E+02 -0.61946E-04
 0.73280006E+02 -0.25930E-04
 0.73330002E+02  0.31348E-06
 0.73380005E+02  0.74993E-05
 0.73430008E+02 -0.17339E-05
 0.73480003E+02 -0.16035E-04
 0.73530006E+02 -0.22587E-04
 0.73580002E+02 -0.92324E-05
 0.73630005E+02  0.24761E-04
 0.73680008E+02  0.61275E-04
 0.73730003E+02  0.85301E-04
 0.73780006E+02  0.79835E-04
 0.73830002E+02  0.65725E-04
 0.73880005E+02  0.56118E-04
 0.73930008E+02  0.41585E-04
 0.73980003E+02  0.35252E-04
 0.74030006E+02  0.25920E-04
 0.74080002E+02  0.13756E-04
 0.74130005E+02  0.12798E-04
 0.74180008E+02  0.11480E-04
 0.74230003E+02  0.61569E-05
 0.74280006E+02  0.46974E-05
 0.74330002E+02 -0.42447E-05
 0.74380005E+02 -0.21958E-04
 0.74430008E+02 -0.19956E-04
 0.74480003E+02 -0.38618E-06
 0.74530006E+02  0.12950E-04
 0.74580002E+02  0.79906E-05
 0.74630005E+02 -0.13046E-04
 0.74680008E+02 -0.25874E-04
 0.74730003E+02 -0.24118E-04
 0.74780006E+02 -0.98480E-05
 0.74830002E+02  0.54917E-05
 0.74880005E+02 -0.59007E-05
 0.74930008E+02 -0.31820E-04
 0.74980003E+02 -0.62643E-04
 0.75030006E+02 -0.87542E-04
 0.75080002E+02 -0.73442E-04
 0.75130005E+02 -0.32767E-04
 0.75180008E+02  0.58205E-05
 0.75230003E+02  0.28109E-04
 0.75280006E+02  0.28784E-04
 0.75330002E+02  0.13107E-04
 0.75380005E+02 -0.16995E-04
 0.75430008E+02 -0.41921E-04
 0.75480003E+02 -0.40566E-04
 0.75530006E+02 -0.17284E-04
 0.75580002E+02  0.17377E-04
 0.75630005E+02  0.48788E-04
 0.75680008E+02  0.55439E-04
 0.75730003E+02  0.34106E-04
 0.75780006E+02  0.12194E-04
 0.75830002E+02  0.10397E-04
 0.75880005E+02  0.32253E-04
 0.75930008E+02  0.63952E-04
 0.75980003E+02  0.88831E-04
 0.76030006E+02  0.10045E-03
 0.76080002E+02  0.76282E-04
 0.76130005E+02  0.25219E-04
 0.76180008E+02 -0.21663E-04
 0.76230003E+02 -0.59274E-04
 0.76280006E+02 -0.74135E-04
 0.76330002E+02 -0.66709E-04
 0.76380005E+02 -0.61249E-04
 0.76430008E+02 -0.60500E-04
 0.76480003E+02 -0.56033E-04
 0.76530006E+02 -0.40538E-04
 0.76580002E+02 -0.15395E-04
 0.76630005E+02  0.66666E-05
 0.76680008E+02  0.18186E-04
 0.76730003E+02  0.13164E-04
 0.76780006E+02  0.12443E-04
 0.76830002E+02  0.27012E-04
 0.76880005E+02  0.40423E-04
 0.76930008E+02  0.55194E-04
 0.76980003E+02  0.57428E-04
 0.77030006E+02  0.41597E-04
 0.77080002E+02  0.20350E-04
 0.77130005E+02  0.61392E-06
 0.77180008E+02 -0.14079E-04
 0.77230003E+02 -0.32084E-04
 0.77280006E+02 -0.42617E-04
 0.77330002E+02 -0.50287E-04
 0.77380005E+02 -0.60142E-04
 0.77430008E+02 -0.57636E-04
 0.77480003E+02 -0.37060E-04
 0.77530006E+02  0.86620E-05
 0.77580002E+02  0.46712E-04
 0.77630005E+02  0.49717E-04
 0.77680008E+02  0.24164E-04
 0.77730003E+02 -0.17206E-04
 0.77780006E+02 -0.47384E-04
 0.77830002E+02 -0.63224E-04
 0.77880005E+02 -0.65830E-04
 0.77930008E+02 -0.51459E-04
 0.77980003E+02 -0.30940E-04
 0.78030006E+02 -0.11384E-04
 0.78080002E+02  0.22314E-05
 0.78130005E+02  0.18212E-04
 0.78180008E+02  0.43608E-04
 0.78230003E+02  0.68750E-04
 0.78280006E+02  0.90407E-04
 0.78330002E+02  0.10227E-03
 0.78380005E+02  0.10027E-03
 0.78430008E+02  0.89135E-04
 0.78480003E+02  0.69586E-04
 0.78530006E+02  0.46186E-04
 0.78580002E+02  0.21647E-04
 0.78630005E+02 -0.54322E-05
 0.78680008E+02 -0.30613E-04
 0.78730003E+02 -0.44142E-04
 0.78780006E+02 -0.48556E-04
 0.78830002E+02 -0.49578E-04
 0.78880005E+02 -0.46625E-04
 0.78930008E+02 -0.49514E-04
 0.78980003E+02 -0.53505E-04
 0.79030006E+02 -0.58490E-04
 0.79080002E+02 -0.79566E-04
 0.79130005E+02 -0.97817E-04
 0.79180008E+02 -0.94843E-04
 0.79230003E+02 -0.66322E-04
 0.79280006E+02 -0.12517E-04
 0.79330002E+02  0.42353E-04
 0.79380005E+02  0.82736E-04
 0.79430008E+02  0.10541E-03
 0.79480003E+02  0.10207E-03
 0.79530006E+02  0.78446E-04
 0.79580002E+02  0.55856E-04
 0.79630005E+02  0.47666E-04
 0.79680008E+02  0.44463E-04
 0.79730003E+02  0.26192E-04
 0.79780006E+02 -0.29900E-05
 0.79830002E+02 -0.22710E-04
 0.79880005E+02 -0.28495E-04
 0.79930008E+02 -0.29575E-04
 0.79980003E+02 -0.35560E-04
 0.80030006E+02 -0.53824E-04
 0.80080002E+02 -0.85244E-04
 0.80130005E+02 -0.10829E-03
 0.80180008E+02 -0.10754E-03
 0.80230003E+02 -0.90915E-04
 0.80280006E+02 -0.64002E-04
 0.80330002E+02 -0.26959E-04
 0.80380005E+02  0.14758E-04
 0.80430008E+02  0.52235E-04
 0.80480003E+02  0.89717E-04
 0.80530006E+02  0.11593E-03
 0.80580002E+02  0.11617E-03
 0.80630005E+02  0.97423E-04
 0.80680008E+02  0.66885E-04
 0.80730003E+02  0.48866E-04
 0.80780006E+02  0.44636E-04
 0.80830002E+02  0.37255E-04
 0.80880005E+02  0.26589E-04
 0.80930008E+02  0.76306E-05
 0.80980003E+02 -0.90503E-05
 0.81030006E+02 -0.13118E-04
 0.81080002E+02 -0.10772E-04
 0.81130005E+02 -0.14562E-04
 0.81180008E+02 -0.27276E-04
 0.81230003E+02 -0.38952E-04
 0.81280006E+02 -0.45096E-04
 0.81330002E+02 -0.43925E-04
 0.81380005E+02 -0.40305E-04
 0.81430008E+02 -0.35475E-04
 0.81480003E+02 -0.30716E-04
 0.81530006E+02 -0.24172E-04
 0.81580002E+02 -0.12173E-04
 0.81630005E+02 -0.20491E-05
 0.81680008E+02  0.21920E-05
 0.81730003E+02 -0.11101E-04
 0.81780006E+02 -0.34821E-04
 0.81830002E+02 -0.39390E-04
 0.81880005E+02 -0.25636E-04
 0.81930008E+02 -0.14305E-04
 0.81980003E+02 -0.10912E-04
 0.82030006E+02 -0.55573E-05
 0.82080002E+02  0.91168E-05
 0.82130005E+02  0.31579E-04
 0.82180008E+02  0.54295E-04
 0.82230003E+02  0.72184E-04
 0.82280006E+02  0.78630E-04
 0.82330002E+02  0.70247E-04
 0.82380005E+02  0.52039E-04
 0.82430008E+02  0.24380E-04
 0.82480003E+02  0.33528E-05
 0.82530006E+02 -0.19156E-05
 0.82580002E+02 -0.13978E-05
 0.82630005E+02  0.12274E-05
 0.82680008E+02 -0.95681E-05
 0.82730003E+02 -0.33963E-04
 0.82780006E+02 -0.56427E-04
 0.82830002E+02 -0.69905E-04
 0.82880005E+02 -0.69564E-04
 0.82930008E+02 -0.63890E-04
 0.82980003E+02 -0.52472E-04
 0.83030006E+02 -0.33162E-04
 0.83080002E+02 -0.17328E-04
 0.83130005E+02 -0.52390E-05
 0.83180008E+02  0.81637E-05
 0.83230003E+02  0.23888E-04
 0.83280006E+02  0.43303E-04
 0.83330002E+02  0.67003E-04
 0.83380005E+02  0.85456E-04
 0.83430008E+02  0.89399E-04
 0.83480003E+02  0.85777E-04
 0.83530006E+02  0.79506E-04
 0.83580002E+02  0.74191E-04
 0.83630005E+02  0.65030E-04
 0.83680008E+02  0.29503E-04
 0.83730003E+02 -0.27389E-04
 0.83780006E+02 -0.80436E-04
 0.83830002E+02 -0.11833E-03
 0.83880005E+02 -0.13368E-03
 0.83930008E+02 -0.13038E-03
 0.83980003E+02 -0.11883E-03
 0.84030006E+02 -0.98449E-04
 0.84080002E+02 -0.71725E-04
 0.84130005E+02 -0.38326E-04
 0.84180008E+02  0.57956E-05
 0.84230003E+02  0.51671E-04
 0.84280006E+02  0.88255E-04
 0.84330002E+02  0.10620E-03
 0.84380005E+02  0.10396E-03
 0.84430008E+02  0.85675E-04
 0.84480003E+02  0.56707E-04
 0.84530006E+02  0.33093E-04
 0.84580002E+02  0.19596E-04
 0.84630005E+02  0.38393E-05
 0.84680008E+02 -0.15177E-04
 0.84730003E+02 -0.27719E-04
 0.84780006E+02 -0.30513E-04
 0.84830002E+02 -0.27255E-04
 0.84880005E+02 -0.20209E-04
 0.84930008E+02 -0.10238E-04
 0.84980003E+02 -0.29341E-05
 0.85030006E+02 -0.69545E-05
 0.85080002E+02 -0.14665E-04
 0.85130005E+02 -0.16678E-04
 0.85180008E+02 -0.16851E-04
 0.85230003E+02 -0.17622E-04
 0.85280006E+02 -0.26433E-04
 0.85330002E+02 -0.32528E-04
 0.85380005E+02 -0.29806E-04
 0.85430008E+02 -0.27393E-04
 0.85480003E+02 -0.18834E-04
 0.85530006E+02 -0.38910E-05
 0.85580002E+02  0.16760E-04
 0.85630005E+02  0.41625E-04
 0.85680008E+02  0.62631E-04
 0.85730003E+02  0.63353E-04
 0.85780006E+02  0.38292E-04
 0.85830002E+02  0.79103E-05
 0.85880005E+02 -0.80107E-05
 0.85930008E+02 -0.26380E-05
 0.85980003E+02  0.10930E-04
 0.86030006E+02  0.20756E-04
 0.86080002E+02  0.23661E-04
 0.86130005E+02  0.16349E-04
 0.86180008E+02  0.70910E-05
 0.86230003E+02  0.18765E-05
 0.86280006E+02 -0.21832E-05
 0.86330002E+02 -0.13808E-04
 0.86380005E+02 -0.38518E-04
 0.86430008E+02 -0.61745E-04
 0.86480003E+02 -0.75458E-04
 0.86530006E+02 -0.75749E-04
 0.86580002E+02 -0.58482E-04
 0.86630005E+02 -0.29810E-04
 0.86680008E+02  0.93569E-05
 0.86730003E+02  0.44128E-04
 0.86780006E+02  0.64881E-04
 0.86830002E+02  0.77427E-04
 0.86880005E+02  0.80977E-04
 0.86930008E+02  0.76182E-04
 0.86980003E+02  0.60055E-04
 0.87030006E+02  0.34872E-04
 0.87080002E+02  0.12378E-04
 0.87130005E+02 -0.73083E-05
 0.87180008E+02 -0.26658E-04
 0.87230003E+02 -0.36796E-04
 0.87280006E+02 -0.38314E-04
 0.87330002E+02 -0.41422E-04
 0.87380005E+02 -0.43467E-04
 0.87430008E+02 -0.35488E-04
 0.87480003E+02 -0.25691E-04
 0.87530006E+02 -0.22131E-04
 0.87580002E+02 -0.17576E-04
 0.87630005E+02 -0.27934E-05
 0.87680008E+02  0.21942E-04
 0.87730003E+02  0.46003E-04
 0.87780006E+02  0.60396E-04
 0.87830002E+02  0.52013E-04
 0.87880005E+02  0.20828E-04
 0.87930008E+02 -0.15270E-04
 0.87980003E+02 -0.35839E-04
 0.88030006E+02 -0.39770E-04
 0.88080002E+02 -0.42681E-04
 0.88130005E+02 -0.42001E-04
 0.88180008E+02 -0.40064E-04
 0.88230003E+02 -0.35815E-04
 0.88280006E+02 -0.21550E-04
 0.88330002E+02 -0.37557E-05
 0.88380005E+02  0.13356E-04
 0.88430008E+02  0.25686E-04
 0.88480003E+02  0.30792E-04
 0.88530006E+02  0.29341E-04
 0.88580002E+02  0.28064E-04
 0.88630005E+02  0.29503E-04
 0.88680008E+02  0.22950E-04
 0.88730003E+02  0.55364E-05
 0.88780006E+02 -0.10808E-04
 0.88830002E+02 -0.16252E-04
 0.88880005E+02 -0.17416E-04
 0.88930008E+02 -0.19383E-04
 0.88980003E+02 -0.22172E-04
 0.89030006E+02 -0.25987E-04
 0.89080002E+02 -0.20840E-04
 0.89130005E+02 -0.83553E-05
 0.89180008E+02  0.48863E-07
 0.89230003E+02  0.65542E-05
 0.89280006E+02  0.14102E-04
 0.89330002E+02  0.23508E-04
 0.89380005E+02  0.37599E-04
 0.89430008E+02  0.50830E-04
 0.89480003E+02  0.54896E-04
 0.89530006E+02  0.49101E-04
 0.89580002E+02  0.33751E-04
 0.89630005E+02  0.13822E-04
 0.89680008E+02  0.16619E-06
 0.89730003E+02 -0.95017E-05
 0.89780006E+02 -0.25226E-04
 0.89830002E+02 -0.45986E-04
 0.89880005E+02 -0.63383E-04
 0.89930008E+02 -0.76195E-04
 0.89980003E+02 -0.83985E-04
 0.90030006E+02 -0.80584E-04
 0.90080002E+02 -0.63377E-04
 0.90130005E+02 -0.32968E-04
 0.90180008E+02  0.37341E-05
 0.90230003E+02  0.39490E-04
 0.90280006E+02  0.68778E-04
 0.90330002E+02  0.85135E-04
 0.90380005E+02  0.84778E-04
 0.90430008E+02  0.74066E-04
 0.90480003E+02  0.67946E-04
 0.90530006E+02  0.65195E-04
 0.90580002E+02  0.61143E-04
 0.90630005E+02  0.55501E-04
 0.90680008E+02  0.40854E-04
 0.90730003E+02  0.17914E-04
 0.90780006E+02 -0.31096E-05
 0.90830002E+02 -0.16706E-04
 0.90880005E+02 -0.28880E-04
 0.90930008E+02 -0.41730E-04
 0.90980003E+02 -0.49928E-04
 0.91030006E+02 -0.53221E-04
 0.91080002E+02 -0.50904E-04
 0.91130005E+02 -0.44083E-04
 0.91180008E+02 -0.37714E-04
 0.91230003E+02 -0.34800E-04
 0.91280006E+02 -0.33549E-04
 0.91330002E+02 -0.35077E-04
 0.91380005E+02 -0.43956E-04
 0.91430008E+02 -0.52443E-04
 0.91480003E+02 -0.50846E-04
 0.91530006E+02 -0.36390E-04
 0.91580002E+02 -0.16074E-04
 0.91630005E+02  0.31123E-05
 0.91680008E+02  0.23389E-04
 0.91730003E+02  0.36080E-04
 0.91780006E+02  0.36550E-04
 0.91830002E+02  0.30896E-04
 0.91880005E+02  0.22626E-04
 0.91930008E+02  0.13469E-04
 0.91980003E+02  0.51440E-05
 0.92030006E+02  0.21962E-05
 0.92080002E+02  0.10537E-05
 0.92130005E+02 -0.23892E-05
 0.92180008E+02 -0.10033E-05
 0.92230003E+02  0.59730E-05
 0.92280006E+02  0.10891E-04
 0.92330002E+02  0.18390E-04
 0.92380005E+02  0.32201E-04
 0.92430008E+02  0.49675E-04
 0.92480003E+02  0.70549E-04
 0.92530006E+02  0.84153E-04
 0.92580002E+02  0.80840E-04
 0.92630005E+02  0.57665E-04
 0.92680008E+02  0.19536E-04
 0.92730003E+02 -0.20756E-04
 0.92780006E+02 -0.56326E-04
 0.92830002E+02 -0.85084E-04
 0.92880005E+02 -0.10430E-03
 0.92930008E+02 -0.11305E-03
 0.92980003E+02 -0.11561E-03
 0.93030006E+02 -0.10934E-03
 0.93080002E+02 -0.91479E-04
 0.93130005E+02 -0.65160E-04
 0.93180008E+02 -0.30186E-04
 0.93230003E+02  0.46539E-05
 0.93280006E+02  0.35229E-04
 0.93330002E+02  0.65198E-04
 0.93380005E+02  0.90856E-04
 0.93430008E+02  0.10950E-03
 0.93480003E+02  0.11645E-03
 0.93530006E+02  0.11337E-03
 0.93580002E+02  0.10536E-03
 0.93630005E+02  0.91208E-04
 0.93680008E+02  0.74914E-04
 0.93730003E+02  0.58175E-04
 0.93780006E+02  0.39332E-04
 0.93830002E+02  0.20608E-04
 0.93880005E+02  0.23447E-05
 0.93930008E+02 -0.18782E-04
 0.93980003E+02 -0.46917E-04
 0.94030006E+02 -0.79071E-04
 0.94080002E+02 -0.10030E-03
 0.94130005E+02 -0.10523E-03
 0.94180008E+02 -0.10156E-03
 0.94230003E+02 -0.92835E-04
 0.94280006E+02 -0.80549E-04
 0.94330002E+02 -0.62913E-04
 0.94380005E+02 -0.40951E-04
 0.94430008E+02 -0.16115E-04
 0.94480003E+02  0.13549E-04
 0.94530006E+02  0.42562E-04
 0.94580002E+02  0.61749E-04
 0.94630005E+02  0.65862E-04
 0.94680008E+02  0.59858E-04
 0.94730003E+02  0.46472E-04
 0.94780006E+02  0.26786E-04
 0.94830002E+02  0.98733E-05
 0.94880005E+02 -0.59486E-06
 0.94930008E+02 -0.35753E-05
 0.94980003E+02 -0.90004E-06
 0.95030006E+02  0.33647E-05
 0.95080002E+02  0.61098E-05
 0.95130005E+02  0.70611E-05
 0.95180008E+02  0.12370E-04
 0.95230003E+02  0.18404E-04
 0.95280006E+02  0.17558E-04
 0.95330002E+02  0.87256E-05
 0.95380005E+02 -0.73779E-05
 0.95430008E+02 -0.25574E-04
 0.95480003E+02 -0.39491E-04
 0.95530006E+02 -0.46116E-04
 0.95580002E+02 -0.46602E-04
 0.95630005E+02 -0.42474E-04
 0.95680008E+02 -0.33600E-04
 0.95730003E+02 -0.19654E-04
 0.95780006E+02 -0.39569E-05
 0.95830002E+02  0.63909E-05
 0.95880005E+02  0.79637E-05
 0.95930008E+02  0.39064E-05
 0.95980003E+02  0.23050E-05
 0.96030006E+02  0.78267E-05
 0.96080002E+02  0.14129E-04
 0.96130005E+02  0.15901E-04
 0.96180008E+02  0.20893E-04
 0.96230003E+02  0.28722E-04
 0.96280006E+02  0.30746E-04
 0.96330002E+02  0.31810E-04
 0.96380005E+02  0.35077E-04
 0.96430008E+02  0.32416E-04
 0.96480003E+02  0.16094E-04
 0.96530006E+02 -0.67040E-05
 0.96580002E+02 -0.22598E-04
 0.96630005E+02 -0.30369E-04
 0.96680008E+02 -0.30406E-04
 0.96730003E+02 -0.24270E-04
 0.96780006E+02 -0.16509E-04
 0.96830002E+02 -0.92042E-05
 0.96880005E+02 -0.72693E-05
 0.96930008E+02 -0.88009E-05
 0.96980003E+02 -0.89791E-05
 0.97030006E+02 -0.96802E-05
 0.97080002E+02 -0.59499E-05
 0.97130005E+02  0.14895E-05
 0.97180008E+02  0.60925E-05
 0.97230003E+02  0.11161E-04
 0.97280006E+02  0.16924E-04
 0.97330002E+02  0.23430E-04
 0.97380005E+02  0.31992E-04
 0.97430008E+02  0.37794E-04
 0.97480003E+02  0.37787E-04
 0.97530006E+02  0.31645E-04
 0.97580002E+02  0.22192E-04
 0.97630005E+02  0.13508E-04
 0.97680008E+02  0.57117E-05
 0.97730003E+02 -0.23723E-05
 0.97780006E+02 -0.12786E-04
 0.97830002E+02 -0.23229E-04
 0.97880005E+02 -0.27403E-04
 0.97930008E+02 -0.25482E-04
 0.97980003E+02 -0.21937E-04
 0.98030006E+02 -0.19807E-04
 0.98080002E+02 -0.22399E-04
 0.98130005E+02 -0.28714E-04
 0.98180008E+02 -0.34572E-04
 0.98230003E+02 -0.39141E-04
 0.98280006E+02 -0.41576E-04
 0.98330002E+02 -0.44118E-04
 0.98380005E+02 -0.44490E-04
 0.98430008E+02 -0.34285E-04
 0.98480003E+02 -0.14277E-04
 0.98530006E+02  0.85620E-05
 0.98580002E+02  0.29164E-04
 0.98630005E+02  0.45016E-04
 0.98680008E+02  0.52678E-04
 0.98730003E+02  0.52973E-04
 0.98780006E+02  0.50862E-04
 0.98830002E+02  0.48524E-04
 0.98880005E+02  0.45484E-04
 0.98930008E+02  0.39660E-04
 0.98980003E+02  0.33152E-04
 0.99030006E+02  0.26819E-04
 0.99080002E+02  0.23038E-04
 0.99130005E+02  0.25250E-04
 0.99180008E+02  0.24713E-04
 0.99230003E+02  0.15911E-04
 0.99280006E+02 -0.95436E-06
 0.99330002E+02 -0.24468E-04
 0.99380005E+02 -0.42499E-04
 0.99430008E+02 -0.49737E-04
 0.99480003E+02 -0.52184E-04
 0.99530006E+02 -0.51681E-04
 0.99580002E+02 -0.47984E-04
 0.99630005E+02 -0.43631E-04
 0.99680008E+02 -0.42836E-04
 0.99730003E+02 -0.43557E-04
 0.99780006E+02 -0.40954E-04
 0.99830002E+02 -0.32107E-04
 0.99880005E+02 -0.15359E-04
 0.99930008E+02  0.41965E-05
 0.99980003E+02  0.22914E-04
