-0.19996643E-01 -0.14309E-05
 0.30003358E-01 -0.11123E-05
 0.80003358E-01 -0.63205E-06
 0.13000336E+00 -0.65202E-06
 0.18000336E+00 -0.55464E-06
 0.23000336E+00 -0.38543E-06
 0.28000337E+00 -0.99227E-07
 0.33000335E+00  0.12739E-06
 0.38000336E+00  0.60178E-06
 0.43000337E+00  0.12062E-05
 0.48000336E+00  0.88527E-06
 0.53000337E+00  0.52982E-06
 0.58000338E+00  0.71938E-06
 0.63000339E+00  0.72376E-06
 0.68000335E+00  0.35226E-06
 0.73000336E+00  0.14909E-06
 0.78000337E+00  0.43501E-06
 0.83000338E+00  0.12030E-05
 0.88000339E+00  0.19199E-05
 0.93000335E+00  0.13100E-05
 0.98000336E+00  0.54331E-06
 0.10300034E+01  0.61436E-06
 0.10800034E+01  0.69749E-06
 0.11300033E+01  0.72826E-06
 0.11800034E+01  0.49015E-06
 0.12300034E+01  0.47229E-06
 0.12800034E+01  0.70445E-07
 0.13300034E+01 -0.88228E-06
 0.13800033E+01 -0.10931E-05
 0.14300034E+01 -0.91127E-06
 0.14800034E+01 -0.89367E-06
 0.15300034E+01 -0.12516E-05
 0.15800034E+01 -0.12621E-05
 0.16300033E+01 -0.13071E-05
 0.16800034E+01 -0.16643E-05
 0.17300034E+01 -0.11580E-05
 0.17800034E+01 -0.78258E-06
 0.18300034E+01 -0.10909E-05
 0.18800033E+01 -0.10575E-05
 0.19300034E+01 -0.80958E-06
 0.19800034E+01 -0.34832E-06
 0.20300033E+01  0.43240E-06
 0.20800035E+01  0.66235E-06
 0.21300035E+01  0.74546E-06
 0.21800034E+01  0.82459E-06
 0.22300034E+01  0.67355E-06
 0.22800033E+01  0.57240E-06
 0.23300035E+01  0.23783E-07
 0.23800035E+01 -0.23709E-06
 0.24300034E+01 -0.21346E-07
 0.24800034E+01  0.72886E-07
 0.25300033E+01  0.49945E-06
 0.25800035E+01  0.70181E-06
 0.26300035E+01  0.41000E-06
 0.26800034E+01  0.22022E-06
 0.27300034E+01 -0.49960E-07
 0.27800033E+01 -0.35598E-06
 0.28300035E+01 -0.46983E-06
 0.28800035E+01 -0.16740E-06
 0.29300034E+01 -0.24983E-07
 0.29800034E+01 -0.66444E-06
 0.30300033E+01 -0.79711E-06
 0.30800035E+01 -0.37800E-06
 0.31300035E+01 -0.29135E-06
 0.31800034E+01 -0.16811E-06
 0.32300034E+01  0.69159E-07
 0.32800033E+01  0.15637E-06
 0.33300035E+01  0.29702E-06
 0.33800035E+01  0.78399E-06
 0.34300034E+01  0.87585E-06
 0.34800034E+01  0.65030E-06
 0.35300033E+01  0.93822E-06
 0.35800035E+01  0.10914E-05
 0.36300035E+01  0.58081E-06
 0.36800034E+01 -0.38489E-07
 0.37300034E+01  0.14473E-06
 0.37800033E+01  0.59468E-06
 0.38300035E+01  0.41885E-06
 0.38800035E+01  0.51922E-06
 0.39300034E+01  0.33656E-06
 0.39800034E+01 -0.29164E-06
 0.40300035E+01  0.12189E-06
 0.40800033E+01  0.22980E-06
 0.41300035E+01 -0.36015E-06
 0.41800036E+01 -0.52898E-06
 0.42300034E+01 -0.42293E-06
 0.42800035E+01 -0.28026E-06
 0.43300033E+01 -0.31856E-06
 0.43800035E+01 -0.11060E-06
 0.44300036E+01  0.10860E-06
 0.44800034E+01  0.24774E-07
 0.45300035E+01 -0.26222E-06
 0.45800033E+01 -0.37260E-06
 0.46300035E+01 -0.36481E-06
 0.46800036E+01 -0.44414E-06
 0.47300034E+01 -0.23009E-06
 0.47800035E+01 -0.36976E-06
 0.48300033E+01 -0.31640E-06
 0.48800035E+01 -0.11921E-06
 0.49300036E+01 -0.10676E-06
 0.49800034E+01  0.35434E-06
 0.50300035E+01  0.44259E-06
 0.50800033E+01  0.68531E-07
 0.51300035E+01 -0.48148E-06
 0.51800036E+01 -0.38689E-06
 0.52300034E+01 -0.70682E-07
 0.52800035E+01 -0.38609E-06
 0.53300033E+01 -0.43496E-06
 0.53800035E+01 -0.56731E-06
 0.54300036E+01 -0.71906E-06
 0.54800034E+01 -0.76619E-06
 0.55300035E+01 -0.17909E-06
 0.55800033E+01  0.60057E-06
 0.56300035E+01  0.50433E-07
 0.56800036E+01 -0.43921E-06
 0.57300034E+01 -0.43130E-06
 0.57800035E+01 -0.49764E-06
 0.58300033E+01 -0.11626E-06
 0.58800035E+01  0.19549E-06
 0.59300036E+01  0.23292E-07
 0.59800034E+01  0.95578E-07
 0.60300035E+01  0.12310E-06
 0.60800033E+01 -0.19767E-06
 0.61300035E+01 -0.40545E-06
 0.61800036E+01 -0.21111E-06
 0.62300034E+01  0.37105E-06
 0.62800035E+01  0.77880E-06
 0.63300033E+01  0.83581E-06
 0.63800035E+01  0.34753E-06
 0.64300036E+01  0.27557E-06
 0.64800034E+01  0.10190E-05
 0.65300035E+01  0.15164E-05
 0.65800033E+01  0.15641E-05
 0.66300035E+01  0.11804E-05
 0.66800036E+01  0.95750E-06
 0.67300034E+01  0.89430E-06
 0.67800035E+01  0.88040E-06
 0.68300033E+01  0.10364E-05
 0.68800035E+01  0.13335E-05
 0.69300036E+01  0.92966E-06
 0.69800034E+01 -0.22372E-06
 0.70300035E+01 -0.49414E-06
 0.70800033E+01 -0.10130E-05
 0.71300035E+01 -0.14873E-05
 0.71800036E+01 -0.76377E-06
 0.72300034E+01 -0.24834E-06
 0.72800035E+01 -0.22117E-06
 0.73300033E+01 -0.49974E-06
 0.73800035E+01 -0.54975E-06
 0.74300036E+01 -0.32276E-06
 0.74800034E+01 -0.68272E-06
 0.75300035E+01 -0.84438E-06
 0.75800033E+01 -0.60712E-06
 0.76300035E+01 -0.57004E-06
 0.76800036E+01 -0.21501E-06
 0.77300034E+01 -0.18772E-06
 0.77800035E+01 -0.64832E-06
 0.78300033E+01 -0.80872E-06
 0.78800035E+01 -0.10153E-05
 0.79300036E+01 -0.11730E-05
 0.79800034E+01 -0.80840E-06
 0.80300035E+01 -0.60449E-06
 0.80800037E+01 -0.12720E-05
 0.81300039E+01 -0.18857E-05
 0.81800032E+01 -0.12340E-05
 0.82300034E+01 -0.11647E-06
 0.82800035E+01  0.30941E-06
 0.83300037E+01  0.33442E-06
 0.83800039E+01  0.24586E-06
 0.84300032E+01  0.24864E-06
 0.84800034E+01  0.37438E-06
 0.85300035E+01  0.94366E-06
 0.85800037E+01  0.14299E-05
 0.86300039E+01  0.12406E-05
 0.86800032E+01  0.15374E-05
 0.87300034E+01  0.15907E-05
 0.87800035E+01  0.92654E-06
 0.88300037E+01  0.74831E-06
 0.88800039E+01  0.85337E-06
 0.89300032E+01  0.85140E-06
 0.89800034E+01  0.84394E-06
 0.90300035E+01  0.76897E-06
 0.90800037E+01  0.71652E-06
 0.91300039E+01  0.54040E-06
 0.91800032E+01  0.56783E-06
 0.92300034E+01  0.73517E-06
 0.92800035E+01  0.21848E-06
 0.93300037E+01 -0.22414E-06
 0.93800039E+01 -0.53586E-06
 0.94300032E+01 -0.75414E-06
 0.94800034E+01 -0.47552E-06
 0.95300035E+01 -0.32919E-06
 0.95800037E+01 -0.43337E-06
 0.96300039E+01 -0.58378E-06
 0.96800032E+01 -0.35107E-06
 0.97300034E+01 -0.23741E-06
 0.97800035E+01 -0.54454E-06
 0.98300037E+01 -0.48447E-06
 0.98800039E+01 -0.28223E-06
 0.99300032E+01 -0.43087E-06
 0.99800034E+01 -0.61478E-06
 0.10030004E+02 -0.36359E-06
 0.10080004E+02 -0.32878E-06
 0.10130004E+02 -0.63328E-06
 0.10180003E+02 -0.36465E-06
 0.10230003E+02 -0.28627E-06
 0.10280004E+02 -0.58977E-06
 0.10330004E+02 -0.58832E-06
 0.10380004E+02 -0.62307E-06
 0.10430003E+02 -0.38518E-06
 0.10480003E+02 -0.23038E-06
 0.10530004E+02 -0.84679E-07
 0.10580004E+02  0.46968E-06
 0.10630004E+02  0.65473E-06
 0.10680003E+02  0.69928E-06
 0.10730003E+02  0.22394E-06
 0.10780004E+02 -0.27154E-06
 0.10830004E+02 -0.13094E-06
 0.10880004E+02  0.31559E-07
 0.10930003E+02  0.24208E-06
 0.10980003E+02  0.20695E-06
 0.11030004E+02  0.50708E-06
 0.11080004E+02  0.68953E-06
 0.11130004E+02  0.35765E-06
 0.11180003E+02  0.32497E-06
 0.11230003E+02  0.32097E-06
 0.11280004E+02  0.12756E-06
 0.11330004E+02 -0.37592E-06
 0.11380004E+02 -0.38715E-06
 0.11430003E+02 -0.56261E-08
 0.11480003E+02 -0.10064E-07
 0.11530004E+02  0.72421E-07
 0.11580004E+02  0.98375E-07
 0.11630004E+02  0.11230E-06
 0.11680003E+02  0.25733E-06
 0.11730003E+02  0.28423E-06
 0.11780004E+02  0.17738E-06
 0.11830004E+02  0.29793E-06
 0.11880004E+02  0.35769E-06
 0.11930003E+02  0.12052E-07
 0.11980003E+02 -0.59091E-07
 0.12030004E+02  0.22696E-06
 0.12080004E+02  0.49624E-06
 0.12130004E+02  0.34242E-06
 0.12180003E+02  0.65955E-07
 0.12230003E+02 -0.12304E-06
 0.12280004E+02 -0.16100E-06
 0.12330004E+02  0.21352E-06
 0.12380004E+02  0.43338E-06
 0.12430003E+02  0.34899E-06
 0.12480003E+02  0.17155E-06
 0.12530004E+02  0.29953E-06
 0.12580004E+02  0.39582E-06
 0.12630004E+02 -0.63821E-07
 0.12680003E+02 -0.90344E-07
 0.12730003E+02  0.93269E-07
 0.12780004E+02 -0.27809E-06
 0.12830004E+02 -0.69605E-06
 0.12880004E+02 -0.11355E-05
 0.12930003E+02 -0.13504E-05
 0.12980003E+02 -0.11680E-05
 0.13030004E+02 -0.10761E-05
 0.13080004E+02 -0.11818E-05
 0.13130004E+02 -0.14916E-05
 0.13180003E+02 -0.13890E-05
 0.13230003E+02 -0.72726E-06
 0.13280004E+02 -0.63553E-06
 0.13330004E+02 -0.60777E-06
 0.13380004E+02  0.13624E-06
 0.13430003E+02  0.66107E-06
 0.13480003E+02  0.88716E-06
 0.13530004E+02  0.98720E-06
 0.13580004E+02  0.10155E-05
 0.13630004E+02  0.12132E-05
 0.13680003E+02  0.91885E-06
 0.13730003E+02  0.47203E-06
 0.13780004E+02  0.34330E-06
 0.13830004E+02  0.65857E-06
 0.13880004E+02  0.94581E-06
 0.13930003E+02  0.34517E-06
 0.13980003E+02  0.39871E-07
 0.14030004E+02  0.57753E-07
 0.14080004E+02 -0.31902E-07
 0.14130004E+02  0.15477E-06
 0.14180003E+02  0.35176E-06
 0.14230003E+02  0.30512E-06
 0.14280004E+02  0.12790E-06
 0.14330004E+02  0.12636E-06
 0.14380004E+02  0.43896E-06
 0.14430003E+02  0.13601E-05
 0.14480003E+02  0.17029E-05
 0.14530004E+02  0.10671E-05
 0.14580004E+02  0.31523E-06
 0.14630004E+02 -0.38208E-06
 0.14680003E+02 -0.18381E-06
 0.14730003E+02  0.11320E-06
 0.14780004E+02 -0.58412E-06
 0.14830004E+02 -0.98483E-06
 0.14880004E+02 -0.12165E-05
 0.14930003E+02 -0.17694E-05
 0.14980003E+02 -0.15057E-05
 0.15030004E+02 -0.99443E-06
 0.15080004E+02 -0.77081E-06
 0.15130004E+02 -0.67152E-06
 0.15180003E+02 -0.50207E-06
 0.15230003E+02  0.82320E-07
 0.15280004E+02  0.27707E-06
 0.15330004E+02  0.33506E-06
 0.15380004E+02  0.27876E-06
 0.15430003E+02  0.78718E-07
 0.15480003E+02  0.29854E-06
 0.15530004E+02  0.21180E-06
 0.15580004E+02 -0.22844E-06
 0.15630004E+02 -0.35887E-06
 0.15680003E+02 -0.28292E-06
 0.15730003E+02 -0.53084E-06
 0.15780004E+02 -0.67830E-06
 0.15830004E+02 -0.45444E-06
 0.15880004E+02 -0.37085E-06
 0.15930003E+02 -0.46008E-06
 0.15980003E+02 -0.57245E-06
 0.16030005E+02 -0.41393E-06
 0.16080004E+02  0.52699E-07
 0.16130003E+02  0.47452E-06
 0.16180004E+02  0.65511E-06
 0.16230003E+02  0.88177E-06
 0.16280005E+02  0.90487E-06
 0.16330004E+02  0.77882E-06
 0.16380003E+02  0.11988E-05
 0.16430004E+02  0.14376E-05
 0.16480003E+02  0.15797E-05
 0.16530005E+02  0.15599E-05
 0.16580004E+02  0.71861E-06
 0.16630003E+02  0.40877E-06
 0.16680004E+02  0.57471E-06
 0.16730003E+02  0.99922E-07
 0.16780005E+02 -0.29155E-06
 0.16830004E+02 -0.10536E-06
 0.16880003E+02 -0.82737E-07
 0.16930004E+02 -0.54839E-06
 0.16980003E+02 -0.76989E-06
 0.17030005E+02 -0.68544E-06
 0.17080004E+02 -0.96414E-06
 0.17130003E+02 -0.10782E-05
 0.17180004E+02 -0.75614E-06
 0.17230003E+02 -0.77989E-06
 0.17280005E+02 -0.10562E-05
 0.17330004E+02 -0.11386E-05
 0.17380003E+02 -0.10569E-05
 0.17430004E+02 -0.99699E-06
 0.17480003E+02 -0.10790E-05
 0.17530005E+02 -0.10190E-05
 0.17580004E+02 -0.35603E-06
 0.17630003E+02  0.68424E-06
 0.17680004E+02  0.14651E-05
 0.17730003E+02  0.19718E-05
 0.17780005E+02  0.18936E-05
 0.17830004E+02  0.15270E-05
 0.17880003E+02  0.12853E-05
 0.17930004E+02  0.80413E-06
 0.17980003E+02  0.84837E-06
 0.18030005E+02  0.94375E-06
 0.18080004E+02  0.35299E-06
 0.18130003E+02 -0.33852E-06
 0.18180004E+02 -0.79988E-06
 0.18230003E+02 -0.70618E-06
 0.18280005E+02 -0.38044E-06
 0.18330004E+02 -0.69995E-07
 0.18380003E+02 -0.14356E-06
 0.18430004E+02 -0.97061E-06
 0.18480003E+02 -0.11253E-05
 0.18530005E+02 -0.62649E-06
 0.18580004E+02 -0.60116E-06
 0.18630003E+02 -0.89676E-07
 0.18680004E+02  0.31175E-06
 0.18730003E+02 -0.44439E-08
 0.18780005E+02 -0.37872E-06
 0.18830004E+02 -0.69678E-06
 0.18880003E+02 -0.15106E-06
 0.18930004E+02  0.60362E-07
 0.18980003E+02 -0.23948E-06
 0.19030005E+02  0.12529E-06
 0.19080004E+02  0.36200E-07
 0.19130003E+02  0.15078E-06
 0.19180004E+02  0.55503E-06
 0.19230003E+02  0.39095E-06
 0.19280005E+02  0.40581E-06
 0.19330004E+02  0.47126E-06
 0.19380003E+02  0.38168E-06
 0.19430004E+02  0.16997E-06
 0.19480003E+02  0.10466E-06
 0.19530005E+02  0.47938E-06
 0.19580004E+02  0.50536E-06
 0.19630003E+02  0.22587E-06
 0.19680004E+02 -0.83958E-07
 0.19730003E+02 -0.72924E-06
 0.19780005E+02 -0.73605E-06
 0.19830004E+02 -0.45204E-06
 0.19880003E+02 -0.46482E-06
 0.19930004E+02 -0.32683E-06
 0.19980003E+02 -0.47402E-06
 0.20030005E+02 -0.58496E-06
 0.20080004E+02 -0.27382E-06
 0.20130003E+02  0.67216E-06
 0.20180004E+02  0.13369E-05
 0.20230003E+02  0.68661E-06
 0.20280005E+02 -0.14364E-06
 0.20330004E+02 -0.15346E-06
 0.20380003E+02  0.36689E-06
 0.20430004E+02  0.52562E-06
 0.20480003E+02  0.53057E-06
 0.20530005E+02  0.43172E-06
 0.20580004E+02 -0.79406E-07
 0.20630003E+02 -0.43513E-06
 0.20680004E+02 -0.16982E-06
 0.20730003E+02 -0.22802E-06
 0.20780005E+02 -0.94834E-06
 0.20830004E+02 -0.22033E-05
 0.20880003E+02 -0.59099E-05
 0.20930004E+02 -0.11901E-04
 0.20980003E+02 -0.19835E-04
 0.21030005E+02 -0.23236E-04
 0.21080004E+02 -0.20623E-04
 0.21130003E+02 -0.20132E-04
 0.21180004E+02 -0.11165E-04
 0.21230003E+02  0.25206E-04
 0.21280005E+02  0.58628E-04
 0.21330004E+02  0.25352E-04
 0.21380003E+02 -0.23575E-04
 0.21430004E+02  0.11590E-04
 0.21480003E+02  0.68043E-04
 0.21530005E+02  0.29883E-04
 0.21580004E+02 -0.59894E-04
 0.21630003E+02 -0.80045E-04
 0.21680004E+02 -0.32469E-04
 0.21730003E+02  0.46874E-04
 0.21780005E+02  0.89295E-04
 0.21830004E+02 -0.18147E-04
 0.21880003E+02 -0.54262E-04
 0.21930004E+02  0.90345E-04
 0.21980003E+02  0.12497E-03
 0.22030005E+02  0.15638E-04
 0.22080004E+02 -0.12068E-03
 0.22130003E+02 -0.16080E-03
 0.22180004E+02 -0.47442E-04
 0.22230003E+02  0.49135E-04
 0.22280005E+02 -0.14464E-04
 0.22330004E+02 -0.12530E-03
 0.22380003E+02 -0.26775E-04
 0.22430004E+02  0.19240E-03
 0.22480003E+02  0.17820E-03
 0.22530005E+02 -0.47973E-04
 0.22580004E+02 -0.13350E-03
 0.22630003E+02 -0.16096E-05
 0.22680004E+02  0.14660E-03
 0.22730003E+02  0.86784E-04
 0.22780005E+02 -0.12066E-03
 0.22830004E+02 -0.14529E-03
 0.22880003E+02  0.59415E-04
 0.22930004E+02  0.20295E-03
 0.22980003E+02  0.10525E-03
 0.23030005E+02 -0.62617E-04
 0.23080004E+02 -0.11709E-03
 0.23130003E+02  0.96914E-05
 0.23180004E+02  0.12440E-03
 0.23230003E+02 -0.50252E-05
 0.23280005E+02 -0.77044E-04
 0.23330004E+02 -0.85060E-04
 0.23380003E+02 -0.11015E-03
 0.23430004E+02  0.11503E-03
 0.23480003E+02  0.11593E-03
 0.23530005E+02 -0.19961E-03
 0.23580004E+02 -0.19537E-03
 0.23630003E+02  0.26788E-04
 0.23680004E+02  0.13789E-03
 0.23730003E+02  0.90987E-04
 0.23780005E+02 -0.28689E-04
 0.23830004E+02 -0.10122E-04
 0.23880003E+02  0.12008E-03
 0.23930004E+02  0.19877E-04
 0.23980003E+02 -0.16298E-03
 0.24030005E+02 -0.14115E-03
 0.24080004E+02 -0.98618E-04
 0.24130003E+02 -0.46506E-04
 0.24180004E+02 -0.24781E-04
 0.24230003E+02 -0.76181E-05
 0.24280005E+02  0.12201E-03
 0.24330004E+02  0.14405E-03
 0.24380003E+02  0.10575E-04
 0.24430004E+02 -0.79041E-04
 0.24480003E+02 -0.52969E-04
 0.24530005E+02  0.69919E-05
 0.24580004E+02  0.15268E-04
 0.24630003E+02 -0.11964E-04
 0.24680004E+02  0.25226E-04
 0.24730003E+02  0.12906E-03
 0.24780005E+02  0.23420E-03
 0.24830004E+02  0.22197E-03
 0.24880003E+02  0.20285E-04
 0.24930004E+02 -0.12516E-03
 0.24980003E+02 -0.38879E-04
 0.25030005E+02  0.58959E-04
 0.25080004E+02 -0.11407E-03
 0.25130003E+02 -0.25825E-03
 0.25180004E+02 -0.92298E-04
 0.25230003E+02  0.45192E-04
 0.25280005E+02  0.77091E-04
 0.25330004E+02  0.42745E-04
 0.25380003E+02 -0.45798E-04
 0.25430004E+02  0.57086E-05
 0.25480003E+02  0.46535E-04
 0.25530005E+02 -0.66287E-04
 0.25580004E+02 -0.78629E-04
 0.25630003E+02 -0.65282E-06
 0.25680004E+02 -0.53709E-04
 0.25730003E+02 -0.11683E-03
 0.25780005E+02  0.84388E-04
 0.25830004E+02  0.35476E-03
 0.25880003E+02  0.19703E-03
 0.25930004E+02 -0.52009E-04
 0.25980003E+02 -0.75340E-04
 0.26030005E+02 -0.10177E-03
 0.26080004E+02 -0.62555E-04
 0.26130003E+02 -0.11529E-03
 0.26180004E+02 -0.24032E-03
 0.26230003E+02 -0.10717E-03
 0.26280005E+02  0.36705E-04
 0.26330004E+02 -0.11093E-04
 0.26380003E+02  0.11112E-03
 0.26430004E+02  0.26926E-03
 0.26480003E+02  0.63927E-04
 0.26530005E+02 -0.11235E-03
 0.26580004E+02 -0.82164E-04
 0.26630003E+02 -0.15357E-05
 0.26680004E+02  0.80192E-04
 0.26730003E+02 -0.80776E-05
 0.26780005E+02 -0.50035E-04
 0.26830004E+02  0.46269E-04
 0.26880003E+02  0.19050E-03
 0.26930004E+02  0.28893E-03
 0.26980003E+02  0.41004E-04
 0.27030005E+02 -0.20813E-03
 0.27080004E+02 -0.10354E-03
 0.27130003E+02 -0.84977E-04
 0.27180004E+02 -0.17213E-03
 0.27230003E+02 -0.82946E-04
 0.27280005E+02 -0.72243E-04
 0.27330004E+02 -0.52448E-04
 0.27380003E+02  0.10671E-03
 0.27430004E+02  0.84419E-04
 0.27480003E+02 -0.47770E-04
 0.27530005E+02  0.23347E-04
 0.27580004E+02  0.15906E-03
 0.27630003E+02  0.74823E-05
 0.27680004E+02 -0.16896E-03
 0.27730003E+02 -0.18905E-04
 0.27780005E+02  0.13165E-03
 0.27830004E+02  0.23706E-04
 0.27880003E+02  0.23177E-04
 0.27930004E+02  0.17281E-03
 0.27980003E+02  0.49353E-04
 0.28030005E+02 -0.96798E-04
 0.28080004E+02  0.88997E-06
 0.28130003E+02  0.37710E-04
 0.28180004E+02  0.23370E-04
 0.28230003E+02  0.13304E-03
 0.28280005E+02  0.15987E-03
 0.28330004E+02  0.49691E-05
 0.28380003E+02 -0.20364E-03
 0.28430004E+02 -0.30068E-03
 0.28480003E+02 -0.22151E-03
 0.28530005E+02 -0.15463E-03
 0.28580004E+02 -0.77997E-04
 0.28630003E+02  0.15270E-04
 0.28680004E+02  0.68354E-04
 0.28730003E+02  0.11795E-03
 0.28780005E+02  0.84021E-04
 0.28830004E+02 -0.68034E-05
 0.28880003E+02 -0.53929E-04
 0.28930004E+02 -0.25903E-04
 0.28980003E+02 -0.11476E-03
 0.29030005E+02 -0.19350E-03
 0.29080004E+02  0.48736E-04
 0.29130003E+02  0.25321E-03
 0.29180004E+02  0.23948E-03
 0.29230003E+02  0.21038E-03
 0.29280005E+02  0.16495E-03
 0.29330004E+02  0.12264E-03
 0.29380003E+02  0.97049E-04
 0.29430004E+02  0.48244E-04
 0.29480003E+02 -0.13245E-03
 0.29530005E+02 -0.27185E-03
 0.29580004E+02 -0.14548E-03
 0.29630003E+02 -0.35353E-04
 0.29680004E+02 -0.13366E-04
 0.29730003E+02 -0.39154E-04
 0.29780005E+02 -0.64293E-04
 0.29830004E+02  0.96872E-05
 0.29880003E+02  0.34616E-04
 0.29930004E+02  0.46559E-04
 0.29980003E+02  0.79113E-05
 0.30030005E+02 -0.12639E-03
 0.30080004E+02 -0.10847E-03
 0.30130003E+02  0.32381E-04
 0.30180004E+02  0.20695E-04
 0.30230003E+02 -0.39122E-04
 0.30280005E+02  0.34749E-04
 0.30330004E+02  0.98647E-04
 0.30380003E+02  0.17031E-03
 0.30430004E+02  0.16380E-03
 0.30480003E+02 -0.15787E-04
 0.30530005E+02 -0.85878E-04
 0.30580004E+02 -0.58670E-04
 0.30630003E+02  0.15964E-04
 0.30680004E+02  0.96238E-04
 0.30730003E+02  0.46175E-04
 0.30780005E+02 -0.89121E-04
 0.30830004E+02 -0.21156E-03
 0.30880003E+02 -0.14636E-03
 0.30930004E+02 -0.47211E-05
 0.30980003E+02 -0.31337E-04
 0.31030005E+02 -0.12385E-03
 0.31080004E+02 -0.14498E-04
 0.31130003E+02  0.13162E-03
 0.31180004E+02  0.11523E-03
 0.31230003E+02  0.69298E-04
 0.31280005E+02  0.87128E-05
 0.31330004E+02  0.40541E-04
 0.31380003E+02  0.82302E-04
 0.31430004E+02 -0.49094E-04
 0.31480003E+02 -0.12292E-03
 0.31530005E+02 -0.85686E-04
 0.31580004E+02 -0.51608E-04
 0.31630003E+02  0.25117E-04
 0.31680004E+02 -0.89215E-05
 0.31730003E+02 -0.55793E-04
 0.31780005E+02 -0.22520E-04
 0.31830004E+02 -0.74728E-04
 0.31880003E+02  0.25147E-04
 0.31930004E+02  0.12595E-03
 0.31980003E+02 -0.11626E-03
 0.32030003E+02 -0.22285E-03
 0.32080006E+02  0.13635E-03
 0.32130005E+02  0.33445E-03
 0.32180004E+02  0.21268E-03
 0.32230003E+02  0.19224E-03
 0.32280003E+02  0.14746E-03
 0.32330006E+02  0.69783E-04
 0.32380005E+02  0.31357E-04
 0.32430004E+02 -0.10494E-03
 0.32480003E+02 -0.31169E-03
 0.32530003E+02 -0.27961E-03
 0.32580006E+02  0.76557E-04
 0.32630005E+02  0.32667E-03
 0.32680004E+02  0.24886E-03
 0.32730003E+02  0.72695E-04
 0.32780003E+02  0.65727E-04
 0.32830006E+02 -0.59842E-05
 0.32880005E+02 -0.18189E-03
 0.32930004E+02 -0.21292E-03
 0.32980003E+02 -0.28593E-03
 0.33030003E+02 -0.34602E-03
 0.33080006E+02 -0.21959E-03
 0.33130005E+02 -0.36774E-04
 0.33180004E+02  0.98921E-04
 0.33230003E+02  0.19233E-03
 0.33280003E+02  0.18477E-03
 0.33330006E+02  0.56101E-04
 0.33380005E+02  0.17712E-04
 0.33430004E+02  0.29673E-04
 0.33480003E+02 -0.19631E-05
 0.33530003E+02  0.14010E-04
 0.33580006E+02 -0.16721E-04
 0.33630005E+02 -0.20131E-04
 0.33680004E+02 -0.28391E-04
 0.33730003E+02 -0.79313E-04
 0.33780003E+02 -0.13347E-04
 0.33830006E+02  0.56836E-04
 0.33880005E+02  0.98249E-04
 0.33930004E+02  0.68922E-04
 0.33980003E+02  0.33810E-04
 0.34030003E+02  0.25961E-04
 0.34080006E+02 -0.10702E-03
 0.34130005E+02 -0.14716E-03
 0.34180004E+02 -0.11827E-04
 0.34230003E+02  0.47209E-04
 0.34280003E+02 -0.32286E-05
 0.34330006E+02 -0.21645E-05
 0.34380005E+02  0.15587E-04
 0.34430004E+02 -0.21262E-05
 0.34480003E+02  0.89484E-04
 0.34530003E+02  0.22751E-03
 0.34580006E+02  0.11478E-03
 0.34630005E+02 -0.10375E-03
 0.34680004E+02 -0.14360E-04
 0.34730003E+02  0.80216E-04
 0.34780003E+02 -0.10145E-03
 0.34830006E+02 -0.15557E-03
 0.34880005E+02 -0.32138E-04
 0.34930004E+02 -0.75342E-04
 0.34980003E+02 -0.21031E-03
 0.35030003E+02 -0.88533E-04
 0.35080006E+02  0.63395E-04
 0.35130005E+02 -0.10035E-03
 0.35180004E+02 -0.20743E-03
 0.35230003E+02 -0.32387E-04
 0.35280003E+02  0.27857E-03
 0.35330006E+02  0.46221E-03
 0.35380005E+02  0.27379E-03
 0.35430004E+02  0.74285E-04
 0.35480003E+02  0.19726E-04
 0.35530003E+02 -0.36092E-04
 0.35580006E+02  0.18932E-04
 0.35630005E+02 -0.38145E-04
 0.35680004E+02 -0.21978E-03
 0.35730003E+02 -0.13235E-03
 0.35780003E+02  0.57152E-04
 0.35830006E+02  0.70207E-04
 0.35880005E+02 -0.33643E-05
 0.35930004E+02 -0.42908E-04
 0.35980003E+02  0.23660E-04
 0.36030003E+02  0.94731E-05
 0.36080006E+02 -0.12517E-03
 0.36130005E+02 -0.11607E-03
 0.36180004E+02 -0.13573E-03
 0.36230003E+02 -0.32464E-03
 0.36280003E+02 -0.28090E-03
 0.36330006E+02 -0.64657E-05
 0.36380005E+02  0.12464E-03
 0.36430004E+02  0.17798E-03
 0.36480003E+02  0.36447E-03
 0.36530003E+02  0.73910E-03
 0.36580006E+02  0.10785E-02
 0.36630005E+02  0.10959E-02
 0.36680004E+02  0.89816E-03
 0.36730003E+02  0.66966E-03
 0.36780003E+02  0.37979E-03
 0.36830006E+02 -0.48906E-04
 0.36880005E+02 -0.43527E-03
 0.36930004E+02 -0.56588E-03
 0.36980003E+02 -0.63174E-03
 0.37030003E+02 -0.99451E-03
 0.37080006E+02 -0.15858E-02
 0.37130005E+02 -0.16446E-02
 0.37180004E+02 -0.93274E-03
 0.37230003E+02 -0.31127E-03
 0.37280003E+02 -0.36820E-03
 0.37330006E+02 -0.73292E-03
 0.37380005E+02 -0.47392E-03
 0.37430004E+02  0.48007E-03
 0.37480003E+02  0.92530E-03
 0.37530003E+02  0.45452E-03
 0.37580006E+02 -0.22700E-03
 0.37630005E+02 -0.89790E-03
 0.37680004E+02 -0.14937E-02
 0.37730003E+02 -0.15264E-02
 0.37780003E+02 -0.72573E-03
 0.37830006E+02  0.39979E-03
 0.37880005E+02  0.98177E-03
 0.37930004E+02  0.11614E-02
 0.37980003E+02  0.15361E-02
 0.38030003E+02  0.19533E-02
 0.38080006E+02  0.18822E-02
 0.38130005E+02  0.14284E-02
 0.38180004E+02  0.95856E-03
 0.38230003E+02  0.42830E-03
 0.38280003E+02  0.62677E-04
 0.38330006E+02 -0.28154E-03
 0.38380005E+02 -0.69245E-03
 0.38430004E+02 -0.67558E-03
 0.38480003E+02 -0.35002E-03
 0.38530003E+02 -0.12129E-03
 0.38580006E+02 -0.46454E-04
 0.38630005E+02  0.55547E-04
 0.38680004E+02  0.40672E-03
 0.38730003E+02  0.59962E-03
 0.38780003E+02  0.81047E-04
 0.38830006E+02 -0.75117E-03
 0.38880005E+02 -0.12105E-02
 0.38930004E+02 -0.99484E-03
 0.38980003E+02 -0.48312E-03
 0.39030003E+02 -0.36304E-05
 0.39080006E+02  0.27724E-03
 0.39130005E+02 -0.17637E-03
 0.39180004E+02 -0.81436E-03
 0.39230003E+02 -0.78864E-03
 0.39280003E+02 -0.87781E-04
 0.39330006E+02  0.70152E-03
 0.39380005E+02  0.69849E-03
 0.39430004E+02  0.22992E-03
 0.39480003E+02 -0.45215E-04
 0.39530003E+02 -0.11072E-03
 0.39580006E+02  0.11451E-03
 0.39630005E+02  0.48412E-03
 0.39680004E+02  0.75057E-03
 0.39730003E+02  0.76739E-03
 0.39780003E+02  0.53147E-03
 0.39830006E+02  0.37244E-03
 0.39880005E+02  0.26819E-03
 0.39930004E+02 -0.61204E-04
 0.39980003E+02 -0.41057E-03
 0.40030003E+02 -0.69415E-03
 0.40080006E+02 -0.56980E-03
 0.40130005E+02  0.21672E-03
 0.40180004E+02  0.70732E-03
 0.40230003E+02  0.52969E-03
 0.40280003E+02  0.40988E-03
 0.40330006E+02  0.51295E-03
 0.40380005E+02  0.49051E-03
 0.40430004E+02  0.30399E-03
 0.40480003E+02 -0.85307E-04
 0.40530003E+02 -0.64939E-03
 0.40580006E+02 -0.13768E-02
 0.40630005E+02 -0.20615E-02
 0.40680004E+02 -0.20268E-02
 0.40730003E+02 -0.15690E-02
 0.40780003E+02 -0.11476E-02
 0.40830006E+02 -0.61825E-03
 0.40880005E+02 -0.20487E-03
 0.40930004E+02 -0.14821E-04
 0.40980003E+02  0.35553E-03
 0.41030003E+02  0.11449E-02
 0.41080006E+02  0.16614E-02
 0.41130005E+02  0.13151E-02
 0.41180004E+02  0.65662E-03
 0.41230003E+02  0.32621E-03
 0.41280003E+02  0.24117E-03
 0.41330006E+02  0.27947E-03
 0.41380005E+02  0.43832E-03
 0.41430004E+02  0.42130E-03
 0.41480003E+02  0.10845E-03
 0.41530003E+02  0.22206E-04
 0.41580006E+02  0.40558E-03
 0.41630005E+02  0.51043E-03
 0.41680004E+02  0.24132E-03
 0.41730003E+02  0.77925E-04
 0.41780003E+02 -0.85632E-04
 0.41830006E+02 -0.26224E-03
 0.41880005E+02 -0.33987E-03
 0.41930004E+02 -0.53311E-03
 0.41980003E+02 -0.89776E-03
 0.42030003E+02 -0.10622E-02
 0.42080006E+02 -0.91022E-03
 0.42130005E+02 -0.62487E-03
 0.42180004E+02 -0.42370E-03
 0.42230003E+02 -0.11320E-03
 0.42280003E+02  0.44777E-03
 0.42330006E+02  0.74112E-03
 0.42380005E+02  0.83334E-03
 0.42430004E+02  0.10195E-02
 0.42480003E+02  0.12436E-02
 0.42530003E+02  0.15298E-02
 0.42580006E+02  0.12262E-02
 0.42630005E+02  0.15842E-03
 0.42680004E+02 -0.57906E-03
 0.42730003E+02 -0.69345E-03
 0.42780003E+02 -0.52653E-03
 0.42830006E+02 -0.21218E-03
 0.42880005E+02 -0.34218E-03
 0.42930004E+02 -0.10861E-02
 0.42980003E+02 -0.17819E-02
 0.43030003E+02 -0.17642E-02
 0.43080006E+02 -0.10392E-02
 0.43130005E+02 -0.28794E-03
 0.43180004E+02  0.18090E-03
 0.43230003E+02  0.35170E-03
 0.43280003E+02  0.39416E-03
 0.43330006E+02  0.51944E-03
 0.43380005E+02  0.61887E-03
 0.43430004E+02  0.51983E-03
 0.43480003E+02 -0.24257E-04
 0.43530003E+02 -0.61347E-03
 0.43580006E+02 -0.64747E-03
 0.43630005E+02 -0.23851E-03
 0.43680004E+02  0.53342E-03
 0.43730003E+02  0.13398E-02
 0.43780003E+02  0.15034E-02
 0.43830006E+02  0.11860E-02
 0.43880005E+02  0.93640E-03
 0.43930004E+02  0.91133E-03
 0.43980003E+02  0.99730E-03
 0.44030003E+02  0.78756E-03
 0.44080006E+02  0.11372E-03
 0.44130005E+02 -0.62493E-03
 0.44180004E+02 -0.89078E-03
 0.44230003E+02 -0.69177E-03
 0.44280003E+02 -0.42310E-03
 0.44330006E+02 -0.21704E-03
 0.44380005E+02 -0.27493E-03
 0.44430004E+02 -0.64902E-03
 0.44480003E+02 -0.10820E-02
 0.44530003E+02 -0.11722E-02
 0.44580006E+02 -0.69898E-03
 0.44630005E+02 -0.35615E-03
 0.44680004E+02 -0.69333E-03
 0.44730003E+02 -0.12834E-02
 0.44780003E+02 -0.14211E-02
 0.44830006E+02 -0.88253E-03
 0.44880005E+02 -0.11055E-03
 0.44930004E+02  0.59626E-03
 0.44980003E+02  0.12005E-02
 0.45030003E+02  0.15603E-02
 0.45080006E+02  0.15879E-02
 0.45130005E+02  0.14381E-02
 0.45180004E+02  0.13495E-02
 0.45230003E+02  0.11398E-02
 0.45280003E+02  0.59223E-03
 0.45330006E+02 -0.14569E-04
 0.45380005E+02 -0.32582E-03
 0.45430004E+02 -0.34614E-03
 0.45480003E+02 -0.26811E-03
 0.45530003E+02 -0.37944E-03
 0.45580006E+02 -0.67978E-03
 0.45630005E+02 -0.72194E-03
 0.45680004E+02 -0.52894E-03
 0.45730003E+02 -0.39421E-03
 0.45780003E+02 -0.33451E-03
 0.45830006E+02 -0.22257E-03
 0.45880005E+02 -0.12201E-03
 0.45930004E+02 -0.13889E-03
 0.45980003E+02 -0.14541E-03
 0.46030003E+02 -0.15359E-03
 0.46080006E+02  0.61690E-04
 0.46130005E+02  0.51595E-03
 0.46180004E+02  0.64202E-03
 0.46230003E+02  0.49805E-03
 0.46280003E+02  0.51243E-03
 0.46330006E+02  0.65006E-03
 0.46380005E+02  0.67812E-03
 0.46430004E+02  0.52443E-03
 0.46480003E+02  0.18572E-03
 0.46530003E+02 -0.43764E-03
 0.46580006E+02 -0.11344E-02
 0.46630005E+02 -0.15626E-02
 0.46680004E+02 -0.15283E-02
 0.46730003E+02 -0.11104E-02
 0.46780003E+02 -0.63986E-03
 0.46830006E+02 -0.89034E-04
 0.46880005E+02  0.47719E-03
 0.46930004E+02  0.91282E-03
 0.46980003E+02  0.12047E-02
 0.47030003E+02  0.10930E-02
 0.47080006E+02  0.46646E-03
 0.47130005E+02 -0.31520E-03
 0.47180004E+02 -0.52867E-03
 0.47230003E+02 -0.22299E-03
 0.47280003E+02 -0.73951E-04
 0.47330006E+02 -0.25922E-05
 0.47380005E+02  0.19802E-03
 0.47430004E+02  0.44840E-03
 0.47480003E+02  0.69151E-03
 0.47530003E+02  0.91731E-03
 0.47580006E+02  0.10883E-02
 0.47630005E+02  0.97124E-03
 0.47680004E+02  0.52509E-03
 0.47730003E+02 -0.12548E-03
 0.47780003E+02 -0.79266E-03
 0.47830006E+02 -0.11988E-02
 0.47880005E+02 -0.14096E-02
 0.47930004E+02 -0.14876E-02
 0.47980003E+02 -0.13009E-02
 0.48030003E+02 -0.90400E-03
 0.48080006E+02 -0.24905E-03
 0.48130005E+02  0.65026E-03
 0.48180004E+02  0.12727E-02
 0.48230003E+02  0.12348E-02
 0.48280003E+02  0.86848E-03
 0.48330006E+02  0.57805E-03
 0.48380005E+02  0.33447E-03
 0.48430004E+02 -0.11977E-03
 0.48480003E+02 -0.78472E-03
 0.48530003E+02 -0.11250E-02
 0.48580006E+02 -0.84482E-03
 0.48630005E+02 -0.39944E-03
 0.48680004E+02 -0.23926E-03
 0.48730003E+02 -0.16831E-03
 0.48780003E+02  0.14137E-03
 0.48830006E+02  0.56136E-03
 0.48880005E+02  0.85932E-03
 0.48930004E+02  0.91803E-03
 0.48980003E+02  0.70573E-03
 0.49030003E+02  0.37775E-03
 0.49080006E+02  0.15889E-03
 0.49130005E+02  0.17806E-03
 0.49180004E+02  0.17083E-03
 0.49230003E+02 -0.18164E-03
 0.49280003E+02 -0.69708E-03
 0.49330006E+02 -0.10913E-02
 0.49380005E+02 -0.14085E-02
 0.49430004E+02 -0.15111E-02
 0.49480003E+02 -0.99304E-03
 0.49530003E+02 -0.72271E-04
 0.49580006E+02  0.84264E-03
 0.49630005E+02  0.15833E-02
 0.49680004E+02  0.18349E-02
 0.49730003E+02  0.14700E-02
 0.49780003E+02  0.89086E-03
 0.49830006E+02  0.51811E-03
 0.49880005E+02  0.10573E-03
 0.49930004E+02 -0.51057E-03
 0.49980003E+02 -0.10241E-02
 0.50030003E+02 -0.11291E-02
 0.50080006E+02 -0.84179E-03
 0.50130005E+02 -0.60037E-03
 0.50180004E+02 -0.49963E-03
 0.50230003E+02 -0.33537E-03
 0.50280003E+02 -0.50153E-04
 0.50330006E+02  0.26832E-03
 0.50380005E+02  0.41762E-03
 0.50430004E+02  0.26639E-03
 0.50480003E+02 -0.16012E-03
 0.50530003E+02 -0.48128E-03
 0.50580006E+02 -0.34018E-03
 0.50630005E+02 -0.24282E-04
 0.50680004E+02 -0.77129E-05
 0.50730003E+02 -0.19958E-03
 0.50780003E+02 -0.18657E-03
 0.50830006E+02  0.18882E-03
 0.50880005E+02  0.69567E-03
 0.50930004E+02  0.97237E-03
 0.50980003E+02  0.96109E-03
 0.51030003E+02  0.88359E-03
 0.51080006E+02  0.78135E-03
 0.51130005E+02  0.55950E-03
 0.51180004E+02  0.30484E-03
 0.51230003E+02  0.20136E-03
 0.51280003E+02  0.22843E-03
 0.51330006E+02  0.20934E-03
 0.51380005E+02  0.10929E-03
 0.51430004E+02 -0.95765E-04
 0.51480003E+02 -0.35606E-03
 0.51530003E+02 -0.68232E-03
 0.51580006E+02 -0.10796E-02
 0.51630005E+02 -0.12827E-02
 0.51680004E+02 -0.13397E-02
 0.51730003E+02 -0.14121E-02
 0.51780003E+02 -0.13118E-02
 0.51830006E+02 -0.96251E-03
 0.51880005E+02 -0.49744E-03
 0.51930004E+02 -0.14461E-04
 0.51980003E+02  0.32043E-03
 0.52030003E+02  0.53406E-03
 0.52080006E+02  0.82052E-03
 0.52130005E+02  0.10468E-02
 0.52180004E+02  0.10534E-02
 0.52230003E+02  0.79772E-03
 0.52280003E+02  0.35636E-03
 0.52330006E+02  0.19063E-03
 0.52380005E+02  0.43205E-03
 0.52430004E+02  0.61675E-03
 0.52480003E+02  0.59137E-03
 0.52530003E+02  0.52529E-03
 0.52580006E+02  0.42079E-03
 0.52630005E+02  0.22070E-03
 0.52680004E+02  0.37057E-04
 0.52730003E+02 -0.54670E-04
 0.52780003E+02 -0.17220E-03
 0.52830006E+02 -0.36354E-03
 0.52880005E+02 -0.57283E-03
 0.52930004E+02 -0.64319E-03
 0.52980003E+02 -0.48178E-03
 0.53030003E+02 -0.30853E-03
 0.53080006E+02 -0.29157E-03
 0.53130005E+02 -0.29686E-03
 0.53180004E+02 -0.20809E-03
 0.53230003E+02 -0.16039E-03
 0.53280003E+02 -0.28329E-03
 0.53330006E+02 -0.46152E-03
 0.53380005E+02 -0.51738E-03
 0.53430004E+02 -0.32719E-03
 0.53480003E+02  0.80987E-04
 0.53530003E+02  0.34464E-03
 0.53580006E+02  0.34196E-03
 0.53630005E+02  0.47599E-03
 0.53680004E+02  0.88463E-03
 0.53730003E+02  0.12152E-02
 0.53780003E+02  0.11612E-02
 0.53830006E+02  0.83315E-03
 0.53880005E+02  0.37518E-03
 0.53930004E+02 -0.18666E-03
 0.53980003E+02 -0.60832E-03
 0.54030003E+02 -0.85295E-03
 0.54080006E+02 -0.11052E-02
 0.54130005E+02 -0.12493E-02
 0.54180004E+02 -0.11651E-02
 0.54230003E+02 -0.10007E-02
 0.54280003E+02 -0.77376E-03
 0.54330006E+02 -0.39988E-03
 0.54380005E+02 -0.68299E-04
 0.54430004E+02  0.44390E-04
 0.54480003E+02 -0.54885E-05
 0.54530003E+02 -0.14490E-04
 0.54580006E+02  0.21882E-03
 0.54630005E+02  0.64880E-03
 0.54680004E+02  0.10256E-02
 0.54730003E+02  0.11713E-02
 0.54780003E+02  0.11131E-02
 0.54830006E+02  0.94176E-03
 0.54880005E+02  0.76457E-03
 0.54930004E+02  0.61976E-03
 0.54980003E+02  0.47456E-03
 0.55030003E+02  0.29907E-03
 0.55080006E+02  0.76657E-04
 0.55130005E+02 -0.11011E-03
 0.55180004E+02 -0.16908E-03
 0.55230003E+02 -0.14326E-03
 0.55280003E+02 -0.17123E-03
 0.55330006E+02 -0.33136E-03
 0.55380005E+02 -0.56569E-03
 0.55430004E+02 -0.69428E-03
 0.55480003E+02 -0.65259E-03
 0.55530003E+02 -0.59223E-03
 0.55580006E+02 -0.59830E-03
 0.55630005E+02 -0.61812E-03
 0.55680004E+02 -0.62779E-03
 0.55730003E+02 -0.61238E-03
 0.55780003E+02 -0.44897E-03
 0.55830006E+02 -0.10924E-03
 0.55880005E+02  0.18481E-03
 0.55930004E+02  0.29540E-03
 0.55980003E+02  0.33065E-03
 0.56030003E+02  0.41450E-03
 0.56080006E+02  0.45276E-03
 0.56130005E+02  0.45146E-03
 0.56180004E+02  0.50906E-03
 0.56230003E+02  0.47796E-03
 0.56280003E+02  0.36046E-03
 0.56330006E+02  0.22178E-03
 0.56380005E+02  0.13883E-03
 0.56430004E+02  0.74095E-04
 0.56480003E+02 -0.16420E-03
 0.56530003E+02 -0.31958E-03
 0.56580006E+02 -0.17020E-03
 0.56630005E+02  0.27426E-04
 0.56680004E+02  0.70864E-04
 0.56730003E+02  0.10868E-03
 0.56780003E+02  0.26525E-03
 0.56830006E+02  0.39816E-03
 0.56880005E+02  0.35959E-03
 0.56930004E+02  0.10639E-03
 0.56980003E+02 -0.28261E-03
 0.57030003E+02 -0.55690E-03
 0.57080006E+02 -0.51164E-03
 0.57130005E+02 -0.24912E-03
 0.57180004E+02 -0.19401E-04
 0.57230003E+02  0.22254E-04
 0.57280003E+02 -0.10061E-03
 0.57330006E+02 -0.18398E-03
 0.57380005E+02 -0.14549E-03
 0.57430004E+02 -0.64815E-04
 0.57480003E+02  0.78606E-04
 0.57530003E+02  0.22048E-03
 0.57580006E+02  0.27771E-03
 0.57630005E+02  0.31572E-03
 0.57680004E+02  0.27524E-03
 0.57730003E+02  0.12607E-03
 0.57780003E+02  0.83384E-05
 0.57830006E+02 -0.78072E-04
 0.57880005E+02 -0.29779E-03
 0.57930004E+02 -0.61132E-03
 0.57980003E+02 -0.72431E-03
 0.58030003E+02 -0.58331E-03
 0.58080006E+02 -0.43175E-03
 0.58130005E+02 -0.28414E-03
 0.58180004E+02 -0.40764E-04
 0.58230003E+02  0.26234E-03
 0.58280003E+02  0.61214E-03
 0.58330006E+02  0.87103E-03
 0.58380005E+02  0.93333E-03
 0.58430004E+02  0.79332E-03
 0.58480003E+02  0.48622E-03
 0.58530003E+02  0.18767E-03
 0.58580006E+02 -0.37666E-04
 0.58630005E+02 -0.18511E-03
 0.58680004E+02 -0.23417E-03
 0.58730003E+02 -0.22301E-03
 0.58780003E+02 -0.18882E-03
 0.58830006E+02 -0.13142E-03
 0.58880005E+02 -0.21457E-04
 0.58930004E+02  0.81415E-04
 0.58980003E+02  0.60126E-05
 0.59030003E+02 -0.24614E-03
 0.59080006E+02 -0.50423E-03
 0.59130005E+02 -0.68770E-03
 0.59180004E+02 -0.77775E-03
 0.59230003E+02 -0.79712E-03
 0.59280003E+02 -0.77622E-03
 0.59330006E+02 -0.73293E-03
 0.59380005E+02 -0.61309E-03
 0.59430004E+02 -0.32880E-03
 0.59480003E+02  0.70515E-04
 0.59530003E+02  0.46583E-03
 0.59580006E+02  0.80089E-03
 0.59630005E+02  0.10655E-02
 0.59680004E+02  0.12107E-02
 0.59730003E+02  0.12475E-02
 0.59780003E+02  0.11950E-02
 0.59830006E+02  0.10090E-02
 0.59880005E+02  0.76008E-03
 0.59930004E+02  0.54276E-03
 0.59980003E+02  0.32626E-03
 0.60030003E+02  0.81414E-04
 0.60080006E+02 -0.15419E-03
 0.60130005E+02 -0.33133E-03
 0.60180004E+02 -0.39684E-03
 0.60230003E+02 -0.43070E-03
 0.60280003E+02 -0.55860E-03
 0.60330006E+02 -0.72683E-03
 0.60380005E+02 -0.89699E-03
 0.60430004E+02 -0.10584E-02
 0.60480003E+02 -0.10777E-02
 0.60530003E+02 -0.84598E-03
 0.60580006E+02 -0.41855E-03
 0.60630005E+02 -0.28721E-05
 0.60680004E+02  0.23646E-03
 0.60730003E+02  0.35504E-03
 0.60780003E+02  0.40603E-03
 0.60830006E+02  0.35140E-03
 0.60880005E+02  0.23242E-03
 0.60930004E+02  0.98262E-04
 0.60980003E+02  0.79098E-04
 0.61030003E+02  0.21123E-03
 0.61080006E+02  0.31013E-03
 0.61130005E+02  0.30791E-03
 0.61180004E+02  0.23745E-03
 0.61230003E+02  0.22126E-03
 0.61280003E+02  0.27464E-03
 0.61330006E+02  0.23423E-03
 0.61380005E+02  0.74288E-04
 0.61430004E+02 -0.13980E-03
 0.61480003E+02 -0.31215E-03
 0.61530003E+02 -0.42667E-03
 0.61580006E+02 -0.49506E-03
 0.61630005E+02 -0.45609E-03
 0.61680004E+02 -0.29369E-03
 0.61730003E+02 -0.16008E-04
 0.61780003E+02  0.28425E-03
 0.61830006E+02  0.50153E-03
 0.61880005E+02  0.57733E-03
 0.61930004E+02  0.45904E-03
 0.61980003E+02  0.26366E-03
 0.62030003E+02  0.12813E-03
 0.62080006E+02  0.22789E-04
 0.62130005E+02 -0.64091E-04
 0.62180004E+02 -0.18619E-03
 0.62230003E+02 -0.38517E-03
 0.62280003E+02 -0.50539E-03
 0.62330006E+02 -0.54453E-03
 0.62380005E+02 -0.62973E-03
 0.62430004E+02 -0.70362E-03
 0.62480003E+02 -0.71320E-03
 0.62530003E+02 -0.67138E-03
 0.62580006E+02 -0.50491E-03
 0.62630005E+02 -0.11572E-03
 0.62680004E+02  0.41544E-03
 0.62730003E+02  0.90515E-03
 0.62780003E+02  0.12234E-02
 0.62830006E+02  0.13256E-02
 0.62880005E+02  0.12468E-02
 0.62930004E+02  0.10174E-02
 0.62980003E+02  0.72717E-03
 0.63030003E+02  0.43205E-03
 0.63080006E+02  0.13713E-03
 0.63130005E+02 -0.15143E-03
 0.63180004E+02 -0.44543E-03
 0.63230003E+02 -0.61151E-03
 0.63280003E+02 -0.59981E-03
 0.63330006E+02 -0.49417E-03
 0.63380005E+02 -0.30018E-03
 0.63430004E+02 -0.84005E-04
 0.63480003E+02  0.45243E-04
 0.63530003E+02 -0.25143E-05
 0.63580006E+02 -0.23033E-03
 0.63630005E+02 -0.46858E-03
 0.63680004E+02 -0.54720E-03
 0.63730003E+02 -0.52200E-03
 0.63780003E+02 -0.50397E-03
 0.63830006E+02 -0.40517E-03
 0.63880005E+02 -0.19051E-03
 0.63930004E+02  0.98559E-04
 0.63980003E+02  0.41810E-03
 0.64030006E+02  0.64417E-03
 0.64080002E+02  0.75071E-03
 0.64130005E+02  0.71179E-03
 0.64180008E+02  0.41959E-03
 0.64230003E+02  0.25075E-05
 0.64280006E+02 -0.23125E-03
 0.64330002E+02 -0.27117E-03
 0.64380005E+02 -0.30359E-03
 0.64430008E+02 -0.36378E-03
 0.64480003E+02 -0.39432E-03
 0.64530006E+02 -0.37630E-03
 0.64580002E+02 -0.34025E-03
 0.64630005E+02 -0.27909E-03
 0.64680008E+02 -0.17750E-03
 0.64730003E+02 -0.52794E-04
 0.64780006E+02  0.10446E-03
 0.64830002E+02  0.30973E-03
 0.64880005E+02  0.49602E-03
 0.64930008E+02  0.58913E-03
 0.64980003E+02  0.56715E-03
 0.65030006E+02  0.43983E-03
 0.65080002E+02  0.30744E-03
 0.65130005E+02  0.21153E-03
 0.65180008E+02  0.14145E-03
 0.65230003E+02  0.15663E-03
 0.65280006E+02  0.18016E-03
 0.65330002E+02  0.10522E-03
 0.65380005E+02 -0.30380E-04
 0.65430008E+02 -0.15688E-03
 0.65480003E+02 -0.20713E-03
 0.65530006E+02 -0.21799E-03
 0.65580002E+02 -0.25220E-03
 0.65630005E+02 -0.27670E-03
 0.65680008E+02 -0.25126E-03
 0.65730003E+02 -0.18374E-03
 0.65780006E+02 -0.13717E-03
 0.65830002E+02 -0.12933E-03
 0.65880005E+02 -0.12575E-03
 0.65930008E+02 -0.19906E-03
 0.65980003E+02 -0.40908E-03
 0.66030006E+02 -0.60553E-03
 0.66080002E+02 -0.62032E-03
 0.66130005E+02 -0.43970E-03
 0.66180008E+02 -0.21330E-03
 0.66230003E+02 -0.15814E-03
 0.66280006E+02 -0.24118E-03
 0.66330002E+02 -0.24144E-03
 0.66380005E+02 -0.10373E-03
 0.66430008E+02  0.73764E-04
 0.66480003E+02  0.22097E-03
 0.66530006E+02  0.36105E-03
 0.66580002E+02  0.49988E-03
 0.66630005E+02  0.62356E-03
 0.66680008E+02  0.77318E-03
 0.66730003E+02  0.91513E-03
 0.66780006E+02  0.96562E-03
 0.66830002E+02  0.91846E-03
 0.66880005E+02  0.78099E-03
 0.66930008E+02  0.53407E-03
 0.66980003E+02  0.22721E-03
 0.67030006E+02 -0.22201E-04
 0.67080002E+02 -0.19067E-03
 0.67130005E+02 -0.31924E-03
 0.67180008E+02 -0.38832E-03
 0.67230003E+02 -0.35890E-03
 0.67280006E+02 -0.25893E-03
 0.67330002E+02 -0.15939E-03
 0.67380005E+02 -0.51413E-04
 0.67430008E+02  0.33514E-04
 0.67480003E+02 -0.12347E-05
 0.67530006E+02 -0.16914E-03
 0.67580002E+02 -0.44607E-03
 0.67630005E+02 -0.68270E-03
 0.67680008E+02 -0.74690E-03
 0.67730003E+02 -0.73530E-03
 0.67780006E+02 -0.73392E-03
 0.67830002E+02 -0.70633E-03
 0.67880005E+02 -0.57094E-03
 0.67930008E+02 -0.27801E-03
 0.67980003E+02  0.98120E-04
 0.68030006E+02  0.43671E-03
 0.68080002E+02  0.65886E-03
 0.68130005E+02  0.71959E-03
 0.68180008E+02  0.61790E-03
 0.68230003E+02  0.39999E-03
 0.68280006E+02  0.14417E-03
 0.68330002E+02 -0.90990E-04
 0.68380005E+02 -0.25117E-03
 0.68430008E+02 -0.29156E-03
 0.68480003E+02 -0.19791E-03
 0.68530006E+02 -0.14489E-04
 0.68580002E+02  0.16298E-03
 0.68630005E+02  0.27898E-03
 0.68680008E+02  0.29992E-03
 0.68730003E+02  0.27712E-03
 0.68780006E+02  0.28829E-03
 0.68830002E+02  0.32633E-03
 0.68880005E+02  0.36399E-03
 0.68930008E+02  0.38576E-03
 0.68980003E+02  0.40023E-03
 0.69030006E+02  0.35384E-03
 0.69080002E+02  0.19927E-03
 0.69130005E+02  0.12085E-04
 0.69180008E+02 -0.17126E-03
 0.69230003E+02 -0.37070E-03
 0.69280006E+02 -0.52626E-03
 0.69330002E+02 -0.57310E-03
 0.69380005E+02 -0.52655E-03
 0.69430008E+02 -0.45620E-03
 0.69480003E+02 -0.39787E-03
 0.69530006E+02 -0.30418E-03
 0.69580002E+02 -0.16491E-03
 0.69630005E+02 -0.40386E-04
 0.69680008E+02  0.20249E-04
 0.69730003E+02  0.25594E-04
 0.69780006E+02  0.10033E-04
 0.69830002E+02  0.11358E-05
 0.69880005E+02  0.81799E-05
 0.69930008E+02 -0.16020E-04
 0.69980003E+02 -0.52588E-04
 0.70030006E+02 -0.41850E-04
 0.70080002E+02  0.28446E-05
 0.70130005E+02  0.80497E-04
 0.70180008E+02  0.15905E-03
 0.70230003E+02  0.24914E-03
 0.70280006E+02  0.38994E-03
 0.70330002E+02  0.46799E-03
 0.70380005E+02  0.41051E-03
 0.70430008E+02  0.26962E-03
 0.70480003E+02  0.11878E-03
 0.70530006E+02 -0.11749E-04
 0.70580002E+02 -0.99574E-04
 0.70630005E+02 -0.86289E-04
 0.70680008E+02 -0.33725E-04
 0.70730003E+02 -0.16067E-04
 0.70780006E+02 -0.25479E-04
 0.70830002E+02 -0.27870E-04
 0.70880005E+02  0.19885E-04
 0.70930008E+02  0.36202E-04
 0.70980003E+02 -0.69638E-04
 0.71030006E+02 -0.22718E-03
 0.71080002E+02 -0.31010E-03
 0.71130005E+02 -0.28213E-03
 0.71180008E+02 -0.20256E-03
 0.71230003E+02 -0.12559E-03
 0.71280006E+02 -0.43594E-04
 0.71330002E+02  0.60353E-04
 0.71380005E+02  0.17271E-03
 0.71430008E+02  0.24966E-03
 0.71480003E+02  0.21937E-03
 0.71530006E+02  0.10247E-03
 0.71580002E+02 -0.39388E-04
 0.71630005E+02 -0.18607E-03
 0.71680008E+02 -0.27548E-03
 0.71730003E+02 -0.28264E-03
 0.71780006E+02 -0.19139E-03
 0.71830002E+02 -0.61111E-04
 0.71880005E+02 -0.30125E-04
 0.71930008E+02 -0.22835E-04
 0.71980003E+02  0.58418E-04
 0.72030006E+02  0.15883E-03
 0.72080002E+02  0.21826E-03
 0.72130005E+02  0.24093E-03
 0.72180008E+02  0.27406E-03
 0.72230003E+02  0.26430E-03
 0.72280006E+02  0.18580E-03
 0.72330002E+02  0.99276E-04
 0.72380005E+02  0.13701E-04
 0.72430008E+02 -0.55644E-04
 0.72480003E+02 -0.61138E-04
 0.72530006E+02  0.13078E-04
 0.72580002E+02  0.12295E-03
 0.72630005E+02  0.20844E-03
 0.72680008E+02  0.19423E-03
 0.72730003E+02  0.67858E-04
 0.72780006E+02 -0.51472E-04
 0.72830002E+02 -0.10215E-03
 0.72880005E+02 -0.14703E-03
 0.72930008E+02 -0.19977E-03
 0.72980003E+02 -0.23240E-03
 0.73030006E+02 -0.22776E-03
 0.73080002E+02 -0.16142E-03
 0.73130005E+02 -0.12037E-03
 0.73180008E+02 -0.19210E-03
 0.73230003E+02 -0.30699E-03
 0.73280006E+02 -0.40539E-03
 0.73330002E+02 -0.45085E-03
 0.73380005E+02 -0.37004E-03
 0.73430008E+02 -0.18085E-03
 0.73480003E+02  0.17536E-04
 0.73530006E+02  0.14506E-03
 0.73580002E+02  0.19680E-03
 0.73630005E+02  0.20434E-03
 0.73680008E+02  0.19301E-03
 0.73730003E+02  0.18414E-03
 0.73780006E+02  0.17167E-03
 0.73830002E+02  0.18112E-03
 0.73880005E+02  0.23726E-03
 0.73930008E+02  0.34427E-03
 0.73980003E+02  0.46890E-03
 0.74030006E+02  0.52702E-03
 0.74080002E+02  0.50790E-03
 0.74130005E+02  0.44413E-03
 0.74180008E+02  0.32443E-03
 0.74230003E+02  0.14128E-03
 0.74280006E+02 -0.78761E-04
 0.74330002E+02 -0.29168E-03
 0.74380005E+02 -0.40384E-03
 0.74430008E+02 -0.37666E-03
 0.74480003E+02 -0.27957E-03
 0.74530006E+02 -0.17102E-03
 0.74580002E+02 -0.10133E-03
 0.74630005E+02 -0.61622E-04
 0.74680008E+02 -0.11531E-04
 0.74730003E+02  0.90654E-05
 0.74780006E+02 -0.17673E-04
 0.74830002E+02 -0.62228E-04
 0.74880005E+02 -0.12147E-03
 0.74930008E+02 -0.18798E-03
 0.74980003E+02 -0.25839E-03
 0.75030006E+02 -0.32541E-03
 0.75080002E+02 -0.35635E-03
 0.75130005E+02 -0.34331E-03
 0.75180008E+02 -0.32121E-03
 0.75230003E+02 -0.32284E-03
 0.75280006E+02 -0.31754E-03
 0.75330002E+02 -0.25558E-03
 0.75380005E+02 -0.11054E-03
 0.75430008E+02  0.11195E-03
 0.75480003E+02  0.33050E-03
 0.75530006E+02  0.42646E-03
 0.75580002E+02  0.43844E-03
 0.75630005E+02  0.50955E-03
 0.75680008E+02  0.58148E-03
 0.75730003E+02  0.54815E-03
 0.75780006E+02  0.41351E-03
 0.75830002E+02  0.22787E-03
 0.75880005E+02  0.82168E-04
 0.75930008E+02 -0.74695E-06
 0.75980003E+02 -0.53738E-04
 0.76030006E+02 -0.99250E-04
 0.76080002E+02 -0.12008E-03
 0.76130005E+02 -0.87627E-04
 0.76180008E+02 -0.13832E-04
 0.76230003E+02  0.70520E-04
 0.76280006E+02  0.13177E-03
 0.76330002E+02  0.13211E-03
 0.76380005E+02  0.40327E-04
 0.76430008E+02 -0.13786E-03
 0.76480003E+02 -0.33804E-03
 0.76530006E+02 -0.42720E-03
 0.76580002E+02 -0.35367E-03
 0.76630005E+02 -0.22807E-03
 0.76680008E+02 -0.13592E-03
 0.76730003E+02 -0.65723E-04
 0.76780006E+02 -0.24266E-04
 0.76830002E+02 -0.25735E-04
 0.76880005E+02 -0.96819E-05
 0.76930008E+02  0.33071E-04
 0.76980003E+02  0.89155E-05
 0.77030006E+02 -0.11686E-03
 0.77080002E+02 -0.23678E-03
 0.77130005E+02 -0.22154E-03
 0.77180008E+02 -0.83434E-04
 0.77230003E+02  0.64603E-04
 0.77280006E+02  0.14304E-03
 0.77330002E+02  0.15783E-03
 0.77380005E+02  0.13436E-03
 0.77430008E+02  0.87714E-04
 0.77480003E+02  0.49876E-04
 0.77530006E+02  0.42057E-04
 0.77580002E+02  0.51893E-04
 0.77630005E+02  0.55902E-04
 0.77680008E+02  0.96072E-04
 0.77730003E+02  0.22435E-03
 0.77780006E+02  0.36536E-03
 0.77830002E+02  0.42610E-03
 0.77880005E+02  0.41168E-03
 0.77930008E+02  0.34820E-03
 0.77980003E+02  0.25231E-03
 0.78030006E+02  0.14218E-03
 0.78080002E+02  0.35608E-04
 0.78130005E+02 -0.64272E-04
 0.78180008E+02 -0.13945E-03
 0.78230003E+02 -0.14833E-03
 0.78280006E+02 -0.11360E-03
 0.78330002E+02 -0.87576E-04
 0.78380005E+02 -0.81584E-04
 0.78430008E+02 -0.10492E-03
 0.78480003E+02 -0.16902E-03
 0.78530006E+02 -0.25601E-03
 0.78580002E+02 -0.32357E-03
 0.78630005E+02 -0.35387E-03
 0.78680008E+02 -0.36702E-03
 0.78730003E+02 -0.38582E-03
 0.78780006E+02 -0.41545E-03
 0.78830002E+02 -0.42636E-03
 0.78880005E+02 -0.40270E-03
 0.78930008E+02 -0.33361E-03
 0.78980003E+02 -0.23024E-03
 0.79030006E+02 -0.15650E-03
 0.79080002E+02 -0.82505E-04
 0.79130005E+02  0.32016E-04
 0.79180008E+02  0.14879E-03
 0.79230003E+02  0.27321E-03
 0.79280006E+02  0.42141E-03
 0.79330002E+02  0.55553E-03
 0.79380005E+02  0.62738E-03
 0.79430008E+02  0.63714E-03
 0.79480003E+02  0.60091E-03
 0.79530006E+02  0.51675E-03
 0.79580002E+02  0.38649E-03
 0.79630005E+02  0.23756E-03
 0.79680008E+02  0.81826E-04
 0.79730003E+02 -0.10205E-03
 0.79780006E+02 -0.29286E-03
 0.79830002E+02 -0.41745E-03
 0.79880005E+02 -0.41992E-03
 0.79930008E+02 -0.33382E-03
 0.79980003E+02 -0.23352E-03
 0.80030006E+02 -0.14275E-03
 0.80080002E+02 -0.55102E-04
 0.80130005E+02  0.10579E-04
 0.80180008E+02  0.56827E-04
 0.80230003E+02  0.13382E-03
 0.80280006E+02  0.21502E-03
 0.80330002E+02  0.24556E-03
 0.80380005E+02  0.24093E-03
 0.80430008E+02  0.20971E-03
 0.80480003E+02  0.15780E-03
 0.80530006E+02  0.88116E-04
 0.80580002E+02 -0.18526E-04
 0.80630005E+02 -0.13171E-03
 0.80680008E+02 -0.20287E-03
 0.80730003E+02 -0.23124E-03
 0.80780006E+02 -0.21698E-03
 0.80830002E+02 -0.16090E-03
 0.80880005E+02 -0.11255E-03
 0.80930008E+02 -0.11767E-03
 0.80980003E+02 -0.16583E-03
 0.81030006E+02 -0.21371E-03
 0.81080002E+02 -0.24786E-03
 0.81130005E+02 -0.27854E-03
 0.81180008E+02 -0.26620E-03
 0.81230003E+02 -0.17563E-03
 0.81280006E+02 -0.46940E-04
 0.81330002E+02  0.62087E-04
 0.81380005E+02  0.14136E-03
 0.81430008E+02  0.18296E-03
 0.81480003E+02  0.19725E-03
 0.81530006E+02  0.20175E-03
 0.81580002E+02  0.15560E-03
 0.81630005E+02  0.81820E-04
 0.81680008E+02  0.54149E-04
 0.81730003E+02  0.96541E-04
 0.81780006E+02  0.17137E-03
 0.81830002E+02  0.23158E-03
 0.81880005E+02  0.27589E-03
 0.81930008E+02  0.25483E-03
 0.81980003E+02  0.15642E-03
 0.82030006E+02  0.60390E-04
 0.82080002E+02 -0.10126E-04
 0.82130005E+02 -0.94537E-04
 0.82180008E+02 -0.21324E-03
 0.82230003E+02 -0.30326E-03
 0.82280006E+02 -0.30816E-03
 0.82330002E+02 -0.25937E-03
 0.82380005E+02 -0.19289E-03
 0.82430008E+02 -0.11458E-03
 0.82480003E+02 -0.98537E-05
 0.82530006E+02  0.12565E-03
 0.82580002E+02  0.25709E-03
 0.82630005E+02  0.35347E-03
 0.82680008E+02  0.41035E-03
 0.82730003E+02  0.41103E-03
 0.82780006E+02  0.33085E-03
 0.82830002E+02  0.19459E-03
 0.82880005E+02  0.45558E-04
 0.82930008E+02 -0.10117E-03
 0.82980003E+02 -0.23140E-03
 0.83030006E+02 -0.32761E-03
 0.83080002E+02 -0.37432E-03
 0.83130005E+02 -0.38681E-03
 0.83180008E+02 -0.38486E-03
 0.83230003E+02 -0.35770E-03
 0.83280006E+02 -0.30758E-03
 0.83330002E+02 -0.23243E-03
 0.83380005E+02 -0.15945E-03
 0.83430008E+02 -0.12803E-03
 0.83480003E+02 -0.11666E-03
 0.83530006E+02 -0.72677E-04
 0.83580002E+02  0.48336E-04
 0.83630005E+02  0.21817E-03
 0.83680008E+02  0.36854E-03
 0.83730003E+02  0.46121E-03
 0.83780006E+02  0.51453E-03
 0.83830002E+02  0.56485E-03
 0.83880005E+02  0.57414E-03
 0.83930008E+02  0.49547E-03
 0.83980003E+02  0.33301E-03
 0.84030006E+02  0.11076E-03
 0.84080002E+02 -0.12585E-03
 0.84130005E+02 -0.33104E-03
 0.84180008E+02 -0.48523E-03
 0.84230003E+02 -0.57231E-03
 0.84280006E+02 -0.55491E-03
 0.84330002E+02 -0.42192E-03
 0.84380005E+02 -0.23530E-03
 0.84430008E+02 -0.76559E-04
 0.84480003E+02  0.11767E-04
 0.84530006E+02  0.44210E-04
 0.84580002E+02  0.54041E-04
 0.84630005E+02  0.51547E-04
 0.84680008E+02  0.57692E-04
 0.84730003E+02  0.82738E-04
 0.84780006E+02  0.12226E-03
 0.84830002E+02  0.18152E-03
 0.84880005E+02  0.21671E-03
 0.84930008E+02  0.16109E-03
 0.84980003E+02  0.11573E-04
 0.85030006E+02 -0.16537E-03
 0.85080002E+02 -0.30006E-03
 0.85130005E+02 -0.35421E-03
 0.85180008E+02 -0.31685E-03
 0.85230003E+02 -0.21143E-03
 0.85280006E+02 -0.60728E-04
 0.85330002E+02  0.11220E-03
 0.85380005E+02  0.27761E-03
 0.85430008E+02  0.41105E-03
 0.85480003E+02  0.48595E-03
 0.85530006E+02  0.47903E-03
 0.85580002E+02  0.37195E-03
 0.85630005E+02  0.17588E-03
 0.85680008E+02 -0.61877E-04
 0.85730003E+02 -0.26517E-03
 0.85780006E+02 -0.35966E-03
 0.85830002E+02 -0.33839E-03
 0.85880005E+02 -0.26786E-03
 0.85930008E+02 -0.19514E-03
 0.85980003E+02 -0.93866E-04
 0.86030006E+02  0.39824E-04
 0.86080002E+02  0.14633E-03
 0.86130005E+02  0.18908E-03
 0.86180008E+02  0.18641E-03
 0.86230003E+02  0.15688E-03
 0.86280006E+02  0.10883E-03
 0.86330002E+02  0.60780E-04
 0.86380005E+02  0.18991E-04
 0.86430008E+02 -0.26465E-04
 0.86480003E+02 -0.53361E-04
 0.86530006E+02 -0.25546E-04
 0.86580002E+02  0.21157E-04
 0.86630005E+02  0.15304E-04
 0.86680008E+02 -0.47649E-04
 0.86730003E+02 -0.99427E-04
 0.86780006E+02 -0.90982E-04
 0.86830002E+02 -0.57799E-04
 0.86880005E+02 -0.45269E-04
 0.86930008E+02 -0.33986E-04
 0.86980003E+02 -0.17017E-04
 0.87030006E+02 -0.12635E-04
 0.87080002E+02  0.82183E-05
 0.87130005E+02  0.75193E-04
 0.87180008E+02  0.15884E-03
 0.87230003E+02  0.19744E-03
 0.87280006E+02  0.17492E-03
 0.87330002E+02  0.12635E-03
 0.87380005E+02  0.54037E-04
 0.87430008E+02 -0.65851E-04
 0.87480003E+02 -0.19827E-03
 0.87530006E+02 -0.28767E-03
 0.87580002E+02 -0.33268E-03
 0.87630005E+02 -0.33499E-03
 0.87680008E+02 -0.27675E-03
 0.87730003E+02 -0.16587E-03
 0.87780006E+02 -0.49570E-04
 0.87830002E+02  0.24742E-04
 0.87880005E+02  0.49706E-04
 0.87930008E+02  0.47175E-04
 0.87980003E+02  0.50070E-04
 0.88030006E+02  0.57933E-04
 0.88080002E+02  0.43983E-04
 0.88130005E+02  0.33494E-04
 0.88180008E+02  0.60545E-04
 0.88230003E+02  0.93110E-04
 0.88280006E+02  0.98960E-04
 0.88330002E+02  0.10506E-03
 0.88380005E+02  0.13656E-03
 0.88430008E+02  0.17885E-03
 0.88480003E+02  0.22221E-03
 0.88530006E+02  0.26062E-03
 0.88580002E+02  0.27414E-03
 0.88630005E+02  0.23620E-03
 0.88680008E+02  0.12861E-03
 0.88730003E+02 -0.18820E-04
 0.88780006E+02 -0.16304E-03
 0.88830002E+02 -0.26524E-03
 0.88880005E+02 -0.29556E-03
 0.88930008E+02 -0.29087E-03
 0.88980003E+02 -0.27971E-03
 0.89030006E+02 -0.24043E-03
 0.89080002E+02 -0.17532E-03
 0.89130005E+02 -0.10374E-03
 0.89180008E+02 -0.31611E-04
 0.89230003E+02  0.46418E-04
 0.89280006E+02  0.10457E-03
 0.89330002E+02  0.10275E-03
 0.89380005E+02  0.65843E-04
 0.89430008E+02  0.59403E-04
 0.89480003E+02  0.91313E-04
 0.89530006E+02  0.10485E-03
 0.89580002E+02  0.79133E-04
 0.89630005E+02  0.42016E-04
 0.89680008E+02  0.22557E-04
 0.89730003E+02  0.18725E-04
 0.89780006E+02  0.14735E-04
 0.89830002E+02  0.32047E-04
 0.89880005E+02  0.79492E-04
 0.89930008E+02  0.11567E-03
 0.89980003E+02  0.11604E-03
 0.90030006E+02  0.10398E-03
 0.90080002E+02  0.83444E-04
 0.90130005E+02  0.41293E-04
 0.90180008E+02 -0.12273E-04
 0.90230003E+02 -0.73105E-04
 0.90280006E+02 -0.13067E-03
 0.90330002E+02 -0.16869E-03
 0.90380005E+02 -0.18717E-03
 0.90430008E+02 -0.18834E-03
 0.90480003E+02 -0.16973E-03
 0.90530006E+02 -0.12517E-03
 0.90580002E+02 -0.70967E-04
 0.90630005E+02 -0.26166E-04
 0.90680008E+02  0.20413E-04
 0.90730003E+02  0.70303E-04
 0.90780006E+02  0.10332E-03
 0.90830002E+02  0.98453E-04
 0.90880005E+02  0.65790E-04
 0.90930008E+02  0.53327E-04
 0.90980003E+02  0.58165E-04
 0.91030006E+02  0.26873E-04
 0.91080002E+02 -0.18959E-04
 0.91130005E+02 -0.19448E-04
 0.91180008E+02  0.22640E-04
 0.91230003E+02  0.52740E-04
 0.91280006E+02  0.33591E-04
 0.91330002E+02  0.94204E-05
 0.91380005E+02  0.26936E-04
 0.91430008E+02  0.57680E-04
 0.91480003E+02  0.67866E-04
 0.91530006E+02  0.67492E-04
 0.91580002E+02  0.61298E-04
 0.91630005E+02  0.42419E-04
 0.91680008E+02  0.13093E-05
 0.91730003E+02 -0.74445E-04
 0.91780006E+02 -0.14453E-03
 0.91830002E+02 -0.16533E-03
 0.91880005E+02 -0.13834E-03
 0.91930008E+02 -0.79843E-04
 0.91980003E+02 -0.10282E-04
 0.92030006E+02  0.57666E-04
 0.92080002E+02  0.95733E-04
 0.92130005E+02  0.85353E-04
 0.92180008E+02  0.49672E-04
 0.92230003E+02  0.42239E-05
 0.92280006E+02 -0.47145E-04
 0.92330002E+02 -0.81963E-04
 0.92380005E+02 -0.77727E-04
 0.92430008E+02 -0.33765E-04
 0.92480003E+02  0.16003E-04
 0.92530006E+02  0.37120E-04
 0.92580002E+02  0.47169E-04
 0.92630005E+02  0.62241E-04
 0.92680008E+02  0.70775E-04
 0.92730003E+02  0.85296E-04
 0.92780006E+02  0.11159E-03
 0.92830002E+02  0.11244E-03
 0.92880005E+02  0.75727E-04
 0.92930008E+02  0.33153E-04
 0.92980003E+02 -0.53955E-05
 0.93030006E+02 -0.57638E-04
 0.93080002E+02 -0.11726E-03
 0.93130005E+02 -0.15973E-03
 0.93180008E+02 -0.17270E-03
 0.93230003E+02 -0.15069E-03
 0.93280006E+02 -0.11435E-03
 0.93330002E+02 -0.77636E-04
 0.93380005E+02 -0.24918E-04
 0.93430008E+02  0.32544E-04
 0.93480003E+02  0.62182E-04
 0.93530006E+02  0.71260E-04
 0.93580002E+02  0.87774E-04
 0.93630005E+02  0.95098E-04
 0.93680008E+02  0.77441E-04
 0.93730003E+02  0.47926E-04
 0.93780006E+02  0.28978E-05
 0.93830002E+02 -0.60723E-04
 0.93880005E+02 -0.11013E-03
 0.93930008E+02 -0.11556E-03
 0.93980003E+02 -0.89385E-04
 0.94030006E+02 -0.44763E-04
 0.94080002E+02  0.99298E-05
 0.94130005E+02  0.58114E-04
 0.94180008E+02  0.96726E-04
 0.94230003E+02  0.12098E-03
 0.94280006E+02  0.12376E-03
 0.94330002E+02  0.10900E-03
 0.94380005E+02  0.84219E-04
 0.94430008E+02  0.50066E-04
 0.94480003E+02 -0.90011E-05
 0.94530006E+02 -0.87767E-04
 0.94580002E+02 -0.15068E-03
 0.94630005E+02 -0.18247E-03
 0.94680008E+02 -0.18630E-03
 0.94730003E+02 -0.16675E-03
 0.94780006E+02 -0.13057E-03
 0.94830002E+02 -0.75036E-04
 0.94880005E+02 -0.18307E-05
 0.94930008E+02  0.89232E-04
 0.94980003E+02  0.19586E-03
 0.95030006E+02  0.26794E-03
 0.95080002E+02  0.27718E-03
 0.95130005E+02  0.25776E-03
 0.95180008E+02  0.22723E-03
 0.95230003E+02  0.18097E-03
 0.95280006E+02  0.11782E-03
 0.95330002E+02  0.50568E-04
 0.95380005E+02 -0.95367E-05
 0.95430008E+02 -0.77318E-04
 0.95480003E+02 -0.15787E-03
 0.95530006E+02 -0.22383E-03
 0.95580002E+02 -0.24868E-03
 0.95630005E+02 -0.22797E-03
 0.95680008E+02 -0.16842E-03
 0.95730003E+02 -0.93964E-04
 0.95780006E+02 -0.40747E-04
 0.95830002E+02 -0.21219E-04
 0.95880005E+02 -0.16234E-04
 0.95930008E+02 -0.28211E-05
 0.95980003E+02  0.18988E-04
 0.96030006E+02  0.30555E-04
 0.96080002E+02  0.26277E-04
 0.96130005E+02  0.14425E-04
 0.96180008E+02 -0.26982E-05
 0.96230003E+02 -0.40268E-05
 0.96280006E+02  0.29909E-04
 0.96330002E+02  0.64285E-04
 0.96380005E+02  0.72805E-04
 0.96430008E+02  0.67347E-04
 0.96480003E+02  0.52032E-04
 0.96530006E+02  0.30324E-04
 0.96580002E+02 -0.36677E-05
 0.96630005E+02 -0.50537E-04
 0.96680008E+02 -0.81428E-04
 0.96730003E+02 -0.83667E-04
 0.96780006E+02 -0.74938E-04
 0.96830002E+02 -0.59425E-04
 0.96880005E+02 -0.20320E-04
 0.96930008E+02  0.49290E-04
 0.96980003E+02  0.13268E-03
 0.97030006E+02  0.18877E-03
 0.97080002E+02  0.19687E-03
 0.97130005E+02  0.16951E-03
 0.97180008E+02  0.12081E-03
 0.97230003E+02  0.75563E-04
 0.97280006E+02  0.36958E-04
 0.97330002E+02 -0.11313E-04
 0.97380005E+02 -0.69726E-04
 0.97430008E+02 -0.13878E-03
 0.97480003E+02 -0.19275E-03
 0.97530006E+02 -0.20650E-03
 0.97580002E+02 -0.19698E-03
 0.97630005E+02 -0.16810E-03
 0.97680008E+02 -0.11277E-03
 0.97730003E+02 -0.53797E-04
 0.97780006E+02 -0.14294E-04
 0.97830002E+02  0.10394E-04
 0.97880005E+02  0.33797E-04
 0.97930008E+02  0.70300E-04
 0.97980003E+02  0.11445E-03
 0.98030006E+02  0.13892E-03
 0.98080002E+02  0.13583E-03
 0.98130005E+02  0.11177E-03
 0.98180008E+02  0.72818E-04
 0.98230003E+02  0.28174E-04
 0.98280006E+02 -0.26353E-04
 0.98330002E+02 -0.99085E-04
 0.98380005E+02 -0.15719E-03
 0.98430008E+02 -0.16487E-03
 0.98480003E+02 -0.14007E-03
 0.98530006E+02 -0.11257E-03
 0.98580002E+02 -0.74719E-04
 0.98630005E+02 -0.13954E-04
 0.98680008E+02  0.47525E-04
 0.98730003E+02  0.92816E-04
 0.98780006E+02  0.12090E-03
 0.98830002E+02  0.12710E-03
 0.98880005E+02  0.11383E-03
 0.98930008E+02  0.93863E-04
 0.98980003E+02  0.67339E-04
 0.99030006E+02  0.29625E-04
 0.99080002E+02 -0.25899E-06
 0.99130005E+02 -0.21452E-04
 0.99180008E+02 -0.49343E-04
 0.99230003E+02 -0.64094E-04
 0.99280006E+02 -0.40580E-04
 0.99330002E+02  0.63939E-05
 0.99380005E+02  0.49547E-04
 0.99430008E+02  0.95125E-04
 0.99480003E+02  0.15725E-03
 0.99530006E+02  0.20155E-03
 0.99580002E+02  0.19169E-03
 0.99630005E+02  0.14368E-03
 0.99680008E+02  0.85969E-04
 0.99730003E+02  0.24915E-04
 0.99780006E+02 -0.33628E-04
 0.99830002E+02 -0.70348E-04
 0.99880005E+02 -0.88915E-04
 0.99930008E+02 -0.85705E-04
 0.99980003E+02 -0.49359E-04
