-0.19996643E-01 -0.89534E-06
 0.30003358E-01 -0.46715E-06
 0.80003358E-01 -0.21230E-06
 0.13000336E+00 -0.36970E-07
 0.18000336E+00  0.16718E-06
 0.23000336E+00  0.24887E-06
 0.28000337E+00  0.27729E-06
 0.33000335E+00  0.21396E-06
 0.38000336E+00  0.17883E-06
 0.43000337E+00  0.94982E-07
 0.48000336E+00  0.57451E-07
 0.53000337E+00  0.47863E-07
 0.58000338E+00  0.20760E-07
 0.63000339E+00  0.39112E-07
 0.68000335E+00  0.79173E-07
 0.73000336E+00  0.12835E-06
 0.78000337E+00  0.95463E-07
 0.83000338E+00  0.12201E-06
 0.88000339E+00  0.79896E-07
 0.93000335E+00  0.19032E-08
 0.98000336E+00 -0.61401E-07
 0.10300034E+01 -0.22662E-07
 0.10800034E+01 -0.21462E-07
 0.11300033E+01 -0.96159E-07
 0.11800034E+01  0.72553E-07
 0.12300034E+01  0.70163E-08
 0.12800034E+01  0.43204E-07
 0.13300034E+01  0.15207E-06
 0.13800033E+01  0.43754E-07
 0.14300034E+01  0.10406E-06
 0.14800034E+01  0.25760E-07
 0.15300034E+01 -0.36477E-07
 0.15800034E+01 -0.43621E-07
 0.16300033E+01 -0.73745E-07
 0.16800034E+01 -0.58492E-07
 0.17300034E+01 -0.33666E-07
 0.17800034E+01  0.17191E-07
 0.18300034E+01 -0.70146E-07
 0.18800033E+01 -0.30202E-07
 0.19300034E+01  0.34846E-07
 0.19800034E+01 -0.38839E-07
 0.20300033E+01 -0.45574E-07
 0.20800035E+01 -0.28328E-07
 0.21300035E+01 -0.66717E-07
 0.21800034E+01 -0.55739E-07
 0.22300034E+01 -0.53806E-10
 0.22800033E+01 -0.29988E-07
 0.23300035E+01  0.24445E-07
 0.23800035E+01  0.26357E-07
 0.24300034E+01  0.54512E-07
 0.24800034E+01  0.19249E-07
 0.25300033E+01 -0.47090E-07
 0.25800035E+01  0.53409E-07
 0.26300035E+01 -0.56725E-07
 0.26800034E+01 -0.33674E-07
 0.27300034E+01 -0.46465E-08
 0.27800033E+01 -0.26242E-07
 0.28300035E+01  0.61232E-09
 0.28800035E+01 -0.64180E-07
 0.29300034E+01  0.40668E-08
 0.29800034E+01 -0.19734E-07
 0.30300033E+01  0.19998E-08
 0.30800035E+01  0.14537E-08
 0.31300035E+01 -0.24876E-07
 0.31800034E+01  0.27081E-07
 0.32300034E+01 -0.48804E-07
 0.32800033E+01 -0.41827E-07
 0.33300035E+01 -0.33196E-07
 0.33800035E+01  0.64395E-08
 0.34300034E+01  0.33730E-07
 0.34800034E+01 -0.79777E-08
 0.35300033E+01  0.55838E-07
 0.35800035E+01 -0.40099E-08
 0.36300035E+01 -0.39684E-07
 0.36800034E+01  0.19001E-08
 0.37300034E+01 -0.45193E-07
 0.37800033E+01 -0.57839E-07
 0.38300035E+01 -0.37430E-07
 0.38800035E+01 -0.13774E-07
 0.39300034E+01  0.17091E-08
 0.39800034E+01  0.26622E-07
 0.40300035E+01  0.79852E-07
 0.40800033E+01  0.13065E-06
 0.41300035E+01  0.90272E-07
 0.41800036E+01  0.51550E-07
 0.42300034E+01  0.61170E-07
 0.42800035E+01  0.15479E-08
 0.43300033E+01 -0.14135E-07
 0.43800035E+01  0.11559E-07
 0.44300036E+01  0.31088E-07
 0.44800034E+01  0.88864E-08
 0.45300035E+01 -0.52708E-08
 0.45800033E+01  0.43370E-07
 0.46300035E+01 -0.43512E-07
 0.46800036E+01 -0.34065E-07
 0.47300034E+01  0.30834E-07
 0.47800035E+01  0.25813E-07
 0.48300033E+01  0.81795E-07
 0.48800035E+01  0.18419E-07
 0.49300036E+01 -0.89845E-08
 0.49800034E+01 -0.73586E-07
 0.50300035E+01 -0.10553E-06
 0.50800033E+01  0.22337E-08
 0.51300035E+01 -0.80153E-08
 0.51800036E+01  0.77740E-09
 0.52300034E+01  0.24259E-07
 0.52800035E+01 -0.56018E-08
 0.53300033E+01  0.35779E-07
 0.53800035E+01  0.99631E-07
 0.54300036E+01  0.96302E-08
 0.54800034E+01 -0.27777E-07
 0.55300035E+01 -0.12135E-07
 0.55800033E+01 -0.41316E-07
 0.56300035E+01  0.24459E-07
 0.56800036E+01 -0.22062E-07
 0.57300034E+01 -0.30232E-07
 0.57800035E+01 -0.75772E-08
 0.58300033E+01 -0.41778E-07
 0.58800035E+01  0.25108E-08
 0.59300036E+01  0.12411E-07
 0.59800034E+01  0.74177E-08
 0.60300035E+01  0.44153E-08
 0.60800033E+01  0.39537E-07
 0.61300035E+01  0.29044E-07
 0.61800036E+01  0.20379E-07
 0.62300034E+01  0.54524E-10
 0.62800035E+01 -0.44021E-07
 0.63300033E+01 -0.32942E-07
 0.63800035E+01 -0.11244E-09
 0.64300036E+01  0.44428E-07
 0.64800034E+01  0.22075E-07
 0.65300035E+01  0.15515E-07
 0.65800033E+01 -0.22565E-07
 0.66300035E+01  0.45146E-07
 0.66800036E+01  0.25660E-07
 0.67300034E+01 -0.20292E-08
 0.67800035E+01  0.77064E-07
 0.68300033E+01 -0.62228E-07
 0.68800035E+01 -0.34358E-07
 0.69300036E+01 -0.43167E-07
 0.69800034E+01 -0.63653E-07
 0.70300035E+01  0.39224E-08
 0.70800033E+01 -0.40590E-07
 0.71300035E+01 -0.28078E-07
 0.71800036E+01 -0.92999E-07
 0.72300034E+01 -0.11125E-06
 0.72800035E+01 -0.52344E-07
 0.73300033E+01  0.25848E-07
 0.73800035E+01 -0.24359E-07
 0.74300036E+01 -0.12981E-06
 0.74800034E+01 -0.10738E-07
 0.75300035E+01  0.27097E-07
 0.75800033E+01  0.21731E-07
 0.76300035E+01  0.36041E-07
 0.76800036E+01  0.14595E-09
 0.77300034E+01  0.17827E-08
 0.77800035E+01 -0.11237E-07
 0.78300033E+01  0.87700E-08
 0.78800035E+01 -0.48337E-07
 0.79300036E+01 -0.21395E-07
 0.79800034E+01  0.40974E-07
 0.80300035E+01 -0.45665E-07
 0.80800037E+01  0.10267E-07
 0.81300039E+01  0.32979E-07
 0.81800032E+01  0.24604E-07
 0.82300034E+01  0.68585E-07
 0.82800035E+01  0.78549E-07
 0.83300037E+01  0.10370E-06
 0.83800039E+01  0.46241E-07
 0.84300032E+01 -0.29189E-09
 0.84800034E+01  0.28378E-07
 0.85300035E+01  0.41701E-07
 0.85800037E+01  0.17451E-07
 0.86300039E+01  0.15617E-07
 0.86800032E+01  0.84108E-08
 0.87300034E+01  0.33751E-07
 0.87800035E+01  0.30581E-07
 0.88300037E+01  0.14154E-07
 0.88800039E+01  0.85641E-07
 0.89300032E+01 -0.23183E-08
 0.89800034E+01 -0.28703E-07
 0.90300035E+01  0.39045E-07
 0.90800037E+01 -0.29664E-07
 0.91300039E+01  0.34890E-07
 0.91800032E+01  0.58369E-07
 0.92300034E+01  0.27755E-07
 0.92800035E+01  0.48068E-07
 0.93300037E+01  0.19832E-07
 0.93800039E+01 -0.90217E-08
 0.94300032E+01 -0.33169E-07
 0.94800034E+01  0.13693E-07
 0.95300035E+01 -0.66773E-07
 0.95800037E+01 -0.12814E-06
 0.96300039E+01 -0.91147E-07
 0.96800032E+01 -0.78007E-07
 0.97300034E+01  0.28203E-07
 0.97800035E+01  0.31983E-07
 0.98300037E+01 -0.32621E-07
 0.98800039E+01 -0.38011E-07
 0.99300032E+01 -0.79397E-07
 0.99800034E+01 -0.23564E-07
 0.10030004E+02 -0.10134E-07
 0.10080004E+02 -0.60789E-07
 0.10130004E+02  0.94890E-08
 0.10180003E+02 -0.50888E-08
 0.10230003E+02  0.11834E-07
 0.10280004E+02  0.41233E-07
 0.10330004E+02  0.18180E-07
 0.10380004E+02  0.13872E-07
 0.10430003E+02 -0.48496E-07
 0.10480003E+02 -0.73459E-07
 0.10530004E+02 -0.78396E-07
 0.10580004E+02 -0.66510E-07
 0.10630004E+02  0.93233E-08
 0.10680003E+02  0.50446E-07
 0.10730003E+02  0.47302E-07
 0.10780004E+02  0.36711E-07
 0.10830004E+02 -0.27940E-07
 0.10880004E+02 -0.45673E-07
 0.10930003E+02 -0.50592E-07
 0.10980003E+02 -0.45704E-07
 0.11030004E+02 -0.42800E-08
 0.11080004E+02 -0.29095E-07
 0.11130004E+02 -0.72608E-08
 0.11180003E+02  0.46320E-07
 0.11230003E+02  0.28022E-07
 0.11280004E+02 -0.16603E-07
 0.11330004E+02 -0.12455E-07
 0.11380004E+02  0.15477E-07
 0.11430003E+02  0.19415E-07
 0.11480003E+02  0.13219E-07
 0.11530004E+02  0.34445E-07
 0.11580004E+02  0.44893E-07
 0.11630004E+02  0.59924E-07
 0.11680003E+02  0.15905E-06
 0.11730003E+02  0.89288E-07
 0.11780004E+02  0.32199E-07
 0.11830004E+02  0.41144E-07
 0.11880004E+02 -0.70222E-07
 0.11930003E+02 -0.54968E-08
 0.11980003E+02  0.38844E-07
 0.12030004E+02  0.62172E-07
 0.12080004E+02  0.60202E-07
 0.12130004E+02  0.12722E-07
 0.12180003E+02  0.13875E-07
 0.12230003E+02  0.95216E-08
 0.12280004E+02  0.96684E-07
 0.12330004E+02  0.40571E-07
 0.12380004E+02  0.45888E-07
 0.12430003E+02  0.20146E-07
 0.12480003E+02 -0.88304E-07
 0.12530004E+02 -0.83187E-08
 0.12580004E+02 -0.12455E-07
 0.12630004E+02 -0.53532E-08
 0.12680003E+02 -0.15091E-07
 0.12730003E+02 -0.81399E-07
 0.12780004E+02 -0.47756E-07
 0.12830004E+02 -0.12793E-07
 0.12880004E+02 -0.33110E-07
 0.12930003E+02  0.25356E-07
 0.12980003E+02  0.44104E-07
 0.13030004E+02 -0.21423E-07
 0.13080004E+02 -0.46608E-07
 0.13130004E+02 -0.88063E-07
 0.13180003E+02 -0.41525E-07
 0.13230003E+02 -0.29430E-07
 0.13280004E+02 -0.28063E-07
 0.13330004E+02 -0.38062E-07
 0.13380004E+02 -0.39428E-07
 0.13430003E+02  0.58363E-08
 0.13480003E+02 -0.26066E-08
 0.13530004E+02  0.65003E-07
 0.13580004E+02  0.60965E-07
 0.13630004E+02 -0.31273E-07
 0.13680003E+02 -0.52108E-07
 0.13730003E+02  0.43686E-08
 0.13780004E+02 -0.77538E-07
 0.13830004E+02 -0.78082E-07
 0.13880004E+02 -0.93534E-09
 0.13930003E+02 -0.93828E-07
 0.13980003E+02 -0.97325E-07
 0.14030004E+02 -0.78220E-07
 0.14080004E+02 -0.19891E-08
 0.14130004E+02 -0.13816E-07
 0.14180003E+02 -0.27056E-07
 0.14230003E+02  0.18353E-07
 0.14280004E+02 -0.19254E-07
 0.14330004E+02  0.45711E-07
 0.14380004E+02  0.55454E-07
 0.14430003E+02  0.10420E-06
 0.14480003E+02  0.41146E-07
 0.14530004E+02 -0.69756E-08
 0.14580004E+02  0.94027E-07
 0.14630004E+02  0.27905E-07
 0.14680003E+02  0.17076E-07
 0.14730003E+02  0.62077E-07
 0.14780004E+02  0.70434E-07
 0.14830004E+02  0.69340E-07
 0.14880004E+02  0.10763E-06
 0.14930003E+02  0.71420E-07
 0.14980003E+02  0.94326E-08
 0.15030004E+02  0.37357E-07
 0.15080004E+02  0.18047E-07
 0.15130004E+02 -0.38363E-07
 0.15180003E+02 -0.67480E-07
 0.15230003E+02 -0.19507E-08
 0.15280004E+02  0.35459E-07
 0.15330004E+02  0.25567E-07
 0.15380004E+02  0.21944E-07
 0.15430003E+02  0.11889E-07
 0.15480003E+02 -0.37294E-07
 0.15530004E+02 -0.39182E-07
 0.15580004E+02  0.15601E-09
 0.15630004E+02 -0.18793E-07
 0.15680003E+02 -0.11858E-08
 0.15730003E+02 -0.39933E-07
 0.15780004E+02 -0.59586E-07
 0.15830004E+02 -0.80136E-07
 0.15880004E+02 -0.72952E-07
 0.15930003E+02  0.23859E-07
 0.15980003E+02  0.27133E-07
 0.16030005E+02  0.87503E-08
 0.16080004E+02  0.54091E-08
 0.16130003E+02  0.17952E-07
 0.16180004E+02 -0.50250E-07
 0.16230003E+02 -0.52951E-07
 0.16280005E+02 -0.29739E-07
 0.16330004E+02 -0.12785E-06
 0.16380003E+02 -0.10849E-06
 0.16430004E+02 -0.58306E-07
 0.16480003E+02  0.28298E-07
 0.16530005E+02  0.19497E-07
 0.16580004E+02 -0.37848E-07
 0.16630003E+02  0.71967E-08
 0.16680004E+02 -0.58728E-08
 0.16730003E+02  0.27996E-07
 0.16780005E+02  0.81289E-07
 0.16830004E+02  0.73129E-07
 0.16880003E+02  0.45308E-07
 0.16930004E+02  0.75125E-08
 0.16980003E+02 -0.19719E-07
 0.17030005E+02  0.25982E-08
 0.17080004E+02 -0.43859E-08
 0.17130003E+02 -0.18062E-07
 0.17180004E+02 -0.50450E-07
 0.17230003E+02 -0.44489E-07
 0.17280005E+02 -0.16401E-07
 0.17330004E+02 -0.38451E-07
 0.17380003E+02  0.48378E-07
 0.17430004E+02  0.76307E-07
 0.17480003E+02  0.70979E-07
 0.17530005E+02  0.54300E-07
 0.17580004E+02  0.22927E-07
 0.17630003E+02  0.37571E-07
 0.17680004E+02 -0.29269E-07
 0.17730003E+02  0.10192E-07
 0.17780005E+02  0.62932E-07
 0.17830004E+02  0.12918E-07
 0.17880003E+02  0.37499E-07
 0.17930004E+02  0.35927E-07
 0.17980003E+02  0.46755E-07
 0.18030005E+02  0.67053E-07
 0.18080004E+02  0.35293E-07
 0.18130003E+02  0.41532E-07
 0.18180004E+02 -0.57674E-07
 0.18230003E+02 -0.34303E-07
 0.18280005E+02  0.69181E-08
 0.18330004E+02 -0.20121E-07
 0.18380003E+02  0.19064E-07
 0.18430004E+02  0.92401E-08
 0.18480003E+02  0.63871E-07
 0.18530005E+02 -0.80102E-07
 0.18580004E+02  0.93025E-07
 0.18630003E+02 -0.11496E-06
 0.18680004E+02  0.62481E-07
 0.18730003E+02  0.90494E-07
 0.18780005E+02 -0.14550E-06
 0.18830004E+02  0.25184E-07
 0.18880003E+02 -0.14080E-05
 0.18930004E+02 -0.17669E-05
 0.18980003E+02 -0.44123E-05
 0.19030005E+02 -0.50017E-05
 0.19080004E+02 -0.60101E-05
 0.19130003E+02 -0.60626E-05
 0.19180004E+02 -0.44651E-06
 0.19230003E+02  0.58491E-05
 0.19280005E+02  0.19690E-04
 0.19330004E+02  0.18043E-04
 0.19380003E+02  0.19212E-04
 0.19430004E+02  0.15762E-04
 0.19480003E+02 -0.36551E-06
 0.19530005E+02 -0.13834E-05
 0.19580004E+02 -0.30433E-04
 0.19630003E+02 -0.41033E-04
 0.19680004E+02 -0.30402E-04
 0.19730003E+02 -0.21707E-04
 0.19780005E+02  0.14208E-04
 0.19830004E+02  0.14829E-04
 0.19880003E+02  0.12064E-04
 0.19930004E+02  0.29873E-04
 0.19980003E+02  0.24603E-04
 0.20030005E+02  0.26559E-04
 0.20080004E+02  0.85895E-05
 0.20130003E+02 -0.23488E-04
 0.20180004E+02 -0.24516E-04
 0.20230003E+02 -0.23915E-04
 0.20280005E+02 -0.10230E-04
 0.20330004E+02  0.35717E-05
 0.20380003E+02 -0.46555E-05
 0.20430004E+02 -0.89268E-06
 0.20480003E+02  0.95390E-05
 0.20530005E+02  0.12070E-04
 0.20580004E+02  0.20802E-04
 0.20630003E+02  0.30933E-04
 0.20680004E+02  0.36091E-05
 0.20730003E+02 -0.63581E-05
 0.20780005E+02 -0.20578E-04
 0.20830004E+02 -0.61182E-04
 0.20880003E+02 -0.24804E-04
 0.20930004E+02 -0.92537E-05
 0.20980003E+02  0.13916E-05
 0.21030005E+02  0.32185E-04
 0.21080004E+02  0.98683E-05
 0.21130003E+02  0.42973E-04
 0.21180004E+02  0.63935E-04
 0.21230003E+02  0.11709E-04
 0.21280005E+02  0.24656E-04
 0.21330004E+02 -0.15456E-04
 0.21380003E+02 -0.85584E-04
 0.21430004E+02 -0.51185E-05
 0.21480003E+02 -0.58437E-04
 0.21530005E+02 -0.86476E-04
 0.21580004E+02 -0.12829E-04
 0.21630003E+02  0.11401E-04
 0.21680004E+02  0.19893E-03
 0.21730003E+02  0.30153E-04
 0.21780005E+02 -0.13363E-03
 0.21830004E+02  0.10352E-03
 0.21880003E+02 -0.89376E-05
 0.21930004E+02 -0.10859E-03
 0.21980003E+02  0.11986E-03
 0.22030005E+02  0.57804E-04
 0.22080004E+02 -0.20554E-03
 0.22130003E+02 -0.21240E-04
 0.22180004E+02  0.14110E-03
 0.22230003E+02  0.64846E-04
 0.22280005E+02 -0.73855E-04
 0.22330004E+02 -0.19709E-03
 0.22380003E+02  0.70793E-04
 0.22430004E+02  0.13959E-03
 0.22480003E+02  0.10222E-03
 0.22530005E+02  0.49158E-04
 0.22580004E+02 -0.99810E-04
 0.22630003E+02 -0.10321E-03
 0.22680004E+02 -0.10391E-03
 0.22730003E+02  0.47739E-04
 0.22780005E+02 -0.64336E-04
 0.22830004E+02 -0.77715E-04
 0.22880003E+02  0.47687E-04
 0.22930004E+02  0.37172E-04
 0.22980003E+02  0.16476E-03
 0.23030005E+02  0.59088E-04
 0.23080004E+02  0.16090E-07
 0.23130003E+02  0.64148E-04
 0.23180004E+02  0.50204E-04
 0.23230003E+02 -0.91844E-04
 0.23280005E+02 -0.13837E-03
 0.23330004E+02 -0.20596E-04
 0.23380003E+02  0.89888E-05
 0.23430004E+02  0.21144E-04
 0.23480003E+02 -0.33621E-04
 0.23530005E+02  0.20200E-04
 0.23580004E+02  0.30092E-04
 0.23630003E+02  0.10588E-03
 0.23680004E+02  0.15446E-03
 0.23730003E+02 -0.13179E-03
 0.23780005E+02 -0.16643E-03
 0.23830004E+02 -0.15455E-03
 0.23880003E+02 -0.11371E-03
 0.23930004E+02  0.88358E-04
 0.23980003E+02  0.83293E-04
 0.24030005E+02  0.36308E-05
 0.24080004E+02 -0.13350E-04
 0.24130003E+02  0.40927E-04
 0.24180004E+02  0.61336E-04
 0.24230003E+02  0.16506E-03
 0.24280005E+02  0.78891E-04
 0.24330004E+02 -0.46151E-04
 0.24380003E+02 -0.20679E-05
 0.24430004E+02 -0.42217E-04
 0.24480003E+02 -0.91476E-05
 0.24530005E+02 -0.10887E-03
 0.24580004E+02 -0.71227E-04
 0.24630003E+02 -0.96786E-05
 0.24680004E+02 -0.53612E-04
 0.24730003E+02 -0.97631E-05
 0.24780005E+02  0.44346E-05
 0.24830004E+02  0.12527E-03
 0.24880003E+02  0.53118E-04
 0.24930004E+02  0.93722E-04
 0.24980003E+02  0.11938E-03
 0.25030005E+02 -0.89207E-04
 0.25080004E+02 -0.62737E-04
 0.25130003E+02 -0.12706E-03
 0.25180004E+02 -0.91575E-04
 0.25230003E+02 -0.31984E-04
 0.25280005E+02 -0.91411E-04
 0.25330004E+02  0.78669E-04
 0.25380003E+02  0.13046E-03
 0.25430004E+02  0.58438E-04
 0.25480003E+02  0.75294E-06
 0.25530005E+02 -0.39765E-05
 0.25580004E+02  0.11165E-03
 0.25630003E+02  0.14981E-04
 0.25680004E+02 -0.11848E-03
 0.25730003E+02  0.36915E-04
 0.25780005E+02  0.15934E-04
 0.25830004E+02 -0.39930E-04
 0.25880003E+02 -0.60211E-04
 0.25930004E+02 -0.11298E-03
 0.25980003E+02 -0.30543E-04
 0.26030005E+02 -0.75719E-04
 0.26080004E+02  0.66670E-04
 0.26130003E+02  0.14436E-03
 0.26180004E+02  0.53004E-04
 0.26230003E+02 -0.20293E-04
 0.26280005E+02 -0.32897E-04
 0.26330004E+02  0.15088E-03
 0.26380003E+02  0.10946E-03
 0.26430004E+02 -0.82330E-04
 0.26480003E+02 -0.81935E-04
 0.26530005E+02 -0.47867E-04
 0.26580004E+02 -0.12577E-03
 0.26630003E+02 -0.18685E-04
 0.26680004E+02  0.39375E-04
 0.26730003E+02 -0.68231E-05
 0.26780005E+02  0.64615E-04
 0.26830004E+02  0.48035E-04
 0.26880003E+02  0.41508E-05
 0.26930004E+02  0.22975E-04
 0.26980003E+02 -0.17883E-04
 0.27030005E+02 -0.10753E-03
 0.27080004E+02 -0.32228E-04
 0.27130003E+02  0.38326E-04
 0.27180004E+02  0.73892E-05
 0.27230003E+02  0.15090E-03
 0.27280005E+02  0.28375E-03
 0.27330004E+02  0.61416E-04
 0.27380003E+02 -0.11182E-03
 0.27430004E+02 -0.21693E-03
 0.27480003E+02 -0.29111E-03
 0.27530005E+02 -0.14441E-03
 0.27580004E+02 -0.17911E-03
 0.27630003E+02 -0.89817E-04
 0.27680004E+02  0.69709E-04
 0.27730003E+02  0.22045E-03
 0.27780005E+02  0.39704E-03
 0.27830004E+02  0.16695E-03
 0.27880003E+02  0.27470E-04
 0.27930004E+02 -0.40970E-04
 0.27980003E+02  0.30116E-04
 0.28030005E+02  0.22747E-03
 0.28080004E+02 -0.47180E-04
 0.28130003E+02 -0.25554E-03
 0.28180004E+02 -0.14859E-03
 0.28230003E+02 -0.15503E-03
 0.28280005E+02 -0.17414E-03
 0.28330004E+02 -0.16030E-03
 0.28380003E+02 -0.17810E-03
 0.28430004E+02  0.97170E-04
 0.28480003E+02  0.34162E-03
 0.28530005E+02  0.33628E-03
 0.28580004E+02  0.54837E-04
 0.28630003E+02 -0.16799E-03
 0.28680004E+02 -0.43469E-04
 0.28730003E+02  0.64672E-04
 0.28780005E+02  0.23904E-03
 0.28830004E+02  0.82140E-04
 0.28880003E+02 -0.76804E-04
 0.28930004E+02  0.26815E-04
 0.28980003E+02 -0.44519E-04
 0.29030005E+02 -0.23004E-03
 0.29080004E+02 -0.28993E-03
 0.29130003E+02 -0.27671E-03
 0.29180004E+02 -0.17699E-03
 0.29230003E+02  0.22385E-03
 0.29280005E+02  0.46674E-03
 0.29330004E+02  0.33187E-03
 0.29380003E+02  0.23002E-04
 0.29430004E+02 -0.55176E-04
 0.29480003E+02 -0.92551E-04
 0.29530005E+02 -0.28000E-03
 0.29580004E+02 -0.27678E-03
 0.29630003E+02 -0.16776E-03
 0.29680004E+02 -0.63868E-04
 0.29730003E+02  0.13356E-03
 0.29780005E+02  0.32231E-03
 0.29830004E+02  0.32470E-03
 0.29880003E+02  0.16345E-03
 0.29930004E+02 -0.56406E-04
 0.29980003E+02 -0.45358E-05
 0.30030005E+02 -0.15018E-04
 0.30080004E+02 -0.56885E-04
 0.30130003E+02  0.13641E-03
 0.30180004E+02  0.48817E-04
 0.30230003E+02 -0.21255E-03
 0.30280005E+02 -0.25767E-03
 0.30330004E+02 -0.13710E-03
 0.30380003E+02 -0.10643E-03
 0.30430004E+02  0.35837E-04
 0.30480003E+02  0.61165E-04
 0.30530005E+02 -0.49311E-04
 0.30580004E+02 -0.37180E-04
 0.30630003E+02 -0.14381E-03
 0.30680004E+02  0.47497E-04
 0.30730003E+02  0.15039E-03
 0.30780005E+02  0.47385E-04
 0.30830004E+02  0.27405E-03
 0.30880003E+02  0.39323E-03
 0.30930004E+02  0.23013E-03
 0.30980003E+02 -0.31376E-04
 0.31030005E+02 -0.31440E-03
 0.31080004E+02 -0.47541E-03
 0.31130003E+02 -0.23940E-03
 0.31180004E+02 -0.89285E-05
 0.31230003E+02 -0.72286E-04
 0.31280005E+02  0.11094E-03
 0.31330004E+02  0.31986E-03
 0.31380003E+02  0.19655E-03
 0.31430004E+02  0.30941E-04
 0.31480003E+02 -0.19946E-03
 0.31530005E+02 -0.25366E-03
 0.31580004E+02 -0.19967E-04
 0.31630003E+02  0.29191E-04
 0.31680004E+02  0.19663E-03
 0.31730003E+02  0.22078E-03
 0.31780005E+02 -0.32698E-04
 0.31830004E+02  0.29701E-04
 0.31880003E+02  0.25242E-04
 0.31930004E+02 -0.18176E-03
 0.31980003E+02 -0.14179E-03
 0.32030003E+02  0.21105E-04
 0.32080006E+02 -0.11766E-03
 0.32130005E+02 -0.84449E-04
 0.32180004E+02  0.15125E-03
 0.32230003E+02  0.16176E-03
 0.32280003E+02  0.22079E-03
 0.32330006E+02  0.49279E-04
 0.32380005E+02 -0.34487E-03
 0.32430004E+02 -0.30424E-03
 0.32480003E+02 -0.56957E-04
 0.32530003E+02  0.16338E-03
 0.32580006E+02  0.52212E-03
 0.32630005E+02  0.40646E-03
 0.32680004E+02  0.82127E-04
 0.32730003E+02  0.11821E-04
 0.32780003E+02 -0.28253E-03
 0.32830006E+02 -0.56965E-03
 0.32880005E+02 -0.50773E-03
 0.32930004E+02 -0.11825E-03
 0.32980003E+02  0.15209E-03
 0.33030003E+02  0.19798E-03
 0.33080006E+02  0.19199E-03
 0.33130005E+02  0.10902E-03
 0.33180004E+02  0.30781E-04
 0.33230003E+02 -0.23733E-04
 0.33280003E+02 -0.71797E-04
 0.33330006E+02 -0.14711E-03
 0.33380005E+02 -0.15614E-03
 0.33430004E+02 -0.14547E-03
 0.33480003E+02  0.12691E-03
 0.33530003E+02  0.45981E-03
 0.33580006E+02  0.45752E-03
 0.33630005E+02  0.32284E-03
 0.33680004E+02  0.16143E-03
 0.33730003E+02 -0.12937E-03
 0.33780003E+02 -0.61041E-03
 0.33830006E+02 -0.91551E-03
 0.33880005E+02 -0.59799E-03
 0.33930004E+02  0.37570E-03
 0.33980003E+02  0.10883E-02
 0.34030003E+02  0.11456E-02
 0.34080006E+02  0.55199E-03
 0.34130005E+02 -0.40320E-03
 0.34180004E+02 -0.89511E-03
 0.34230003E+02 -0.16615E-02
 0.34280003E+02 -0.19784E-02
 0.34330006E+02 -0.10283E-02
 0.34380005E+02  0.56935E-03
 0.34430004E+02  0.26997E-02
 0.34480003E+02  0.31894E-02
 0.34530003E+02  0.16802E-02
 0.34580006E+02 -0.19029E-03
 0.34630005E+02 -0.18033E-02
 0.34680004E+02 -0.20085E-02
 0.34730003E+02 -0.13706E-02
 0.34780003E+02 -0.75505E-03
 0.34830006E+02 -0.93807E-04
 0.34880005E+02  0.75210E-03
 0.34930004E+02  0.17063E-02
 0.34980003E+02  0.14828E-02
 0.35030003E+02  0.28957E-03
 0.35080006E+02 -0.12209E-02
 0.35130005E+02 -0.18508E-02
 0.35180004E+02 -0.68726E-03
 0.35230003E+02  0.64973E-03
 0.35280003E+02  0.83835E-03
 0.35330006E+02  0.30673E-04
 0.35380005E+02 -0.82780E-04
 0.35430004E+02  0.77642E-04
 0.35480003E+02  0.12531E-03
 0.35530003E+02  0.28645E-03
 0.35580006E+02  0.18038E-03
 0.35630005E+02  0.27885E-03
 0.35680004E+02  0.12079E-03
 0.35730003E+02  0.11519E-03
 0.35780003E+02 -0.34837E-03
 0.35830006E+02 -0.43208E-03
 0.35880005E+02 -0.23662E-03
 0.35930004E+02 -0.49192E-03
 0.35980003E+02  0.35441E-03
 0.36030003E+02  0.62222E-03
 0.36080006E+02  0.42360E-03
 0.36130005E+02  0.10074E-03
 0.36180004E+02 -0.71603E-03
 0.36230003E+02 -0.10522E-02
 0.36280003E+02 -0.19237E-03
 0.36330006E+02  0.84015E-03
 0.36380005E+02  0.30725E-03
 0.36430004E+02 -0.19728E-03
 0.36480003E+02 -0.48593E-03
 0.36530003E+02 -0.44202E-03
 0.36580006E+02  0.20660E-03
 0.36630005E+02  0.19721E-03
 0.36680004E+02 -0.88114E-04
 0.36730003E+02  0.35047E-03
 0.36780003E+02  0.15781E-02
 0.36830006E+02  0.20944E-02
 0.36880005E+02  0.44283E-03
 0.36930004E+02 -0.18965E-02
 0.36980003E+02 -0.30436E-02
 0.37030003E+02 -0.28272E-02
 0.37080006E+02 -0.98602E-03
 0.37130005E+02  0.82271E-03
 0.37180004E+02  0.22037E-02
 0.37230003E+02  0.28945E-02
 0.37280003E+02  0.25708E-02
 0.37330006E+02  0.21405E-02
 0.37380005E+02 -0.32333E-03
 0.37430004E+02 -0.31843E-02
 0.37480003E+02 -0.37049E-02
 0.37530003E+02 -0.26152E-02
 0.37580006E+02  0.74801E-04
 0.37630005E+02  0.21829E-02
 0.37680004E+02  0.28615E-02
 0.37730003E+02  0.23141E-02
 0.37780003E+02 -0.14090E-04
 0.37830006E+02 -0.17679E-02
 0.37880005E+02 -0.34722E-02
 0.37930004E+02 -0.31797E-02
 0.37980003E+02 -0.96194E-03
 0.38030003E+02  0.11493E-02
 0.38080006E+02  0.36517E-02
 0.38130005E+02  0.36271E-02
 0.38180004E+02  0.32234E-02
 0.38230003E+02  0.15326E-02
 0.38280003E+02 -0.17510E-02
 0.38330006E+02 -0.29150E-02
 0.38380005E+02 -0.24861E-02
 0.38430004E+02 -0.11016E-02
 0.38480003E+02 -0.67591E-03
 0.38530003E+02 -0.33530E-03
 0.38580006E+02 -0.13852E-03
 0.38630005E+02  0.20068E-03
 0.38680004E+02  0.14409E-02
 0.38730003E+02  0.13753E-02
 0.38780003E+02  0.57372E-03
 0.38830006E+02 -0.10767E-02
 0.38880005E+02 -0.11177E-02
 0.38930004E+02  0.50206E-03
 0.38980003E+02  0.37357E-03
 0.39030003E+02 -0.98211E-04
 0.39080006E+02  0.15049E-03
 0.39130005E+02  0.12560E-02
 0.39180004E+02  0.10234E-02
 0.39230003E+02  0.58728E-04
 0.39280003E+02 -0.19805E-03
 0.39330006E+02 -0.96007E-03
 0.39380005E+02 -0.81001E-03
 0.39430004E+02 -0.10831E-02
 0.39480003E+02 -0.15737E-02
 0.39530003E+02 -0.14812E-02
 0.39580006E+02 -0.84385E-03
 0.39630005E+02  0.12224E-02
 0.39680004E+02  0.24417E-02
 0.39730003E+02  0.27046E-02
 0.39780003E+02  0.27487E-02
 0.39830006E+02  0.13151E-02
 0.39880005E+02 -0.19178E-02
 0.39930004E+02 -0.39873E-02
 0.39980003E+02 -0.34906E-02
 0.40030003E+02 -0.14212E-02
 0.40080006E+02  0.16220E-02
 0.40130005E+02  0.25072E-02
 0.40180004E+02  0.22565E-02
 0.40230003E+02  0.16912E-02
 0.40280003E+02  0.15574E-03
 0.40330006E+02 -0.41970E-03
 0.40380005E+02 -0.13160E-02
 0.40430004E+02 -0.15500E-02
 0.40480003E+02 -0.11583E-02
 0.40530003E+02 -0.77006E-03
 0.40580006E+02  0.29607E-03
 0.40630005E+02  0.60762E-03
 0.40680004E+02  0.90952E-03
 0.40730003E+02  0.96403E-03
 0.40780003E+02  0.11801E-02
 0.40830006E+02  0.94663E-03
 0.40880005E+02 -0.41425E-03
 0.40930004E+02 -0.12860E-02
 0.40980003E+02 -0.15497E-02
 0.41030003E+02 -0.11656E-02
 0.41080006E+02 -0.13235E-02
 0.41130005E+02 -0.11436E-02
 0.41180004E+02 -0.23567E-03
 0.41230003E+02  0.11008E-03
 0.41280003E+02  0.83836E-03
 0.41330006E+02  0.13555E-02
 0.41380005E+02  0.14741E-02
 0.41430004E+02  0.20875E-02
 0.41480003E+02  0.23583E-02
 0.41530003E+02  0.15137E-02
 0.41580006E+02 -0.10721E-03
 0.41630005E+02 -0.17314E-02
 0.41680004E+02 -0.25215E-02
 0.41730003E+02 -0.20554E-02
 0.41780003E+02 -0.15107E-02
 0.41830006E+02 -0.12629E-02
 0.41880005E+02 -0.63173E-03
 0.41930004E+02  0.28674E-03
 0.41980003E+02  0.22319E-02
 0.42030003E+02  0.35583E-02
 0.42080006E+02  0.25309E-02
 0.42130005E+02  0.10165E-02
 0.42180004E+02 -0.53339E-03
 0.42230003E+02 -0.19372E-02
 0.42280003E+02 -0.27540E-02
 0.42330006E+02 -0.33388E-02
 0.42380005E+02 -0.22718E-02
 0.42430004E+02  0.36025E-03
 0.42480003E+02  0.26124E-02
 0.42530003E+02  0.31541E-02
 0.42580006E+02  0.22520E-02
 0.42630005E+02  0.77947E-03
 0.42680004E+02 -0.73112E-03
 0.42730003E+02 -0.11536E-02
 0.42780003E+02 -0.12739E-02
 0.42830006E+02 -0.13635E-02
 0.42880005E+02 -0.94945E-03
 0.42930004E+02  0.89843E-04
 0.42980003E+02  0.99870E-03
 0.43030003E+02  0.67468E-03
 0.43080006E+02 -0.95961E-04
 0.43130005E+02 -0.10681E-02
 0.43180004E+02 -0.12477E-02
 0.43230003E+02 -0.13318E-03
 0.43280003E+02  0.14841E-02
 0.43330006E+02  0.20052E-02
 0.43380005E+02  0.13208E-02
 0.43430004E+02  0.74310E-03
 0.43480003E+02  0.13303E-03
 0.43530003E+02  0.14991E-03
 0.43580006E+02 -0.20743E-03
 0.43630005E+02 -0.12427E-02
 0.43680004E+02 -0.13698E-02
 0.43730003E+02 -0.54379E-03
 0.43780003E+02  0.36832E-03
 0.43830006E+02  0.34230E-03
 0.43880005E+02 -0.44509E-03
 0.43930004E+02 -0.12009E-02
 0.43980003E+02 -0.14695E-02
 0.44030003E+02 -0.13686E-02
 0.44080006E+02 -0.96770E-03
 0.44130005E+02 -0.41102E-04
 0.44180004E+02  0.12582E-02
 0.44230003E+02  0.16839E-02
 0.44280003E+02  0.63842E-03
 0.44330006E+02 -0.32918E-03
 0.44380005E+02 -0.31716E-03
 0.44430004E+02  0.88208E-03
 0.44480003E+02  0.26370E-02
 0.44530003E+02  0.33272E-02
 0.44580006E+02  0.29385E-02
 0.44630005E+02  0.17259E-02
 0.44680004E+02 -0.37204E-03
 0.44730003E+02 -0.25869E-02
 0.44780003E+02 -0.41406E-02
 0.44830006E+02 -0.43566E-02
 0.44880005E+02 -0.32713E-02
 0.44930004E+02 -0.16749E-02
 0.44980003E+02 -0.99342E-04
 0.45030003E+02  0.11702E-02
 0.45080006E+02  0.20020E-02
 0.45130005E+02  0.21776E-02
 0.45180004E+02  0.20021E-02
 0.45230003E+02  0.12896E-02
 0.45280003E+02 -0.19379E-03
 0.45330006E+02 -0.82611E-03
 0.45380005E+02 -0.50343E-03
 0.45430004E+02  0.41811E-05
 0.45480003E+02  0.68845E-03
 0.45530003E+02  0.10243E-02
 0.45580006E+02  0.97358E-03
 0.45630005E+02  0.51404E-03
 0.45680004E+02  0.59447E-04
 0.45730003E+02 -0.23360E-03
 0.45780003E+02 -0.89725E-03
 0.45830006E+02 -0.14073E-02
 0.45880005E+02 -0.96576E-03
 0.45930004E+02 -0.19704E-03
 0.45980003E+02 -0.46178E-03
 0.46030003E+02 -0.11223E-02
 0.46080006E+02 -0.11949E-02
 0.46130005E+02 -0.91537E-03
 0.46180004E+02 -0.18873E-03
 0.46230003E+02  0.50004E-03
 0.46280003E+02  0.68631E-03
 0.46330006E+02  0.77152E-03
 0.46380005E+02  0.11355E-02
 0.46430004E+02  0.16209E-02
 0.46480003E+02  0.13355E-02
 0.46530003E+02  0.44982E-03
 0.46580006E+02 -0.16131E-03
 0.46630005E+02 -0.46652E-03
 0.46680004E+02 -0.80530E-03
 0.46730003E+02 -0.92271E-03
 0.46780003E+02 -0.94920E-04
 0.46830006E+02  0.59460E-03
 0.46880005E+02  0.44159E-03
 0.46930004E+02  0.77813E-04
 0.46980003E+02 -0.47789E-03
 0.47030003E+02 -0.67447E-03
 0.47080006E+02 -0.34794E-03
 0.47130005E+02  0.10719E-04
 0.47180004E+02  0.33740E-03
 0.47230003E+02  0.50807E-03
 0.47280003E+02  0.34037E-03
 0.47330006E+02 -0.37782E-04
 0.47380005E+02 -0.53255E-03
 0.47430004E+02 -0.72173E-03
 0.47480003E+02 -0.26834E-03
 0.47530003E+02  0.47848E-03
 0.47580006E+02  0.11318E-02
 0.47630005E+02  0.10202E-02
 0.47680004E+02  0.35665E-04
 0.47730003E+02 -0.10615E-02
 0.47780003E+02 -0.15394E-02
 0.47830006E+02 -0.12802E-02
 0.47880005E+02 -0.86649E-03
 0.47930004E+02 -0.41426E-03
 0.47980003E+02  0.57865E-03
 0.48030003E+02  0.18364E-02
 0.48080006E+02  0.23900E-02
 0.48130005E+02  0.19769E-02
 0.48180004E+02  0.76848E-03
 0.48230003E+02 -0.47731E-03
 0.48280003E+02 -0.99349E-03
 0.48330006E+02 -0.13016E-02
 0.48380005E+02 -0.16532E-02
 0.48430004E+02 -0.14385E-02
 0.48480003E+02 -0.49110E-03
 0.48530003E+02  0.67208E-03
 0.48580006E+02  0.12153E-02
 0.48630005E+02  0.72003E-03
 0.48680004E+02 -0.10282E-03
 0.48730003E+02 -0.47664E-03
 0.48780003E+02 -0.25012E-03
 0.48830006E+02  0.19742E-03
 0.48880005E+02  0.22280E-03
 0.48930004E+02 -0.10446E-03
 0.48980003E+02 -0.48101E-03
 0.49030003E+02 -0.83863E-03
 0.49080006E+02 -0.10297E-02
 0.49130005E+02 -0.64273E-03
 0.49180004E+02  0.43566E-03
 0.49230003E+02  0.17839E-02
 0.49280003E+02  0.26794E-02
 0.49330006E+02  0.23920E-02
 0.49380005E+02  0.12063E-02
 0.49430004E+02 -0.37647E-03
 0.49480003E+02 -0.19136E-02
 0.49530003E+02 -0.26707E-02
 0.49580006E+02 -0.26925E-02
 0.49630005E+02 -0.22114E-02
 0.49680004E+02 -0.10837E-02
 0.49730003E+02  0.25182E-03
 0.49780003E+02  0.13069E-02
 0.49830006E+02  0.19583E-02
 0.49880005E+02  0.23087E-02
 0.49930004E+02  0.23932E-02
 0.49980003E+02  0.17895E-02
 0.50030003E+02  0.58306E-03
 0.50080006E+02 -0.81585E-03
 0.50130005E+02 -0.19485E-02
 0.50180004E+02 -0.23930E-02
 0.50230003E+02 -0.22329E-02
 0.50280003E+02 -0.15554E-02
 0.50330006E+02 -0.39008E-03
 0.50380005E+02  0.97350E-03
 0.50430004E+02  0.20287E-02
 0.50480003E+02  0.23485E-02
 0.50530003E+02  0.19123E-02
 0.50580006E+02  0.10531E-02
 0.50630005E+02  0.14808E-03
 0.50680004E+02 -0.61179E-03
 0.50730003E+02 -0.12917E-02
 0.50780003E+02 -0.17984E-02
 0.50830006E+02 -0.18028E-02
 0.50880005E+02 -0.14497E-02
 0.50930004E+02 -0.10809E-02
 0.50980003E+02 -0.58994E-03
 0.51030003E+02  0.12848E-03
 0.51080006E+02  0.91486E-03
 0.51130005E+02  0.16344E-02
 0.51180004E+02  0.19818E-02
 0.51230003E+02  0.16771E-02
 0.51280003E+02  0.11609E-02
 0.51330006E+02  0.80357E-03
 0.51380005E+02  0.41725E-03
 0.51430004E+02 -0.96676E-04
 0.51480003E+02 -0.65587E-03
 0.51530003E+02 -0.11038E-02
 0.51580006E+02 -0.12943E-02
 0.51630005E+02 -0.11375E-02
 0.51680004E+02 -0.79245E-03
 0.51730003E+02 -0.54642E-03
 0.51780003E+02 -0.40582E-03
 0.51830006E+02 -0.15218E-03
 0.51880005E+02  0.11173E-03
 0.51930004E+02  0.88246E-04
 0.51980003E+02 -0.13165E-03
 0.52030003E+02 -0.17977E-03
 0.52080006E+02  0.50965E-04
 0.52130005E+02  0.29665E-03
 0.52180004E+02  0.46315E-03
 0.52230003E+02  0.53148E-03
 0.52280003E+02  0.70224E-03
 0.52330006E+02  0.88414E-03
 0.52380005E+02  0.69877E-03
 0.52430004E+02  0.28650E-03
 0.52480003E+02 -0.16720E-03
 0.52530003E+02 -0.20572E-03
 0.52580006E+02  0.42066E-04
 0.52630005E+02 -0.48550E-04
 0.52680004E+02 -0.43114E-03
 0.52730003E+02 -0.91877E-03
 0.52780003E+02 -0.11977E-02
 0.52830006E+02 -0.99086E-03
 0.52880005E+02 -0.45288E-03
 0.52930004E+02  0.12836E-03
 0.52980003E+02  0.49612E-03
 0.53030003E+02  0.54390E-03
 0.53080006E+02  0.54452E-03
 0.53130005E+02  0.55048E-03
 0.53180004E+02  0.53512E-03
 0.53230003E+02  0.49144E-03
 0.53280003E+02  0.28204E-03
 0.53330006E+02  0.99373E-04
 0.53380005E+02 -0.37095E-04
 0.53430004E+02 -0.11714E-03
 0.53480003E+02 -0.12932E-03
 0.53530003E+02 -0.19430E-03
 0.53580006E+02 -0.32160E-03
 0.53630005E+02 -0.42089E-03
 0.53680004E+02 -0.36318E-03
 0.53730003E+02 -0.21526E-03
 0.53780003E+02  0.77248E-04
 0.53830006E+02  0.33640E-03
 0.53880005E+02  0.31199E-03
 0.53930004E+02  0.24615E-03
 0.53980003E+02  0.32339E-03
 0.54030003E+02  0.29053E-03
 0.54080006E+02 -0.32994E-04
 0.54130005E+02 -0.38798E-03
 0.54180004E+02 -0.58114E-03
 0.54230003E+02 -0.51823E-03
 0.54280003E+02 -0.26076E-03
 0.54330006E+02 -0.56095E-04
 0.54380005E+02  0.12292E-03
 0.54430004E+02  0.38271E-03
 0.54480003E+02  0.53935E-03
 0.54530003E+02  0.57978E-03
 0.54580006E+02  0.47895E-03
 0.54630005E+02  0.14859E-04
 0.54680004E+02 -0.53732E-03
 0.54730003E+02 -0.85662E-03
 0.54780003E+02 -0.85005E-03
 0.54830006E+02 -0.56482E-03
 0.54880005E+02 -0.26944E-03
 0.54930004E+02 -0.35172E-04
 0.54980003E+02  0.36188E-03
 0.55030003E+02  0.81059E-03
 0.55080006E+02  0.97216E-03
 0.55130005E+02  0.99272E-03
 0.55180004E+02  0.89811E-03
 0.55230003E+02  0.65518E-03
 0.55280003E+02  0.30069E-03
 0.55330006E+02 -0.22111E-03
 0.55380005E+02 -0.67345E-03
 0.55430004E+02 -0.11385E-02
 0.55480003E+02 -0.17096E-02
 0.55530003E+02 -0.20143E-02
 0.55580006E+02 -0.17476E-02
 0.55630005E+02 -0.75418E-03
 0.55680004E+02  0.60886E-03
 0.55730003E+02  0.16239E-02
 0.55780003E+02  0.19905E-02
 0.55830006E+02  0.17024E-02
 0.55880005E+02  0.10298E-02
 0.55930004E+02  0.30141E-03
 0.55980003E+02 -0.32433E-03
 0.56030003E+02 -0.62392E-03
 0.56080006E+02 -0.54357E-03
 0.56130005E+02 -0.73225E-04
 0.56180004E+02  0.46261E-03
 0.56230003E+02  0.39743E-03
 0.56280003E+02 -0.27631E-03
 0.56330006E+02 -0.10016E-02
 0.56380005E+02 -0.12554E-02
 0.56430004E+02 -0.93637E-03
 0.56480003E+02 -0.39350E-03
 0.56530003E+02  0.13305E-03
 0.56580006E+02  0.53311E-03
 0.56630005E+02  0.72473E-03
 0.56680004E+02  0.79623E-03
 0.56730003E+02  0.84688E-03
 0.56780003E+02  0.85598E-03
 0.56830006E+02  0.76354E-03
 0.56880005E+02  0.45122E-03
 0.56930004E+02 -0.86263E-04
 0.56980003E+02 -0.56901E-03
 0.57030003E+02 -0.85814E-03
 0.57080006E+02 -0.88542E-03
 0.57130005E+02 -0.61068E-03
 0.57180004E+02 -0.21082E-03
 0.57230003E+02  0.13298E-03
 0.57280003E+02  0.28825E-03
 0.57330006E+02  0.22141E-03
 0.57380005E+02  0.92665E-05
 0.57430004E+02 -0.17263E-03
 0.57480003E+02 -0.23575E-03
 0.57530003E+02 -0.20416E-03
 0.57580006E+02 -0.17832E-03
 0.57630005E+02 -0.19363E-03
 0.57680004E+02 -0.15262E-03
 0.57730003E+02 -0.12837E-03
 0.57780003E+02 -0.39402E-04
 0.57830006E+02  0.25038E-03
 0.57880005E+02  0.59552E-03
 0.57930004E+02  0.74787E-03
 0.57980003E+02  0.57232E-03
 0.58030003E+02  0.21647E-03
 0.58080006E+02 -0.20305E-03
 0.58130005E+02 -0.49114E-03
 0.58180004E+02 -0.52764E-03
 0.58230003E+02 -0.43937E-03
 0.58280003E+02 -0.19746E-03
 0.58330006E+02  0.12972E-03
 0.58380005E+02  0.31367E-03
 0.58430004E+02  0.20603E-03
 0.58480003E+02 -0.12556E-03
 0.58530003E+02 -0.45372E-03
 0.58580006E+02 -0.47212E-03
 0.58630005E+02 -0.10183E-03
 0.58680004E+02  0.39554E-03
 0.58730003E+02  0.73800E-03
 0.58780003E+02  0.74724E-03
 0.58830006E+02  0.50313E-03
 0.58880005E+02  0.20843E-03
 0.58930004E+02  0.48079E-04
 0.58980003E+02 -0.30315E-04
 0.59030003E+02 -0.21988E-03
 0.59080006E+02 -0.42959E-03
 0.59130005E+02 -0.48772E-03
 0.59180004E+02 -0.33149E-03
 0.59230003E+02 -0.51192E-04
 0.59280003E+02  0.13416E-03
 0.59330006E+02  0.17441E-03
 0.59380005E+02  0.23053E-04
 0.59430004E+02 -0.25488E-03
 0.59480003E+02 -0.39739E-03
 0.59530003E+02 -0.39718E-03
 0.59580006E+02 -0.25417E-03
 0.59630005E+02  0.58030E-04
 0.59680004E+02  0.45575E-03
 0.59730003E+02  0.74626E-03
 0.59780003E+02  0.67302E-03
 0.59830006E+02  0.27289E-03
 0.59880005E+02 -0.20894E-03
 0.59930004E+02 -0.47774E-03
 0.59980003E+02 -0.51834E-03
 0.60030003E+02 -0.52165E-03
 0.60080006E+02 -0.44603E-03
 0.60130005E+02 -0.36890E-03
 0.60180004E+02 -0.21029E-03
 0.60230003E+02  0.14533E-03
 0.60280003E+02  0.35264E-03
 0.60330006E+02  0.31616E-03
 0.60380005E+02  0.13423E-03
 0.60430004E+02 -0.60378E-04
 0.60480003E+02  0.42284E-04
 0.60530003E+02  0.38963E-03
 0.60580006E+02  0.72885E-03
 0.60630005E+02  0.91311E-03
 0.60680004E+02  0.87640E-03
 0.60730003E+02  0.67312E-03
 0.60780003E+02  0.26521E-03
 0.60830006E+02 -0.24499E-03
 0.60880005E+02 -0.74780E-03
 0.60930004E+02 -0.11742E-02
 0.60980003E+02 -0.12741E-02
 0.61030003E+02 -0.10743E-02
 0.61080006E+02 -0.65960E-03
 0.61130005E+02 -0.27247E-03
 0.61180004E+02 -0.11131E-03
 0.61230003E+02  0.12002E-03
 0.61280003E+02  0.45623E-03
 0.61330006E+02  0.72979E-03
 0.61380005E+02  0.84508E-03
 0.61430004E+02  0.76900E-03
 0.61480003E+02  0.50682E-03
 0.61530003E+02  0.19227E-03
 0.61580006E+02  0.33238E-04
 0.61630005E+02 -0.13177E-03
 0.61680004E+02 -0.33624E-03
 0.61730003E+02 -0.45685E-03
 0.61780003E+02 -0.48013E-03
 0.61830006E+02 -0.34417E-03
 0.61880005E+02 -0.15120E-03
 0.61930004E+02 -0.61284E-04
 0.61980003E+02 -0.63354E-04
 0.62030003E+02 -0.51753E-04
 0.62080006E+02  0.65633E-04
 0.62130005E+02  0.27409E-03
 0.62180004E+02  0.36933E-03
 0.62230003E+02  0.29058E-03
 0.62280003E+02  0.17005E-03
 0.62330006E+02  0.75957E-04
 0.62380005E+02  0.75835E-04
 0.62430004E+02  0.13940E-03
 0.62480003E+02  0.15349E-03
 0.62530003E+02  0.84333E-04
 0.62580006E+02  0.86509E-05
 0.62630005E+02 -0.28777E-04
 0.62680004E+02 -0.71835E-04
 0.62730003E+02 -0.13408E-03
 0.62780003E+02 -0.28102E-03
 0.62830006E+02 -0.46232E-03
 0.62880005E+02 -0.46096E-03
 0.62930004E+02 -0.30011E-03
 0.62980003E+02 -0.67274E-04
 0.63030003E+02  0.17194E-03
 0.63080006E+02  0.32111E-03
 0.63130005E+02  0.38252E-03
 0.63180004E+02  0.30823E-03
 0.63230003E+02  0.16640E-03
 0.63280003E+02  0.29728E-04
 0.63330006E+02 -0.13834E-03
 0.63380005E+02 -0.29328E-03
 0.63430004E+02 -0.38411E-03
 0.63480003E+02 -0.34061E-03
 0.63530003E+02 -0.13000E-03
 0.63580006E+02  0.13750E-03
 0.63630005E+02  0.35605E-03
 0.63680004E+02  0.46266E-03
 0.63730003E+02  0.40384E-03
 0.63780003E+02  0.20609E-03
 0.63830006E+02 -0.98343E-04
 0.63880005E+02 -0.41550E-03
 0.63930004E+02 -0.62543E-03
 0.63980003E+02 -0.61842E-03
 0.64030006E+02 -0.38549E-03
 0.64080002E+02 -0.12039E-03
 0.64130005E+02  0.96390E-04
 0.64180008E+02  0.30546E-03
 0.64230003E+02  0.49465E-03
 0.64280006E+02  0.63519E-03
 0.64330002E+02  0.69197E-03
 0.64380005E+02  0.59834E-03
 0.64430008E+02  0.38756E-03
 0.64480003E+02  0.14653E-03
 0.64530006E+02 -0.11794E-03
 0.64580002E+02 -0.39993E-03
 0.64630005E+02 -0.62225E-03
 0.64680008E+02 -0.71690E-03
 0.64730003E+02 -0.67232E-03
 0.64780006E+02 -0.46437E-03
 0.64830002E+02 -0.19495E-03
 0.64880005E+02  0.98416E-04
 0.64930008E+02  0.41086E-03
 0.64980003E+02  0.58501E-03
 0.65030006E+02  0.57563E-03
 0.65080002E+02  0.40671E-03
 0.65130005E+02  0.11711E-03
 0.65180008E+02 -0.12565E-03
 0.65230003E+02 -0.22848E-03
 0.65280006E+02 -0.27815E-03
 0.65330002E+02 -0.28285E-03
 0.65380005E+02 -0.21416E-03
 0.65430008E+02 -0.12152E-03
 0.65480003E+02 -0.14938E-04
 0.65530006E+02  0.14490E-03
 0.65580002E+02  0.29278E-03
 0.65630005E+02  0.33391E-03
 0.65680008E+02  0.21803E-03
 0.65730003E+02 -0.49304E-04
 0.65780006E+02 -0.31641E-03
 0.65830002E+02 -0.49769E-03
 0.65880005E+02 -0.53109E-03
 0.65930008E+02 -0.35630E-03
 0.65980003E+02 -0.25562E-04
 0.66030006E+02  0.34117E-03
 0.66080002E+02  0.52333E-03
 0.66130005E+02  0.48334E-03
 0.66180008E+02  0.35432E-03
 0.66230003E+02  0.19719E-03
 0.66280006E+02  0.66487E-04
 0.66330002E+02 -0.29816E-04
 0.66380005E+02 -0.79669E-04
 0.66430008E+02 -0.12092E-03
 0.66480003E+02 -0.19653E-03
 0.66530006E+02 -0.24446E-03
 0.66580002E+02 -0.25682E-03
 0.66630005E+02 -0.21339E-03
 0.66680008E+02 -0.81988E-04
 0.66730003E+02  0.12326E-03
 0.66780006E+02  0.33641E-03
 0.66830002E+02  0.44178E-03
 0.66880005E+02  0.36581E-03
 0.66930008E+02  0.75553E-04
 0.66980003E+02 -0.30298E-03
 0.67030006E+02 -0.55997E-03
 0.67080002E+02 -0.62131E-03
 0.67130005E+02 -0.43515E-03
 0.67180008E+02 -0.82982E-04
 0.67230003E+02  0.27149E-03
 0.67280006E+02  0.57408E-03
 0.67330002E+02  0.71301E-03
 0.67380005E+02  0.66055E-03
 0.67430008E+02  0.44626E-03
 0.67480003E+02  0.13542E-03
 0.67530006E+02 -0.13297E-03
 0.67580002E+02 -0.34174E-03
 0.67630005E+02 -0.49028E-03
 0.67680008E+02 -0.57141E-03
 0.67730003E+02 -0.54665E-03
 0.67780006E+02 -0.40604E-03
 0.67830002E+02 -0.23491E-03
 0.67880005E+02 -0.93083E-04
 0.67930008E+02  0.15481E-05
 0.67980003E+02  0.59626E-04
 0.68030006E+02  0.11208E-03
 0.68080002E+02  0.20385E-03
 0.68130005E+02  0.28767E-03
 0.68180008E+02  0.27761E-03
 0.68230003E+02  0.16762E-03
 0.68280006E+02  0.26860E-04
 0.68330002E+02 -0.10840E-03
 0.68380005E+02 -0.19357E-03
 0.68430008E+02 -0.10860E-03
 0.68480003E+02  0.95065E-04
 0.68530006E+02  0.29159E-03
 0.68580002E+02  0.41104E-03
 0.68630005E+02  0.36422E-03
 0.68680008E+02  0.14616E-03
 0.68730003E+02 -0.12994E-03
 0.68780006E+02 -0.32309E-03
 0.68830002E+02 -0.34822E-03
 0.68880005E+02 -0.23882E-03
 0.68930008E+02 -0.10670E-03
 0.68980003E+02  0.50206E-05
 0.69030006E+02  0.85644E-04
 0.69080002E+02  0.77700E-04
 0.69130005E+02 -0.41025E-04
 0.69180008E+02 -0.19560E-03
 0.69230003E+02 -0.24737E-03
 0.69280006E+02 -0.13917E-03
 0.69330002E+02  0.69899E-04
 0.69380005E+02  0.28946E-03
 0.69430008E+02  0.40274E-03
 0.69480003E+02  0.38914E-03
 0.69530006E+02  0.30604E-03
 0.69580002E+02  0.17744E-03
 0.69630005E+02  0.14923E-04
 0.69680008E+02 -0.13984E-03
 0.69730003E+02 -0.18729E-03
 0.69780006E+02 -0.13249E-03
 0.69830002E+02 -0.45540E-04
 0.69880005E+02 -0.10016E-04
 0.69930008E+02 -0.48019E-04
 0.69980003E+02 -0.10282E-03
 0.70030006E+02 -0.19968E-03
 0.70080002E+02 -0.27352E-03
 0.70130005E+02 -0.29409E-03
 0.70180008E+02 -0.29352E-03
 0.70230003E+02 -0.24973E-03
 0.70280006E+02 -0.19311E-03
 0.70330002E+02 -0.87011E-04
 0.70380005E+02  0.80285E-04
 0.70430008E+02  0.25295E-03
 0.70480003E+02  0.37833E-03
 0.70530006E+02  0.41315E-03
 0.70580002E+02  0.37838E-03
 0.70630005E+02  0.30325E-03
 0.70680008E+02  0.19281E-03
 0.70730003E+02  0.19710E-04
 0.70780006E+02 -0.16398E-03
 0.70830002E+02 -0.24972E-03
 0.70880005E+02 -0.24332E-03
 0.70930008E+02 -0.19351E-03
 0.70980003E+02 -0.12487E-03
 0.71030006E+02 -0.71590E-04
 0.71080002E+02 -0.27756E-04
 0.71130005E+02  0.44041E-04
 0.71180008E+02  0.11732E-03
 0.71230003E+02  0.21476E-03
 0.71280006E+02  0.34603E-03
 0.71330002E+02  0.44622E-03
 0.71380005E+02  0.50754E-03
 0.71430008E+02  0.43881E-03
 0.71480003E+02  0.20077E-03
 0.71530006E+02 -0.11860E-03
 0.71580002E+02 -0.42741E-03
 0.71630005E+02 -0.64195E-03
 0.71680008E+02 -0.70250E-03
 0.71730003E+02 -0.56361E-03
 0.71780006E+02 -0.33225E-03
 0.71830002E+02 -0.11392E-03
 0.71880005E+02  0.22688E-04
 0.71930008E+02  0.41399E-04
 0.71980003E+02  0.20580E-04
 0.72030006E+02  0.54398E-05
 0.72080002E+02  0.23561E-04
 0.72130005E+02  0.57285E-04
 0.72180008E+02  0.11727E-03
 0.72230003E+02  0.18501E-03
 0.72280006E+02  0.23240E-03
 0.72330002E+02  0.29195E-03
 0.72380005E+02  0.27780E-03
 0.72430008E+02  0.20930E-03
 0.72480003E+02  0.14327E-03
 0.72530006E+02  0.35420E-04
 0.72580002E+02 -0.68328E-04
 0.72630005E+02 -0.13685E-03
 0.72680008E+02 -0.19693E-03
 0.72730003E+02 -0.26812E-03
 0.72780006E+02 -0.30850E-03
 0.72830002E+02 -0.27732E-03
 0.72880005E+02 -0.19456E-03
 0.72930008E+02 -0.72971E-04
 0.72980003E+02  0.82556E-04
 0.73030006E+02  0.25650E-03
 0.73080002E+02  0.36952E-03
 0.73130005E+02  0.39201E-03
 0.73180008E+02  0.33384E-03
 0.73230003E+02  0.18243E-03
 0.73280006E+02 -0.23326E-04
 0.73330002E+02 -0.23130E-03
 0.73380005E+02 -0.34468E-03
 0.73430008E+02 -0.32519E-03
 0.73480003E+02 -0.19732E-03
 0.73530006E+02 -0.62233E-05
 0.73580002E+02  0.13938E-03
 0.73630005E+02  0.19672E-03
 0.73680008E+02  0.14726E-03
 0.73730003E+02  0.19398E-04
 0.73780006E+02 -0.11655E-03
 0.73830002E+02 -0.23327E-03
 0.73880005E+02 -0.24530E-03
 0.73930008E+02 -0.14672E-03
 0.73980003E+02  0.93062E-05
 0.74030006E+02  0.19141E-03
 0.74080002E+02  0.30035E-03
 0.74130005E+02  0.31393E-03
 0.74180008E+02  0.23403E-03
 0.74230003E+02  0.71509E-04
 0.74280006E+02 -0.71894E-04
 0.74330002E+02 -0.14260E-03
 0.74380005E+02 -0.13866E-03
 0.74430008E+02 -0.93015E-04
 0.74480003E+02 -0.75736E-04
 0.74530006E+02 -0.55108E-04
 0.74580002E+02  0.19996E-04
 0.74630005E+02  0.90544E-04
 0.74680008E+02  0.88209E-04
 0.74730003E+02  0.69367E-05
 0.74780006E+02 -0.10166E-03
 0.74830002E+02 -0.19219E-03
 0.74880005E+02 -0.21794E-03
 0.74930008E+02 -0.17997E-03
 0.74980003E+02 -0.97202E-04
 0.75030006E+02  0.37882E-04
 0.75080002E+02  0.15065E-03
 0.75130005E+02  0.19863E-03
 0.75180008E+02  0.17370E-03
 0.75230003E+02  0.77173E-04
 0.75280006E+02 -0.17594E-04
 0.75330002E+02 -0.75426E-04
 0.75380005E+02 -0.92295E-04
 0.75430008E+02 -0.47525E-04
 0.75480003E+02  0.61469E-04
 0.75530006E+02  0.18253E-03
 0.75580002E+02  0.25692E-03
 0.75630005E+02  0.27768E-03
 0.75680008E+02  0.23831E-03
 0.75730003E+02  0.16524E-03
 0.75780006E+02  0.74717E-04
 0.75830002E+02 -0.48006E-04
 0.75880005E+02 -0.16944E-03
 0.75930008E+02 -0.25784E-03
 0.75980003E+02 -0.28026E-03
 0.76030006E+02 -0.24098E-03
 0.76080002E+02 -0.18864E-03
 0.76130005E+02 -0.15869E-03
 0.76180008E+02 -0.16181E-03
 0.76230003E+02 -0.15781E-03
 0.76280006E+02 -0.13368E-03
 0.76330002E+02 -0.82062E-04
 0.76380005E+02  0.21793E-04
 0.76430008E+02  0.13376E-03
 0.76480003E+02  0.19519E-03
 0.76530006E+02  0.18462E-03
 0.76580002E+02  0.12228E-03
 0.76630005E+02  0.59022E-04
 0.76680008E+02  0.33223E-04
 0.76730003E+02  0.35294E-04
 0.76780006E+02  0.41881E-04
 0.76830002E+02  0.51837E-04
 0.76880005E+02  0.61459E-04
 0.76930008E+02  0.85128E-04
 0.76980003E+02  0.10532E-03
 0.77030006E+02  0.69620E-04
 0.77080002E+02 -0.25786E-04
 0.77130005E+02 -0.12490E-03
 0.77180008E+02 -0.18201E-03
 0.77230003E+02 -0.20328E-03
 0.77280006E+02 -0.18059E-03
 0.77330002E+02 -0.12720E-03
 0.77380005E+02 -0.82469E-04
 0.77430008E+02 -0.39397E-04
 0.77480003E+02  0.14763E-04
 0.77530006E+02  0.89047E-04
 0.77580002E+02  0.18682E-03
 0.77630005E+02  0.25692E-03
 0.77680008E+02  0.26175E-03
 0.77730003E+02  0.23850E-03
 0.77780006E+02  0.20484E-03
 0.77830002E+02  0.14835E-03
 0.77880005E+02  0.82941E-04
 0.77930008E+02  0.39117E-05
 0.77980003E+02 -0.77711E-04
 0.78030006E+02 -0.13191E-03
 0.78080002E+02 -0.18879E-03
 0.78130005E+02 -0.26138E-03
 0.78180008E+02 -0.31960E-03
 0.78230003E+02 -0.33125E-03
 0.78280006E+02 -0.26688E-03
 0.78330002E+02 -0.13650E-03
 0.78380005E+02  0.18708E-04
 0.78430008E+02  0.14937E-03
 0.78480003E+02  0.20898E-03
 0.78530006E+02  0.17231E-03
 0.78580002E+02  0.93779E-04
 0.78630005E+02  0.44435E-04
 0.78680008E+02  0.19590E-04
 0.78730003E+02  0.47167E-05
 0.78780006E+02 -0.29483E-05
 0.78830002E+02  0.19382E-04
 0.78880005E+02  0.58234E-04
 0.78930008E+02  0.62899E-04
 0.78980003E+02  0.37712E-04
 0.79030006E+02 -0.43601E-05
 0.79080002E+02 -0.28036E-04
 0.79130005E+02 -0.70401E-05
 0.79180008E+02  0.60364E-04
 0.79230003E+02  0.13283E-03
 0.79280006E+02  0.13674E-03
 0.79330002E+02  0.10162E-03
 0.79380005E+02  0.66251E-04
 0.79430008E+02  0.40630E-04
 0.79480003E+02  0.34640E-04
 0.79530006E+02  0.40485E-04
 0.79580002E+02  0.51264E-04
 0.79630005E+02  0.43897E-04
 0.79680008E+02  0.37084E-05
 0.79730003E+02 -0.96549E-04
 0.79780006E+02 -0.23456E-03
 0.79830002E+02 -0.34938E-03
 0.79880005E+02 -0.40341E-03
 0.79930008E+02 -0.34254E-03
 0.79980003E+02 -0.19349E-03
 0.80030006E+02 -0.39320E-04
 0.80080002E+02  0.83678E-04
 0.80130005E+02  0.13838E-03
 0.80180008E+02  0.13038E-03
 0.80230003E+02  0.93772E-04
 0.80280006E+02  0.36091E-04
 0.80330002E+02 -0.21155E-05
 0.80380005E+02  0.12733E-04
 0.80430008E+02  0.73756E-04
 0.80480003E+02  0.13586E-03
 0.80530006E+02  0.16957E-03
 0.80580002E+02  0.16470E-03
 0.80630005E+02  0.11890E-03
 0.80680008E+02  0.68652E-04
 0.80730003E+02  0.11002E-04
 0.80780006E+02 -0.38507E-04
 0.80830002E+02 -0.58739E-04
 0.80880005E+02 -0.75854E-04
 0.80930008E+02 -0.79340E-04
 0.80980003E+02 -0.54817E-04
 0.81030006E+02 -0.95005E-05
 0.81080002E+02  0.34859E-04
 0.81130005E+02  0.54965E-04
 0.81180008E+02  0.52668E-04
 0.81230003E+02  0.37303E-04
 0.81280006E+02  0.18131E-04
 0.81330002E+02 -0.21988E-04
 0.81380005E+02 -0.78532E-04
 0.81430008E+02 -0.10725E-03
 0.81480003E+02 -0.10056E-03
 0.81530006E+02 -0.59309E-04
 0.81580002E+02 -0.10307E-04
 0.81630005E+02  0.31672E-04
 0.81680008E+02  0.93689E-04
 0.81730003E+02  0.15212E-03
 0.81780006E+02  0.16913E-03
 0.81830002E+02  0.12293E-03
 0.81880005E+02  0.22825E-04
 0.81930008E+02 -0.81268E-04
 0.81980003E+02 -0.13957E-03
 0.82030006E+02 -0.14645E-03
 0.82080002E+02 -0.13771E-03
 0.82130005E+02 -0.13017E-03
 0.82180008E+02 -0.10660E-03
 0.82230003E+02 -0.39496E-04
 0.82280006E+02  0.39859E-04
 0.82330002E+02  0.84875E-04
 0.82380005E+02  0.98295E-04
 0.82430008E+02  0.78208E-04
 0.82480003E+02  0.43637E-04
 0.82530006E+02  0.13395E-04
 0.82580002E+02 -0.12410E-04
 0.82630005E+02 -0.83220E-05
 0.82680008E+02  0.85215E-05
 0.82730003E+02 -0.90085E-05
 0.82780006E+02 -0.31885E-04
 0.82830002E+02 -0.10670E-04
 0.82880005E+02  0.41957E-04
 0.82930008E+02  0.65163E-04
 0.82980003E+02  0.16188E-04
 0.83030006E+02 -0.64916E-04
 0.83080002E+02 -0.13760E-03
 0.83130005E+02 -0.18039E-03
 0.83180008E+02 -0.17289E-03
 0.83230003E+02 -0.10723E-03
 0.83280006E+02  0.29159E-04
 0.83330002E+02  0.19653E-03
 0.83380005E+02  0.32057E-03
 0.83430008E+02  0.36610E-03
 0.83480003E+02  0.33918E-03
 0.83530006E+02  0.24591E-03
 0.83580002E+02  0.11281E-03
 0.83630005E+02 -0.21597E-04
 0.83680008E+02 -0.14371E-03
 0.83730003E+02 -0.23062E-03
 0.83780006E+02 -0.26115E-03
 0.83830002E+02 -0.25038E-03
 0.83880005E+02 -0.20454E-03
 0.83930008E+02 -0.13185E-03
 0.83980003E+02 -0.60319E-04
 0.84030006E+02 -0.31255E-05
 0.84080002E+02  0.40744E-05
 0.84130005E+02 -0.23004E-04
 0.84180008E+02 -0.21289E-04
 0.84230003E+02  0.63349E-06
 0.84280006E+02  0.11291E-04
 0.84330002E+02  0.29663E-05
 0.84380005E+02 -0.72060E-05
 0.84430008E+02  0.56135E-05
 0.84480003E+02  0.38830E-04
 0.84530006E+02  0.79710E-04
 0.84580002E+02  0.12296E-03
 0.84630005E+02  0.16215E-03
 0.84680008E+02  0.17351E-03
 0.84730003E+02  0.13062E-03
 0.84780006E+02  0.53868E-04
 0.84830002E+02 -0.19110E-04
 0.84880005E+02 -0.53064E-04
 0.84930008E+02 -0.36392E-04
 0.84980003E+02 -0.32907E-04
 0.85030006E+02 -0.67655E-04
 0.85080002E+02 -0.10936E-03
 0.85130005E+02 -0.14719E-03
 0.85180008E+02 -0.15654E-03
 0.85230003E+02 -0.11708E-03
 0.85280006E+02 -0.42964E-04
 0.85330002E+02  0.26894E-04
 0.85380005E+02  0.45610E-04
 0.85430008E+02  0.88321E-05
 0.85480003E+02 -0.18692E-04
 0.85530006E+02 -0.18362E-04
 0.85580002E+02 -0.64597E-05
 0.85630005E+02  0.38691E-04
 0.85680008E+02  0.98044E-04
 0.85730003E+02  0.15166E-03
 0.85780006E+02  0.18250E-03
 0.85830002E+02  0.17466E-03
 0.85880005E+02  0.14575E-03
 0.85930008E+02  0.10310E-03
 0.85980003E+02  0.66448E-04
 0.86030006E+02  0.33428E-04
 0.86080002E+02 -0.19045E-04
 0.86130005E+02 -0.85773E-04
 0.86180008E+02 -0.15608E-03
 0.86230003E+02 -0.20638E-03
 0.86280006E+02 -0.22002E-03
 0.86330002E+02 -0.20128E-03
 0.86380005E+02 -0.16306E-03
 0.86430008E+02 -0.11294E-03
 0.86480003E+02 -0.46478E-04
 0.86530006E+02  0.23824E-04
 0.86580002E+02  0.84619E-04
 0.86630005E+02  0.11691E-03
 0.86680008E+02  0.10310E-03
 0.86730003E+02  0.54064E-04
 0.86780006E+02 -0.13369E-05
 0.86830002E+02 -0.17359E-04
 0.86880005E+02  0.93646E-05
 0.86930008E+02  0.52662E-04
 0.86980003E+02  0.90694E-04
 0.87030006E+02  0.10226E-03
 0.87080002E+02  0.99328E-04
 0.87130005E+02  0.81382E-04
 0.87180008E+02  0.55744E-04
 0.87230003E+02  0.34570E-04
 0.87280006E+02  0.19920E-05
 0.87330002E+02 -0.28600E-04
 0.87380005E+02 -0.49421E-04
 0.87430008E+02 -0.66137E-04
 0.87480003E+02 -0.68698E-04
 0.87530006E+02 -0.55715E-04
 0.87580002E+02 -0.38060E-04
 0.87630005E+02 -0.27228E-04
 0.87680008E+02 -0.21399E-04
 0.87730003E+02 -0.16566E-04
 0.87780006E+02 -0.14768E-04
 0.87830002E+02 -0.10396E-04
 0.87880005E+02  0.35900E-05
 0.87930008E+02  0.30368E-04
 0.87980003E+02  0.46930E-04
 0.88030006E+02  0.34343E-04
 0.88080002E+02  0.65011E-05
 0.88130005E+02 -0.24757E-04
 0.88180008E+02 -0.43679E-04
 0.88230003E+02 -0.56020E-04
 0.88280006E+02 -0.68997E-04
 0.88330002E+02 -0.81163E-04
 0.88380005E+02 -0.88279E-04
 0.88430008E+02 -0.73592E-04
 0.88480003E+02 -0.53754E-04
 0.88530006E+02 -0.30344E-04
 0.88580002E+02  0.16383E-04
 0.88630005E+02  0.76177E-04
 0.88680008E+02  0.11691E-03
 0.88730003E+02  0.11789E-03
 0.88780006E+02  0.73542E-04
 0.88830002E+02  0.11244E-04
 0.88880005E+02 -0.67441E-05
 0.88930008E+02  0.12539E-04
 0.88980003E+02  0.38567E-04
 0.89030006E+02  0.60263E-04
 0.89080002E+02  0.68431E-04
 0.89130005E+02  0.78916E-04
 0.89180008E+02  0.62187E-04
 0.89230003E+02  0.10218E-04
 0.89280006E+02 -0.39101E-04
 0.89330002E+02 -0.78622E-04
 0.89380005E+02 -0.99599E-04
 0.89430008E+02 -0.94082E-04
 0.89480003E+02 -0.67417E-04
 0.89530006E+02 -0.23654E-04
 0.89580002E+02  0.40450E-04
 0.89630005E+02  0.89235E-04
 0.89680008E+02  0.79354E-04
 0.89730003E+02  0.23133E-04
 0.89780006E+02 -0.46949E-04
 0.89830002E+02 -0.10754E-03
 0.89880005E+02 -0.14073E-03
 0.89930008E+02 -0.13203E-03
 0.89980003E+02 -0.94391E-04
 0.90030006E+02 -0.41254E-04
 0.90080002E+02  0.85361E-05
 0.90130005E+02  0.37628E-04
 0.90180008E+02  0.58195E-04
 0.90230003E+02  0.81364E-04
 0.90280006E+02  0.11487E-03
 0.90330002E+02  0.15218E-03
 0.90380005E+02  0.17625E-03
 0.90430008E+02  0.17402E-03
 0.90480003E+02  0.14090E-03
 0.90530006E+02  0.76576E-04
 0.90580002E+02 -0.64410E-05
 0.90630005E+02 -0.79594E-04
 0.90680008E+02 -0.11000E-03
 0.90730003E+02 -0.74988E-04
 0.90780006E+02  0.31955E-05
 0.90830002E+02  0.74120E-04
 0.90880005E+02  0.97189E-04
 0.90930008E+02  0.69322E-04
 0.90980003E+02  0.50481E-05
 0.91030006E+02 -0.76609E-04
 0.91080002E+02 -0.15263E-03
 0.91130005E+02 -0.21321E-03
 0.91180008E+02 -0.24272E-03
 0.91230003E+02 -0.23975E-03
 0.91280006E+02 -0.20761E-03
 0.91330002E+02 -0.15258E-03
 0.91380005E+02 -0.70025E-04
 0.91430008E+02  0.46985E-04
 0.91480003E+02  0.15288E-03
 0.91530006E+02  0.21012E-03
 0.91580002E+02  0.21306E-03
 0.91630005E+02  0.17307E-03
 0.91680008E+02  0.10509E-03
 0.91730003E+02  0.30996E-04
 0.91780006E+02 -0.20335E-04
 0.91830002E+02 -0.45361E-04
 0.91880005E+02 -0.46793E-04
 0.91930008E+02 -0.30430E-04
 0.91980003E+02 -0.37306E-05
 0.92030006E+02  0.20337E-04
 0.92080002E+02  0.34689E-04
 0.92130005E+02  0.46557E-04
 0.92180008E+02  0.60868E-04
 0.92230003E+02  0.74180E-04
 0.92280006E+02  0.64946E-04
 0.92330002E+02  0.23697E-04
 0.92380005E+02 -0.28656E-04
 0.92430008E+02 -0.77921E-04
 0.92480003E+02 -0.12106E-03
 0.92530006E+02 -0.13772E-03
 0.92580002E+02 -0.12976E-03
 0.92630005E+02 -0.11150E-03
 0.92680008E+02 -0.93376E-04
 0.92730003E+02 -0.86996E-04
 0.92780006E+02 -0.65881E-04
 0.92830002E+02 -0.12736E-04
 0.92880005E+02  0.46944E-04
 0.92930008E+02  0.91697E-04
 0.92980003E+02  0.11897E-03
 0.93030006E+02  0.11541E-03
 0.93080002E+02  0.91891E-04
 0.93130005E+02  0.73885E-04
 0.93180008E+02  0.47319E-04
 0.93230003E+02  0.80467E-05
 0.93280006E+02 -0.22626E-04
 0.93330002E+02 -0.30343E-04
 0.93380005E+02 -0.24084E-04
 0.93430008E+02 -0.14782E-04
 0.93480003E+02  0.10943E-04
 0.93530006E+02  0.55982E-04
 0.93580002E+02  0.10254E-03
 0.93630005E+02  0.13591E-03
 0.93680008E+02  0.14462E-03
 0.93730003E+02  0.11818E-03
 0.93780006E+02  0.64799E-04
 0.93830002E+02  0.44569E-05
 0.93880005E+02 -0.50761E-04
 0.93930008E+02 -0.88938E-04
 0.93980003E+02 -0.11552E-03
 0.94030006E+02 -0.14022E-03
 0.94080002E+02 -0.14624E-03
 0.94130005E+02 -0.12558E-03
 0.94180008E+02 -0.92837E-04
 0.94230003E+02 -0.58930E-04
 0.94280006E+02 -0.23860E-04
 0.94330002E+02  0.14535E-04
 0.94380005E+02  0.42835E-04
 0.94430008E+02  0.45763E-04
 0.94480003E+02  0.34924E-04
 0.94530006E+02  0.34231E-04
 0.94580002E+02  0.49872E-04
 0.94630005E+02  0.68357E-04
 0.94680008E+02  0.78603E-04
 0.94730003E+02  0.71833E-04
 0.94780006E+02  0.45645E-04
 0.94830002E+02  0.60398E-05
 0.94880005E+02 -0.45206E-04
 0.94930008E+02 -0.89800E-04
 0.94980003E+02 -0.10959E-03
 0.95030006E+02 -0.11458E-03
 0.95080002E+02 -0.11209E-03
 0.95130005E+02 -0.99218E-04
 0.95180008E+02 -0.78498E-04
 0.95230003E+02 -0.48743E-04
 0.95280006E+02 -0.20580E-04
 0.95330002E+02  0.41127E-05
 0.95380005E+02  0.32095E-04
 0.95430008E+02  0.57811E-04
 0.95480003E+02  0.95269E-04
 0.95530006E+02  0.12746E-03
 0.95580002E+02  0.13676E-03
 0.95630005E+02  0.13149E-03
 0.95680008E+02  0.11064E-03
 0.95730003E+02  0.81739E-04
 0.95780006E+02  0.48034E-04
 0.95830002E+02  0.26466E-04
 0.95880005E+02  0.18969E-04
 0.95930008E+02  0.12467E-04
 0.95980003E+02  0.10404E-04
 0.96030006E+02  0.98434E-05
 0.96080002E+02  0.37262E-06
 0.96130005E+02 -0.25934E-04
 0.96180008E+02 -0.59990E-04
 0.96230003E+02 -0.71633E-04
 0.96280006E+02 -0.49853E-04
 0.96330002E+02 -0.23860E-04
 0.96380005E+02 -0.19802E-04
 0.96430008E+02 -0.43332E-04
 0.96480003E+02 -0.86326E-04
 0.96530006E+02 -0.12833E-03
 0.96580002E+02 -0.14752E-03
 0.96630005E+02 -0.13916E-03
 0.96680008E+02 -0.10650E-03
 0.96730003E+02 -0.53692E-04
 0.96780006E+02  0.95616E-05
 0.96830002E+02  0.59322E-04
 0.96880005E+02  0.68516E-04
 0.96930008E+02  0.53956E-04
 0.96980003E+02  0.43908E-04
 0.97030006E+02  0.42363E-04
 0.97080002E+02  0.45957E-04
 0.97130005E+02  0.51320E-04
 0.97180008E+02  0.61371E-04
 0.97230003E+02  0.80505E-04
 0.97280006E+02  0.10223E-03
 0.97330002E+02  0.10669E-03
 0.97380005E+02  0.77191E-04
 0.97430008E+02  0.31813E-04
 0.97480003E+02  0.95002E-06
 0.97530006E+02 -0.18107E-04
 0.97580002E+02 -0.32375E-04
 0.97630005E+02 -0.45106E-04
 0.97680008E+02 -0.53170E-04
 0.97730003E+02 -0.55021E-04
 0.97780006E+02 -0.65628E-04
 0.97830002E+02 -0.78320E-04
 0.97880005E+02 -0.82018E-04
 0.97930008E+02 -0.61093E-04
 0.97980003E+02 -0.15130E-04
 0.98030006E+02  0.27255E-04
 0.98080002E+02  0.56821E-04
 0.98130005E+02  0.68032E-04
 0.98180008E+02  0.63820E-04
 0.98230003E+02  0.48683E-04
 0.98280006E+02  0.18752E-04
 0.98330002E+02 -0.18485E-04
 0.98380005E+02 -0.45960E-04
 0.98430008E+02 -0.54327E-04
 0.98480003E+02 -0.40460E-04
 0.98530006E+02 -0.10150E-04
 0.98580002E+02  0.11625E-04
 0.98630005E+02  0.19669E-04
 0.98680008E+02  0.13166E-04
 0.98730003E+02  0.21815E-05
 0.98780006E+02  0.40624E-05
 0.98830002E+02  0.10616E-04
 0.98880005E+02  0.11639E-04
 0.98930008E+02  0.46191E-05
 0.98980003E+02  0.22505E-05
 0.99030006E+02  0.91702E-05
 0.99080002E+02  0.22111E-04
 0.99130005E+02  0.41392E-04
 0.99180008E+02  0.48338E-04
 0.99230003E+02  0.21431E-04
 0.99280006E+02 -0.19435E-04
 0.99330002E+02 -0.42360E-04
 0.99380005E+02 -0.44429E-04
 0.99430008E+02 -0.29553E-04
 0.99480003E+02 -0.79056E-05
 0.99530006E+02  0.12649E-04
 0.99580002E+02  0.24929E-04
 0.99630005E+02  0.19721E-04
 0.99680008E+02  0.61865E-05
 0.99730003E+02 -0.41544E-05
 0.99780006E+02 -0.14785E-04
 0.99830002E+02 -0.20649E-04
 0.99880005E+02 -0.12072E-04
 0.99930008E+02  0.79632E-05
 0.99980003E+02  0.32473E-04
