-0.19996643E-01 -0.40838E-06
 0.30003358E-01 -0.22444E-06
 0.80003358E-01 -0.95803E-07
 0.13000336E+00 -0.69623E-09
 0.18000336E+00  0.68948E-07
 0.23000336E+00  0.98257E-07
 0.28000337E+00  0.87479E-07
 0.33000335E+00  0.10708E-06
 0.38000336E+00  0.12047E-06
 0.43000337E+00  0.80506E-07
 0.48000336E+00  0.59456E-07
 0.53000337E+00  0.48134E-07
 0.58000338E+00  0.23096E-07
 0.63000339E+00 -0.62718E-08
 0.68000335E+00  0.19883E-08
 0.73000336E+00  0.91717E-08
 0.78000337E+00 -0.20095E-07
 0.83000338E+00 -0.14342E-07
 0.88000339E+00  0.14229E-07
 0.93000335E+00 -0.33647E-08
 0.98000336E+00 -0.18878E-07
 0.10300034E+01  0.99013E-10
 0.10800034E+01 -0.69659E-08
 0.11300033E+01 -0.21574E-07
 0.11800034E+01  0.10637E-08
 0.12300034E+01  0.17133E-07
 0.12800034E+01  0.60173E-08
 0.13300034E+01  0.32360E-07
 0.13800033E+01  0.51565E-07
 0.14300034E+01  0.14738E-07
 0.14800034E+01 -0.47464E-08
 0.15300034E+01  0.39185E-07
 0.15800034E+01  0.24939E-07
 0.16300033E+01 -0.38975E-07
 0.16800034E+01 -0.21607E-07
 0.17300034E+01 -0.23050E-07
 0.17800034E+01 -0.28261E-07
 0.18300034E+01 -0.23319E-08
 0.18800033E+01  0.15303E-07
 0.19300034E+01  0.98385E-08
 0.19800034E+01 -0.75481E-08
 0.20300033E+01  0.76809E-08
 0.20800035E+01  0.10285E-07
 0.21300035E+01 -0.23710E-08
 0.21800034E+01 -0.45702E-08
 0.22300034E+01  0.66595E-08
 0.22800033E+01 -0.99921E-08
 0.23300035E+01  0.16132E-07
 0.23800035E+01  0.51228E-07
 0.24300034E+01 -0.31990E-08
 0.24800034E+01 -0.19030E-07
 0.25300033E+01  0.10801E-07
 0.25800035E+01  0.12702E-07
 0.26300035E+01 -0.10095E-08
 0.26800034E+01 -0.11308E-08
 0.27300034E+01  0.17460E-08
 0.27800033E+01 -0.12913E-07
 0.28300035E+01 -0.14323E-07
 0.28800035E+01  0.78790E-07
 0.29300034E+01  0.77359E-07
 0.29800034E+01 -0.63959E-07
 0.30300033E+01 -0.73363E-07
 0.30800035E+01 -0.44454E-07
 0.31300035E+01 -0.48934E-07
 0.31800034E+01 -0.28648E-07
 0.32300034E+01 -0.88361E-08
 0.32800033E+01 -0.15565E-08
 0.33300035E+01  0.32693E-07
 0.33800035E+01  0.57351E-07
 0.34300034E+01  0.31013E-08
 0.34800034E+01 -0.27031E-07
 0.35300033E+01 -0.10230E-07
 0.35800035E+01 -0.39510E-08
 0.36300035E+01 -0.29471E-07
 0.36800034E+01 -0.25061E-07
 0.37300034E+01 -0.18583E-07
 0.37800033E+01 -0.39118E-07
 0.38300035E+01 -0.13963E-07
 0.38800035E+01  0.18019E-07
 0.39300034E+01  0.12947E-07
 0.39800034E+01  0.61991E-08
 0.40300035E+01  0.31238E-07
 0.40800033E+01  0.30468E-07
 0.41300035E+01  0.37993E-08
 0.41800036E+01  0.39814E-08
 0.42300034E+01  0.12778E-07
 0.42800035E+01 -0.71522E-08
 0.43300033E+01  0.32187E-07
 0.43800035E+01  0.58104E-07
 0.44300036E+01 -0.93076E-08
 0.44800034E+01 -0.22748E-07
 0.45300035E+01 -0.10313E-07
 0.45800033E+01 -0.47818E-08
 0.46300035E+01 -0.14351E-07
 0.46800036E+01 -0.70620E-08
 0.47300034E+01  0.59530E-08
 0.47800035E+01 -0.26679E-07
 0.48300033E+01 -0.17237E-07
 0.48800035E+01  0.32954E-08
 0.49300036E+01 -0.38471E-08
 0.49800034E+01 -0.15734E-08
 0.50300035E+01  0.11057E-07
 0.50800033E+01  0.13360E-07
 0.51300035E+01 -0.13727E-08
 0.51800036E+01  0.74343E-09
 0.52300034E+01  0.25360E-07
 0.52800035E+01  0.39273E-08
 0.53300033E+01  0.29140E-07
 0.53800035E+01  0.49106E-07
 0.54300036E+01 -0.20173E-07
 0.54800034E+01 -0.29846E-07
 0.55300035E+01 -0.14835E-07
 0.55800033E+01 -0.10151E-07
 0.56300035E+01 -0.24742E-07
 0.56800036E+01 -0.23521E-07
 0.57300034E+01 -0.28478E-08
 0.57800035E+01 -0.20861E-07
 0.58300033E+01 -0.90557E-08
 0.58800035E+01  0.16016E-07
 0.59300036E+01  0.50363E-08
 0.59800034E+01 -0.73197E-08
 0.60300035E+01  0.49808E-08
 0.60800033E+01 -0.30763E-08
 0.61300035E+01 -0.15770E-07
 0.61800036E+01  0.39481E-08
 0.62300034E+01  0.17913E-07
 0.62800035E+01  0.25211E-08
 0.63300033E+01  0.18220E-07
 0.63800035E+01  0.37462E-07
 0.64300036E+01  0.56456E-09
 0.64800034E+01 -0.88264E-08
 0.65300035E+01  0.21043E-07
 0.65800033E+01  0.19281E-07
 0.66300035E+01  0.23793E-09
 0.66800036E+01  0.14188E-07
 0.67300034E+01  0.18723E-07
 0.67800035E+01 -0.23740E-08
 0.68300033E+01  0.18778E-08
 0.68800035E+01  0.18363E-07
 0.69300036E+01 -0.35770E-09
 0.69800034E+01 -0.11518E-07
 0.70300035E+01  0.14781E-08
 0.70800033E+01 -0.12397E-07
 0.71300035E+01 -0.26028E-07
 0.71800036E+01 -0.22452E-07
 0.72300034E+01 -0.10172E-07
 0.72800035E+01 -0.12116E-07
 0.73300033E+01  0.17475E-07
 0.73800035E+01  0.38731E-07
 0.74300036E+01 -0.47490E-08
 0.74800034E+01 -0.23253E-07
 0.75300035E+01 -0.13207E-07
 0.75800033E+01 -0.21658E-07
 0.76300035E+01 -0.34338E-07
 0.76800036E+01 -0.61658E-08
 0.77300034E+01  0.87159E-08
 0.77800035E+01 -0.16395E-07
 0.78300033E+01 -0.16047E-07
 0.78800035E+01  0.81605E-07
 0.79300036E+01  0.88996E-07
 0.79800034E+01 -0.39418E-07
 0.80300035E+01 -0.45789E-07
 0.80800037E+01 -0.19605E-07
 0.81300039E+01 -0.30692E-07
 0.81800032E+01 -0.20201E-07
 0.82300034E+01 -0.39435E-09
 0.82800035E+01 -0.11601E-08
 0.83300037E+01  0.31988E-07
 0.83800039E+01  0.59679E-07
 0.84300032E+01  0.26872E-08
 0.84800034E+01 -0.14853E-07
 0.85300035E+01 -0.77261E-08
 0.85800037E+01 -0.16035E-07
 0.86300039E+01 -0.31531E-07
 0.86800032E+01 -0.12345E-07
 0.87300034E+01  0.19771E-07
 0.87800035E+01  0.31882E-08
 0.88300037E+01 -0.48397E-08
 0.88800039E+01  0.21906E-09
 0.89300032E+01 -0.13737E-07
 0.89800034E+01 -0.12992E-07
 0.90300035E+01  0.14302E-07
 0.90800037E+01  0.36578E-08
 0.91300039E+01 -0.19009E-07
 0.91800032E+01 -0.13609E-07
 0.92300034E+01 -0.16892E-08
 0.92800035E+01  0.81370E-08
 0.93300037E+01  0.39150E-07
 0.93800039E+01  0.45667E-07
 0.94300032E+01  0.60865E-08
 0.94800034E+01 -0.11196E-07
 0.95300035E+01  0.52103E-08
 0.95800037E+01  0.67231E-08
 0.96300039E+01 -0.26802E-07
 0.96800032E+01 -0.19559E-07
 0.97300034E+01 -0.72059E-08
 0.97800035E+01 -0.21614E-07
 0.98300037E+01 -0.74359E-08
 0.98800039E+01  0.14528E-07
 0.99300032E+01  0.78101E-08
 0.99800034E+01 -0.57168E-08
 0.10030004E+02  0.11840E-07
 0.10080004E+02  0.87622E-09
 0.10130004E+02 -0.24636E-07
 0.10180003E+02 -0.15291E-07
 0.10230003E+02 -0.47962E-08
 0.10280004E+02 -0.99532E-08
 0.10330004E+02  0.14540E-07
 0.10380004E+02  0.28671E-07
 0.10430003E+02 -0.17974E-08
 0.10480003E+02 -0.11376E-07
 0.10530004E+02  0.83507E-08
 0.10580004E+02  0.18286E-07
 0.10630004E+02 -0.53930E-09
 0.10680003E+02  0.12795E-07
 0.10730003E+02  0.19910E-07
 0.10780004E+02  0.37299E-09
 0.10830004E+02  0.13586E-07
 0.10880004E+02  0.27106E-07
 0.10930003E+02  0.29099E-07
 0.10980003E+02  0.16585E-07
 0.11030004E+02  0.14181E-07
 0.11080004E+02  0.13137E-07
 0.11130004E+02 -0.86342E-08
 0.11180003E+02  0.18799E-09
 0.11230003E+02  0.14831E-07
 0.11280004E+02  0.50308E-08
 0.11330004E+02  0.19205E-07
 0.11380004E+02  0.29208E-07
 0.11430003E+02 -0.27242E-08
 0.11480003E+02 -0.29531E-07
 0.11530004E+02  0.20287E-07
 0.11580004E+02  0.14198E-07
 0.11630004E+02 -0.59168E-07
 0.11680003E+02 -0.37239E-07
 0.11730003E+02 -0.30002E-07
 0.11780004E+02 -0.37678E-07
 0.11830004E+02 -0.18300E-07
 0.11880004E+02 -0.23572E-08
 0.11930003E+02 -0.99432E-08
 0.11980003E+02 -0.30374E-07
 0.12030004E+02 -0.70814E-08
 0.12080004E+02 -0.46652E-08
 0.12130004E+02 -0.17878E-07
 0.12180003E+02 -0.17142E-07
 0.12230003E+02 -0.54751E-08
 0.12280004E+02 -0.15144E-07
 0.12330004E+02  0.44176E-08
 0.12380004E+02  0.25609E-07
 0.12430003E+02 -0.22586E-07
 0.12480003E+02 -0.27954E-07
 0.12530004E+02  0.11350E-07
 0.12580004E+02  0.12737E-07
 0.12630004E+02 -0.53980E-08
 0.12680003E+02  0.11224E-07
 0.12730003E+02  0.24665E-07
 0.12780004E+02  0.36213E-07
 0.12830004E+02  0.33755E-07
 0.12880004E+02  0.11661E-06
 0.12930003E+02  0.10760E-06
 0.12980003E+02 -0.12405E-06
 0.13030004E+02 -0.43378E-07
 0.13080004E+02 -0.79792E-07
 0.13130004E+02 -0.30871E-07
 0.13180003E+02  0.18531E-07
 0.13230003E+02 -0.16605E-06
 0.13280004E+02  0.62322E-07
 0.13330004E+02 -0.30187E-06
 0.13380004E+02  0.18306E-06
 0.13430003E+02 -0.10770E-06
 0.13480003E+02  0.13034E-05
 0.13530004E+02  0.64586E-05
 0.13580004E+02  0.17304E-04
 0.13630004E+02  0.26964E-04
 0.13680003E+02  0.25551E-04
 0.13730003E+02  0.26914E-04
 0.13780004E+02  0.10577E-04
 0.13830004E+02 -0.11960E-04
 0.13880004E+02 -0.39034E-04
 0.13930003E+02 -0.74746E-04
 0.13980003E+02 -0.71240E-04
 0.14030004E+02 -0.51341E-04
 0.14080004E+02  0.20632E-04
 0.14130004E+02  0.50371E-04
 0.14180003E+02  0.36999E-05
 0.14230003E+02  0.88937E-05
 0.14280004E+02 -0.10395E-04
 0.14330004E+02  0.48310E-05
 0.14380004E+02  0.86200E-04
 0.14430003E+02  0.12637E-03
 0.14480003E+02  0.91109E-04
 0.14530004E+02 -0.27127E-04
 0.14580004E+02 -0.17686E-03
 0.14630004E+02 -0.17944E-03
 0.14680003E+02 -0.12734E-03
 0.14730003E+02 -0.71585E-04
 0.14780004E+02  0.98570E-04
 0.14830004E+02  0.10612E-03
 0.14880004E+02  0.14001E-03
 0.14930003E+02  0.13424E-03
 0.14980003E+02 -0.73997E-05
 0.15030004E+02  0.43455E-04
 0.15080004E+02 -0.22074E-04
 0.15130004E+02 -0.55583E-04
 0.15180003E+02  0.47989E-04
 0.15230003E+02 -0.88861E-04
 0.15280004E+02 -0.16600E-03
 0.15330004E+02 -0.11654E-03
 0.15380004E+02 -0.10807E-03
 0.15430003E+02  0.92194E-04
 0.15480003E+02  0.18820E-03
 0.15530004E+02  0.16140E-03
 0.15580004E+02  0.19873E-03
 0.15630004E+02  0.68635E-04
 0.15680003E+02  0.24199E-04
 0.15730003E+02 -0.10312E-04
 0.15780004E+02 -0.10105E-03
 0.15830004E+02 -0.14792E-03
 0.15880004E+02 -0.27258E-03
 0.15930003E+02 -0.26080E-03
 0.15980003E+02 -0.18928E-03
 0.16030005E+02 -0.54997E-04
 0.16080004E+02  0.75719E-04
 0.16130003E+02  0.12349E-03
 0.16180004E+02  0.24670E-03
 0.16230003E+02  0.20428E-03
 0.16280005E+02  0.12180E-03
 0.16330004E+02  0.12432E-03
 0.16380003E+02  0.35632E-04
 0.16430004E+02 -0.38013E-04
 0.16480003E+02 -0.79245E-04
 0.16530005E+02 -0.12576E-03
 0.16580004E+02 -0.78988E-04
 0.16630003E+02 -0.19744E-04
 0.16680004E+02 -0.16832E-04
 0.16730003E+02 -0.19679E-04
 0.16780005E+02 -0.24105E-04
 0.16830004E+02  0.91398E-04
 0.16880003E+02  0.16025E-03
 0.16930004E+02  0.12838E-03
 0.16980003E+02  0.15645E-03
 0.17030005E+02 -0.44909E-05
 0.17080004E+02 -0.12502E-03
 0.17130003E+02 -0.13426E-03
 0.17180004E+02 -0.20615E-03
 0.17230003E+02 -0.12193E-03
 0.17280005E+02 -0.11745E-03
 0.17330004E+02 -0.71660E-04
 0.17380003E+02  0.19215E-04
 0.17430004E+02 -0.25885E-04
 0.17480003E+02  0.48953E-04
 0.17530005E+02  0.12947E-03
 0.17580004E+02  0.19652E-03
 0.17630003E+02  0.17609E-03
 0.17680004E+02  0.34108E-04
 0.17730003E+02  0.91781E-05
 0.17780005E+02 -0.56814E-04
 0.17830004E+02 -0.88211E-04
 0.17880003E+02  0.11680E-04
 0.17930004E+02 -0.53904E-04
 0.17980003E+02 -0.98966E-04
 0.18030005E+02 -0.83486E-04
 0.18080004E+02 -0.16798E-03
 0.18130003E+02 -0.11149E-03
 0.18180004E+02  0.20721E-05
 0.18230003E+02  0.13590E-03
 0.18280005E+02  0.31301E-03
 0.18330004E+02  0.22179E-03
 0.18380003E+02  0.16988E-03
 0.18430004E+02  0.10964E-03
 0.18480003E+02 -0.11417E-03
 0.18530005E+02 -0.11835E-03
 0.18580004E+02 -0.16176E-03
 0.18630003E+02 -0.23983E-03
 0.18680004E+02 -0.18997E-03
 0.18730003E+02 -0.68179E-04
 0.18780005E+02  0.52909E-04
 0.18830004E+02  0.69209E-04
 0.18880003E+02  0.17709E-04
 0.18930004E+02 -0.21701E-04
 0.18980003E+02  0.12778E-04
 0.19030005E+02  0.77536E-04
 0.19080004E+02  0.18101E-03
 0.19130003E+02  0.20210E-03
 0.19180004E+02  0.69721E-04
 0.19230003E+02  0.80619E-05
 0.19280005E+02  0.67247E-04
 0.19330004E+02 -0.58421E-04
 0.19380003E+02 -0.41354E-04
 0.19430004E+02  0.43233E-04
 0.19480003E+02 -0.14687E-03
 0.19530005E+02 -0.15125E-03
 0.19580004E+02 -0.15850E-03
 0.19630003E+02 -0.11655E-03
 0.19680004E+02 -0.77676E-04
 0.19730003E+02 -0.11030E-03
 0.19780005E+02  0.46416E-04
 0.19830004E+02  0.25241E-04
 0.19880003E+02  0.77706E-04
 0.19930004E+02  0.18998E-03
 0.19980003E+02  0.88528E-04
 0.20030005E+02  0.80512E-04
 0.20080004E+02  0.22691E-03
 0.20130003E+02  0.15068E-03
 0.20180004E+02 -0.80654E-04
 0.20230003E+02 -0.96725E-04
 0.20280005E+02 -0.21166E-03
 0.20330004E+02 -0.29985E-03
 0.20380003E+02 -0.76906E-04
 0.20430004E+02  0.12890E-03
 0.20480003E+02  0.17860E-03
 0.20530005E+02  0.18672E-03
 0.20580004E+02  0.51317E-04
 0.20630003E+02 -0.12113E-03
 0.20680004E+02 -0.10703E-03
 0.20730003E+02 -0.97942E-04
 0.20780005E+02 -0.73454E-04
 0.20830004E+02 -0.28156E-04
 0.20880003E+02 -0.10015E-03
 0.20930004E+02 -0.63231E-04
 0.20980003E+02 -0.33385E-04
 0.21030005E+02 -0.49342E-04
 0.21080004E+02  0.15865E-03
 0.21130003E+02  0.28327E-03
 0.21180004E+02  0.22605E-03
 0.21230003E+02  0.12131E-03
 0.21280005E+02 -0.21940E-05
 0.21330004E+02 -0.13506E-03
 0.21380003E+02 -0.56082E-04
 0.21430004E+02  0.81842E-04
 0.21480003E+02 -0.38068E-04
 0.21530005E+02 -0.11267E-03
 0.21580004E+02 -0.18069E-03
 0.21630003E+02 -0.70541E-04
 0.21680004E+02  0.11108E-03
 0.21730003E+02  0.10681E-03
 0.21780005E+02 -0.67986E-06
 0.21830004E+02 -0.17776E-03
 0.21880003E+02 -0.10248E-03
 0.21930004E+02 -0.48116E-04
 0.21980003E+02  0.10929E-04
 0.22030005E+02  0.12794E-03
 0.22080004E+02  0.53277E-04
 0.22130003E+02  0.13717E-03
 0.22180004E+02  0.21112E-03
 0.22230003E+02  0.19358E-03
 0.22280005E+02  0.15482E-03
 0.22330004E+02 -0.90804E-04
 0.22380003E+02 -0.31805E-03
 0.22430004E+02 -0.45728E-03
 0.22480003E+02 -0.36575E-03
 0.22530005E+02 -0.31684E-03
 0.22580004E+02 -0.80644E-03
 0.22630003E+02 -0.11374E-02
 0.22680004E+02 -0.75346E-03
 0.22730003E+02 -0.17296E-03
 0.22780005E+02  0.39404E-03
 0.22830004E+02  0.13673E-02
 0.22880003E+02  0.18230E-02
 0.22930004E+02  0.15164E-02
 0.22980003E+02  0.14006E-02
 0.23030005E+02  0.87482E-03
 0.23080004E+02  0.47051E-03
 0.23130003E+02  0.42070E-03
 0.23180004E+02  0.74954E-04
 0.23230003E+02 -0.36883E-03
 0.23280005E+02 -0.11915E-02
 0.23330004E+02 -0.18543E-02
 0.23380003E+02 -0.21314E-02
 0.23430004E+02 -0.18886E-02
 0.23480003E+02 -0.89108E-03
 0.23530005E+02  0.26828E-04
 0.23580004E+02  0.80331E-03
 0.23630003E+02  0.10108E-02
 0.23680004E+02  0.92768E-03
 0.23730003E+02  0.14497E-02
 0.23780005E+02  0.11935E-02
 0.23830004E+02  0.69314E-03
 0.23880003E+02  0.59140E-03
 0.23930004E+02  0.39875E-03
 0.23980003E+02  0.30922E-03
 0.24030005E+02 -0.24529E-03
 0.24080004E+02 -0.63493E-03
 0.24130003E+02 -0.13436E-02
 0.24180004E+02 -0.19382E-02
 0.24230003E+02 -0.14139E-02
 0.24280005E+02 -0.81029E-03
 0.24330004E+02  0.88800E-04
 0.24380003E+02  0.80565E-03
 0.24430004E+02  0.76901E-03
 0.24480003E+02  0.53406E-03
 0.24530005E+02 -0.42773E-03
 0.24580004E+02 -0.13651E-02
 0.24630003E+02 -0.64087E-03
 0.24680004E+02  0.69613E-03
 0.24730003E+02  0.12806E-02
 0.24780005E+02  0.57691E-03
 0.24830004E+02 -0.29043E-03
 0.24880003E+02 -0.18464E-03
 0.24930004E+02 -0.16708E-03
 0.24980003E+02  0.15375E-03
 0.25030005E+02  0.85913E-03
 0.25080004E+02  0.11344E-02
 0.25130003E+02  0.11515E-02
 0.25180004E+02  0.10934E-02
 0.25230003E+02  0.97320E-03
 0.25280005E+02  0.66760E-03
 0.25330004E+02  0.25709E-03
 0.25380003E+02 -0.86940E-03
 0.25430004E+02 -0.19001E-02
 0.25480003E+02 -0.16234E-02
 0.25530005E+02 -0.16260E-02
 0.25580004E+02 -0.17743E-02
 0.25630003E+02 -0.15561E-02
 0.25680004E+02 -0.16883E-02
 0.25730003E+02 -0.13487E-02
 0.25780005E+02 -0.39437E-03
 0.25830004E+02  0.10809E-02
 0.25880003E+02  0.23723E-02
 0.25930004E+02  0.28234E-02
 0.25980003E+02  0.27318E-02
 0.26030005E+02  0.16306E-02
 0.26080004E+02  0.10104E-02
 0.26130003E+02  0.12798E-02
 0.26180004E+02  0.11649E-02
 0.26230003E+02  0.77369E-03
 0.26280005E+02 -0.69155E-03
 0.26330004E+02 -0.23620E-02
 0.26380003E+02 -0.27855E-02
 0.26430004E+02 -0.21246E-02
 0.26480003E+02 -0.11597E-02
 0.26530005E+02 -0.10906E-02
 0.26580004E+02 -0.13014E-02
 0.26630003E+02 -0.14399E-02
 0.26680004E+02 -0.13253E-02
 0.26730003E+02  0.21403E-03
 0.26780005E+02  0.18426E-02
 0.26830004E+02  0.24946E-02
 0.26880003E+02  0.26478E-02
 0.26930004E+02  0.16167E-02
 0.26980003E+02  0.49735E-03
 0.27030005E+02  0.41039E-03
 0.27080004E+02  0.41581E-03
 0.27130003E+02  0.69344E-03
 0.27180004E+02  0.63684E-03
 0.27230003E+02 -0.26848E-03
 0.27280005E+02 -0.92646E-03
 0.27330004E+02 -0.16234E-02
 0.27380003E+02 -0.16133E-02
 0.27430004E+02 -0.39343E-03
 0.27480003E+02  0.18234E-03
 0.27530005E+02  0.11953E-03
 0.27580004E+02 -0.26199E-03
 0.27630003E+02 -0.11042E-02
 0.27680004E+02 -0.12242E-02
 0.27730003E+02 -0.40525E-03
 0.27780005E+02  0.57982E-03
 0.27830004E+02  0.12741E-02
 0.27880003E+02  0.16905E-02
 0.27930004E+02  0.13669E-02
 0.27980003E+02  0.30238E-03
 0.28030005E+02 -0.31368E-03
 0.28080004E+02 -0.52398E-03
 0.28130003E+02 -0.76704E-03
 0.28180004E+02 -0.79346E-03
 0.28230003E+02 -0.34825E-03
 0.28280005E+02  0.14696E-03
 0.28330004E+02  0.12130E-03
 0.28380003E+02 -0.37740E-03
 0.28430004E+02 -0.75455E-03
 0.28480003E+02 -0.43051E-03
 0.28530005E+02  0.30097E-03
 0.28580004E+02  0.12798E-02
 0.28630003E+02  0.21454E-02
 0.28680004E+02  0.14757E-02
 0.28730003E+02 -0.92105E-03
 0.28780005E+02 -0.24517E-02
 0.28830004E+02 -0.21700E-02
 0.28880003E+02 -0.13570E-02
 0.28930004E+02 -0.39735E-03
 0.28980003E+02  0.44236E-03
 0.29030005E+02  0.90255E-03
 0.29080004E+02  0.48846E-03
 0.29130003E+02  0.52948E-03
 0.29180004E+02  0.13149E-02
 0.29230003E+02  0.10903E-02
 0.29280005E+02  0.54790E-03
 0.29330004E+02  0.31208E-03
 0.29380003E+02  0.29343E-03
 0.29430004E+02  0.24022E-03
 0.29480003E+02  0.11173E-03
 0.29530005E+02 -0.14681E-03
 0.29580004E+02 -0.18088E-03
 0.29630003E+02  0.23610E-03
 0.29680004E+02  0.35176E-03
 0.29730003E+02  0.31748E-03
 0.29780005E+02 -0.16669E-03
 0.29830004E+02 -0.65154E-03
 0.29880003E+02 -0.75001E-03
 0.29930004E+02 -0.94963E-03
 0.29980003E+02 -0.14653E-02
 0.30030005E+02 -0.13872E-02
 0.30080004E+02 -0.30218E-03
 0.30130003E+02 -0.11609E-04
 0.30180004E+02  0.52012E-03
 0.30230003E+02  0.13229E-02
 0.30280005E+02  0.78376E-03
 0.30330004E+02  0.25342E-03
 0.30380003E+02 -0.33681E-03
 0.30430004E+02 -0.79863E-03
 0.30480003E+02 -0.33685E-03
 0.30530005E+02  0.37533E-04
 0.30580004E+02  0.20991E-03
 0.30630003E+02  0.21278E-03
 0.30680004E+02  0.45901E-03
 0.30730003E+02  0.85017E-03
 0.30780005E+02  0.52060E-03
 0.30830004E+02  0.62342E-03
 0.30880003E+02  0.53688E-03
 0.30930004E+02 -0.14528E-03
 0.30980003E+02 -0.15370E-04
 0.31030005E+02 -0.53208E-03
 0.31080004E+02 -0.10035E-02
 0.31130003E+02 -0.77746E-03
 0.31180004E+02 -0.12145E-02
 0.31230003E+02 -0.88004E-03
 0.31280005E+02 -0.33366E-03
 0.31330004E+02 -0.45057E-03
 0.31380003E+02  0.19537E-03
 0.31430004E+02  0.81667E-03
 0.31480003E+02  0.90126E-03
 0.31530005E+02  0.15640E-02
 0.31580004E+02  0.14734E-02
 0.31630003E+02  0.47223E-03
 0.31680004E+02  0.40749E-04
 0.31730003E+02 -0.10680E-03
 0.31780005E+02  0.91130E-04
 0.31830004E+02  0.47520E-04
 0.31880003E+02 -0.38044E-03
 0.31930004E+02 -0.27007E-03
 0.31980003E+02 -0.13780E-03
 0.32030003E+02 -0.26530E-03
 0.32080006E+02 -0.15362E-03
 0.32130005E+02 -0.43108E-03
 0.32180004E+02 -0.11400E-02
 0.32230003E+02 -0.13489E-02
 0.32280003E+02 -0.78774E-03
 0.32330006E+02  0.35472E-03
 0.32380005E+02  0.96640E-03
 0.32430004E+02  0.99737E-03
 0.32480003E+02  0.61155E-03
 0.32530003E+02 -0.12860E-03
 0.32580006E+02 -0.96849E-04
 0.32630005E+02  0.12926E-03
 0.32680004E+02 -0.29984E-04
 0.32730003E+02 -0.20861E-03
 0.32780003E+02 -0.46387E-03
 0.32830006E+02 -0.42969E-03
 0.32880005E+02  0.23647E-03
 0.32930004E+02  0.96245E-03
 0.32980003E+02  0.11752E-02
 0.33030003E+02  0.71331E-03
 0.33080006E+02 -0.11620E-04
 0.33130005E+02 -0.28775E-03
 0.33180004E+02 -0.50569E-03
 0.33230003E+02 -0.68391E-03
 0.33280003E+02 -0.44718E-03
 0.33330006E+02 -0.51715E-03
 0.33380005E+02 -0.59283E-03
 0.33430004E+02 -0.55047E-03
 0.33480003E+02 -0.78534E-03
 0.33530003E+02 -0.49651E-03
 0.33580006E+02 -0.46334E-04
 0.33630005E+02  0.62736E-03
 0.33680004E+02  0.13209E-02
 0.33730003E+02  0.82580E-03
 0.33780003E+02  0.52766E-03
 0.33830006E+02  0.75405E-03
 0.33880005E+02  0.79116E-03
 0.33930004E+02  0.87630E-03
 0.33980003E+02  0.37581E-03
 0.34030003E+02 -0.49873E-03
 0.34080006E+02 -0.11284E-02
 0.34130005E+02 -0.10307E-02
 0.34180004E+02 -0.78404E-03
 0.34230003E+02 -0.10030E-02
 0.34280003E+02 -0.86896E-03
 0.34330006E+02 -0.39538E-03
 0.34380005E+02  0.22090E-03
 0.34430004E+02  0.66926E-03
 0.34480003E+02  0.75995E-03
 0.34530003E+02  0.68404E-03
 0.34580006E+02  0.33094E-03
 0.34630005E+02  0.13154E-03
 0.34680004E+02  0.40358E-03
 0.34730003E+02  0.48052E-03
 0.34780003E+02  0.80309E-04
 0.34830006E+02 -0.34932E-03
 0.34880005E+02 -0.58816E-03
 0.34930004E+02 -0.52932E-03
 0.34980003E+02 -0.32227E-03
 0.35030003E+02 -0.14147E-03
 0.35080006E+02 -0.33123E-03
 0.35130005E+02 -0.66768E-03
 0.35180004E+02 -0.32425E-03
 0.35230003E+02  0.33734E-03
 0.35280003E+02  0.84141E-03
 0.35330006E+02  0.73674E-03
 0.35380005E+02  0.40528E-03
 0.35430004E+02  0.53725E-03
 0.35480003E+02  0.54835E-03
 0.35530003E+02  0.60674E-03
 0.35580006E+02  0.40256E-03
 0.35630005E+02 -0.12749E-03
 0.35680004E+02 -0.29177E-03
 0.35730003E+02 -0.39233E-03
 0.35780003E+02 -0.45114E-03
 0.35830006E+02 -0.40129E-03
 0.35880005E+02 -0.52434E-03
 0.35930004E+02 -0.76792E-03
 0.35980003E+02 -0.48433E-03
 0.36030003E+02 -0.22832E-03
 0.36080006E+02 -0.24598E-03
 0.36130005E+02  0.11676E-03
 0.36180004E+02  0.11540E-03
 0.36230003E+02  0.13407E-03
 0.36280003E+02  0.31895E-03
 0.36330006E+02  0.12639E-03
 0.36380005E+02  0.26565E-03
 0.36430004E+02  0.31540E-03
 0.36480003E+02  0.15265E-03
 0.36530003E+02  0.66853E-04
 0.36580006E+02 -0.46385E-03
 0.36630005E+02 -0.51977E-03
 0.36680004E+02 -0.69764E-04
 0.36730003E+02  0.66380E-04
 0.36780003E+02  0.29543E-03
 0.36830006E+02  0.30403E-03
 0.36880005E+02  0.60322E-05
 0.36930004E+02  0.47079E-04
 0.36980003E+02  0.45176E-03
 0.37030003E+02  0.62672E-03
 0.37080006E+02  0.36855E-03
 0.37130005E+02  0.99198E-04
 0.37180004E+02 -0.10196E-03
 0.37230003E+02 -0.27284E-03
 0.37280003E+02 -0.32721E-03
 0.37330006E+02 -0.49267E-03
 0.37380005E+02 -0.42466E-03
 0.37430004E+02 -0.20959E-03
 0.37480003E+02 -0.15866E-03
 0.37530003E+02  0.15305E-03
 0.37580006E+02  0.17182E-03
 0.37630005E+02  0.47435E-04
 0.37680004E+02  0.20764E-03
 0.37730003E+02  0.29655E-03
 0.37780003E+02  0.99153E-04
 0.37830006E+02 -0.27446E-03
 0.37880005E+02 -0.33185E-03
 0.37930004E+02 -0.24488E-03
 0.37980003E+02  0.14097E-03
 0.38030003E+02  0.61098E-03
 0.38080006E+02  0.47492E-03
 0.38130005E+02 -0.34764E-04
 0.38180004E+02 -0.48784E-03
 0.38230003E+02 -0.39408E-03
 0.38280003E+02 -0.22492E-04
 0.38330006E+02  0.12691E-03
 0.38380005E+02  0.53286E-04
 0.38430004E+02 -0.23838E-03
 0.38480003E+02 -0.56345E-03
 0.38530003E+02 -0.52860E-03
 0.38580006E+02 -0.30129E-04
 0.38630005E+02  0.44857E-03
 0.38680004E+02  0.68475E-03
 0.38730003E+02  0.66132E-03
 0.38780003E+02  0.39414E-03
 0.38830006E+02  0.15034E-03
 0.38880005E+02  0.14657E-03
 0.38930004E+02  0.17905E-03
 0.38980003E+02  0.50418E-04
 0.39030003E+02 -0.16127E-03
 0.39080006E+02 -0.38887E-03
 0.39130005E+02 -0.42898E-03
 0.39180004E+02 -0.41215E-03
 0.39230003E+02 -0.40325E-03
 0.39280003E+02 -0.26739E-03
 0.39330006E+02 -0.16605E-03
 0.39380005E+02 -0.64761E-04
 0.39430004E+02 -0.63063E-05
 0.39480003E+02  0.37171E-04
 0.39530003E+02  0.28842E-03
 0.39580006E+02  0.36076E-03
 0.39630005E+02  0.23102E-03
 0.39680004E+02  0.27760E-03
 0.39730003E+02  0.10070E-03
 0.39780003E+02 -0.21417E-03
 0.39830006E+02 -0.12080E-03
 0.39880005E+02  0.15457E-03
 0.39930004E+02  0.28586E-03
 0.39980003E+02  0.24010E-03
 0.40030003E+02  0.16417E-03
 0.40080006E+02 -0.26103E-04
 0.40130005E+02 -0.14670E-03
 0.40180004E+02  0.12968E-05
 0.40230003E+02 -0.53254E-04
 0.40280003E+02 -0.19434E-03
 0.40330006E+02 -0.34162E-03
 0.40380005E+02 -0.58844E-03
 0.40430004E+02 -0.59787E-03
 0.40480003E+02 -0.39704E-03
 0.40530003E+02 -0.21348E-03
 0.40580006E+02  0.71844E-04
 0.40630005E+02  0.40432E-03
 0.40680004E+02  0.46598E-03
 0.40730003E+02  0.37352E-03
 0.40780003E+02  0.24979E-03
 0.40830006E+02  0.20227E-03
 0.40880005E+02  0.25623E-03
 0.40930004E+02  0.28076E-03
 0.40980003E+02  0.42107E-03
 0.41030003E+02  0.50885E-03
 0.41080006E+02  0.27847E-03
 0.41130005E+02 -0.85427E-05
 0.41180004E+02 -0.18645E-03
 0.41230003E+02 -0.23590E-03
 0.41280003E+02 -0.21134E-03
 0.41330006E+02 -0.39555E-03
 0.41380005E+02 -0.74461E-03
 0.41430004E+02 -0.88901E-03
 0.41480003E+02 -0.70000E-03
 0.41530003E+02 -0.21406E-03
 0.41580006E+02  0.27366E-03
 0.41630005E+02  0.27823E-03
 0.41680004E+02  0.15252E-03
 0.41730003E+02  0.13934E-03
 0.41780003E+02  0.11065E-03
 0.41830006E+02  0.26940E-03
 0.41880005E+02  0.36250E-03
 0.41930004E+02  0.26142E-03
 0.41980003E+02  0.20791E-03
 0.42030003E+02  0.15556E-03
 0.42080006E+02  0.69462E-04
 0.42130005E+02 -0.40771E-04
 0.42180004E+02 -0.29744E-03
 0.42230003E+02 -0.32824E-03
 0.42280003E+02 -0.47472E-04
 0.42330006E+02  0.18877E-03
 0.42380005E+02  0.34634E-03
 0.42430004E+02  0.22003E-03
 0.42480003E+02 -0.81247E-04
 0.42530003E+02 -0.21169E-03
 0.42580006E+02 -0.13079E-03
 0.42630005E+02  0.31638E-04
 0.42680004E+02  0.76616E-04
 0.42730003E+02  0.14882E-04
 0.42780003E+02 -0.74430E-05
 0.42830006E+02 -0.19515E-04
 0.42880005E+02  0.13940E-04
 0.42930004E+02  0.67581E-04
 0.42980003E+02  0.34601E-05
 0.43030003E+02 -0.80265E-04
 0.43080006E+02 -0.18715E-03
 0.43130005E+02 -0.17412E-03
 0.43180004E+02 -0.52418E-04
 0.43230003E+02 -0.10629E-03
 0.43280003E+02 -0.85485E-04
 0.43330006E+02 -0.39240E-04
 0.43380005E+02 -0.44899E-04
 0.43430004E+02  0.89636E-04
 0.43480003E+02  0.18275E-03
 0.43530003E+02  0.23949E-03
 0.43580006E+02  0.15970E-03
 0.43630005E+02  0.78504E-05
 0.43680004E+02 -0.11479E-03
 0.43730003E+02 -0.29823E-03
 0.43780003E+02 -0.30713E-03
 0.43830006E+02 -0.21980E-03
 0.43880005E+02 -0.76164E-04
 0.43930004E+02  0.17330E-03
 0.43980003E+02  0.39059E-03
 0.44030003E+02  0.47215E-03
 0.44080006E+02  0.35399E-03
 0.44130005E+02  0.24326E-03
 0.44180004E+02  0.15315E-03
 0.44230003E+02  0.21116E-04
 0.44280003E+02 -0.83643E-04
 0.44330006E+02 -0.23376E-03
 0.44380005E+02 -0.28153E-03
 0.44430004E+02 -0.53307E-04
 0.44480003E+02  0.13694E-03
 0.44530003E+02  0.31806E-04
 0.44580006E+02 -0.18430E-03
 0.44630005E+02 -0.37675E-03
 0.44680004E+02 -0.32099E-03
 0.44730003E+02 -0.48524E-05
 0.44780003E+02  0.12374E-03
 0.44830006E+02  0.53112E-04
 0.44880005E+02 -0.65702E-04
 0.44930004E+02 -0.16591E-03
 0.44980003E+02 -0.77612E-05
 0.45030003E+02  0.12854E-03
 0.45080006E+02  0.15743E-03
 0.45130005E+02  0.26497E-03
 0.45180004E+02  0.20320E-03
 0.45230003E+02  0.18083E-03
 0.45280003E+02  0.15949E-03
 0.45330006E+02 -0.12553E-03
 0.45380005E+02 -0.33834E-03
 0.45430004E+02 -0.29391E-03
 0.45480003E+02 -0.10963E-03
 0.45530003E+02  0.90144E-04
 0.45580006E+02  0.24503E-03
 0.45630005E+02  0.10456E-03
 0.45680004E+02 -0.18192E-03
 0.45730003E+02 -0.24799E-03
 0.45780003E+02 -0.25101E-03
 0.45830006E+02 -0.16641E-03
 0.45880005E+02 -0.12261E-03
 0.45930004E+02 -0.19262E-03
 0.45980003E+02 -0.16155E-03
 0.46030003E+02 -0.55823E-04
 0.46080006E+02  0.16590E-03
 0.46130005E+02  0.34917E-03
 0.46180004E+02  0.40827E-03
 0.46230003E+02  0.36564E-03
 0.46280003E+02  0.27358E-03
 0.46330006E+02  0.28278E-03
 0.46380005E+02  0.27087E-03
 0.46430004E+02  0.17887E-03
 0.46480003E+02 -0.13005E-04
 0.46530003E+02 -0.13404E-03
 0.46580006E+02 -0.76756E-04
 0.46630005E+02 -0.38302E-04
 0.46680004E+02 -0.91194E-04
 0.46730003E+02 -0.24927E-03
 0.46780003E+02 -0.40574E-03
 0.46830006E+02 -0.41857E-03
 0.46880005E+02 -0.24805E-03
 0.46930004E+02 -0.92439E-04
 0.46980003E+02 -0.38752E-04
 0.47030003E+02  0.14643E-04
 0.47080006E+02  0.11772E-03
 0.47130005E+02  0.23538E-03
 0.47180004E+02  0.10653E-03
 0.47230003E+02 -0.18456E-03
 0.47280003E+02 -0.27600E-03
 0.47330006E+02 -0.24600E-03
 0.47380005E+02 -0.14325E-03
 0.47430004E+02  0.17717E-03
 0.47480003E+02  0.31842E-03
 0.47530003E+02  0.24008E-03
 0.47580006E+02  0.22710E-03
 0.47630005E+02  0.23132E-03
 0.47680004E+02  0.30001E-03
 0.47730003E+02  0.30423E-03
 0.47780003E+02  0.19403E-03
 0.47830006E+02 -0.39531E-04
 0.47880005E+02 -0.26944E-03
 0.47930004E+02 -0.27266E-03
 0.47980003E+02 -0.17360E-03
 0.48030003E+02 -0.73070E-04
 0.48080006E+02 -0.56462E-04
 0.48130005E+02 -0.99246E-04
 0.48180004E+02 -0.87750E-04
 0.48230003E+02  0.28365E-04
 0.48280003E+02  0.15704E-03
 0.48330006E+02  0.75923E-04
 0.48380005E+02 -0.21668E-04
 0.48430004E+02  0.15848E-04
 0.48480003E+02  0.73001E-04
 0.48530003E+02  0.15950E-03
 0.48580006E+02  0.18151E-03
 0.48630005E+02 -0.22790E-04
 0.48680004E+02 -0.23425E-03
 0.48730003E+02 -0.21077E-03
 0.48780003E+02 -0.21151E-03
 0.48830006E+02 -0.17781E-03
 0.48880005E+02 -0.10836E-03
 0.48930004E+02 -0.11278E-03
 0.48980003E+02  0.15248E-04
 0.49030003E+02  0.10082E-03
 0.49080006E+02  0.76661E-04
 0.49130005E+02  0.78726E-04
 0.49180004E+02  0.14636E-03
 0.49230003E+02  0.17830E-03
 0.49280003E+02  0.17159E-03
 0.49330006E+02  0.24095E-03
 0.49380005E+02  0.13519E-03
 0.49430004E+02 -0.60948E-04
 0.49480003E+02 -0.11505E-03
 0.49530003E+02 -0.15090E-03
 0.49580006E+02 -0.13110E-03
 0.49630005E+02 -0.52157E-04
 0.49680004E+02  0.98895E-05
 0.49730003E+02 -0.33698E-04
 0.49780003E+02 -0.88383E-04
 0.49830006E+02 -0.62848E-04
 0.49880005E+02 -0.17474E-03
 0.49930004E+02 -0.30825E-03
 0.49980003E+02 -0.30731E-03
 0.50030003E+02 -0.16349E-03
 0.50080006E+02  0.10541E-03
 0.50130005E+02  0.32191E-03
 0.50180004E+02  0.36434E-03
 0.50230003E+02  0.27889E-03
 0.50280003E+02  0.22198E-03
 0.50330006E+02  0.12098E-03
 0.50380005E+02  0.65124E-04
 0.50430004E+02  0.52754E-04
 0.50480003E+02 -0.13426E-03
 0.50530003E+02 -0.23718E-03
 0.50580006E+02 -0.18555E-03
 0.50630005E+02 -0.10097E-03
 0.50680004E+02  0.40795E-04
 0.50730003E+02  0.95139E-04
 0.50780003E+02  0.42657E-05
 0.50830006E+02 -0.92412E-04
 0.50880005E+02 -0.59610E-04
 0.50930004E+02 -0.66781E-05
 0.50980003E+02  0.28106E-04
 0.51030003E+02  0.16286E-03
 0.51080006E+02  0.20656E-03
 0.51130005E+02  0.18806E-03
 0.51180004E+02  0.17910E-03
 0.51230003E+02  0.80342E-04
 0.51280003E+02 -0.29200E-04
 0.51330006E+02 -0.16165E-03
 0.51380005E+02 -0.17318E-03
 0.51430004E+02 -0.77222E-04
 0.51480003E+02 -0.57089E-04
 0.51530003E+02 -0.10579E-03
 0.51580006E+02 -0.17539E-03
 0.51630005E+02 -0.21233E-03
 0.51680004E+02 -0.23133E-03
 0.51730003E+02 -0.92914E-04
 0.51780003E+02  0.44132E-04
 0.51830006E+02  0.43925E-06
 0.51880005E+02  0.30154E-04
 0.51930004E+02  0.57615E-04
 0.51980003E+02 -0.50440E-04
 0.52030003E+02 -0.70493E-04
 0.52080006E+02  0.14441E-04
 0.52130005E+02  0.64283E-04
 0.52180004E+02  0.14066E-03
 0.52230003E+02  0.21211E-03
 0.52280003E+02  0.24386E-03
 0.52330006E+02  0.28778E-03
 0.52380005E+02  0.27736E-03
 0.52430004E+02  0.19056E-03
 0.52480003E+02  0.89136E-04
 0.52530003E+02  0.43896E-05
 0.52580006E+02 -0.31332E-04
 0.52630005E+02 -0.72110E-04
 0.52680004E+02 -0.99815E-04
 0.52730003E+02 -0.42683E-04
 0.52780003E+02 -0.95094E-04
 0.52830006E+02 -0.22019E-03
 0.52880005E+02 -0.22541E-03
 0.52930004E+02 -0.26715E-03
 0.52980003E+02 -0.33920E-03
 0.53030003E+02 -0.22038E-03
 0.53080006E+02 -0.43378E-04
 0.53130005E+02  0.56216E-04
 0.53180004E+02  0.17785E-03
 0.53230003E+02  0.24120E-03
 0.53280003E+02  0.17669E-03
 0.53330006E+02  0.10538E-03
 0.53380005E+02  0.63776E-04
 0.53430004E+02 -0.12247E-04
 0.53480003E+02 -0.77805E-04
 0.53530003E+02 -0.51676E-04
 0.53580006E+02 -0.10302E-04
 0.53630005E+02 -0.30366E-04
 0.53680004E+02 -0.10719E-05
 0.53730003E+02 -0.73158E-05
 0.53780003E+02 -0.66521E-04
 0.53830006E+02  0.12116E-04
 0.53880005E+02  0.82900E-04
 0.53930004E+02  0.13023E-03
 0.53980003E+02  0.18341E-03
 0.54030003E+02  0.15082E-03
 0.54080006E+02  0.12377E-03
 0.54130005E+02  0.79659E-04
 0.54180004E+02  0.24294E-04
 0.54230003E+02  0.11295E-04
 0.54280003E+02 -0.17861E-04
 0.54330006E+02 -0.85187E-04
 0.54380005E+02 -0.20911E-03
 0.54430004E+02 -0.29886E-03
 0.54480003E+02 -0.26686E-03
 0.54530003E+02 -0.17852E-03
 0.54580006E+02 -0.94204E-04
 0.54630005E+02 -0.63334E-04
 0.54680004E+02 -0.30106E-04
 0.54730003E+02  0.93705E-04
 0.54780003E+02  0.23935E-03
 0.54830006E+02  0.30723E-03
 0.54880005E+02  0.18576E-03
 0.54930004E+02 -0.62006E-04
 0.54980003E+02 -0.19027E-03
 0.55030003E+02 -0.17085E-03
 0.55080006E+02 -0.56501E-04
 0.55130005E+02  0.24324E-04
 0.55180004E+02  0.33035E-04
 0.55230003E+02  0.12266E-03
 0.55280003E+02  0.18796E-03
 0.55330006E+02  0.17371E-03
 0.55380005E+02  0.16707E-03
 0.55430004E+02  0.98234E-04
 0.55480003E+02 -0.17726E-04
 0.55530003E+02 -0.69542E-04
 0.55580006E+02 -0.83735E-04
 0.55630005E+02 -0.69649E-04
 0.55680004E+02 -0.20340E-04
 0.55730003E+02 -0.43560E-04
 0.55780003E+02 -0.10674E-03
 0.55830006E+02 -0.12343E-03
 0.55880005E+02 -0.93060E-04
 0.55930004E+02 -0.75400E-04
 0.55980003E+02 -0.12969E-03
 0.56030003E+02 -0.18692E-03
 0.56080006E+02 -0.13754E-03
 0.56130005E+02  0.27169E-04
 0.56180004E+02  0.13197E-03
 0.56230003E+02  0.11633E-03
 0.56280003E+02  0.43033E-04
 0.56330006E+02 -0.51192E-04
 0.56380005E+02 -0.51738E-04
 0.56430004E+02  0.10457E-03
 0.56480003E+02  0.28533E-03
 0.56530003E+02  0.37039E-03
 0.56580006E+02  0.34875E-03
 0.56630005E+02  0.22144E-03
 0.56680004E+02  0.84255E-04
 0.56730003E+02 -0.48053E-04
 0.56780003E+02 -0.11694E-03
 0.56830006E+02 -0.12528E-03
 0.56880005E+02 -0.14681E-03
 0.56930004E+02 -0.82793E-04
 0.56980003E+02 -0.50004E-04
 0.57030003E+02 -0.12570E-03
 0.57080006E+02 -0.16309E-03
 0.57130005E+02 -0.21362E-03
 0.57180004E+02 -0.28541E-03
 0.57230003E+02 -0.24363E-03
 0.57280003E+02 -0.15736E-03
 0.57330006E+02 -0.41318E-04
 0.57380005E+02  0.61097E-04
 0.57430004E+02  0.98279E-04
 0.57480003E+02  0.12948E-03
 0.57530003E+02  0.12807E-03
 0.57580006E+02  0.17694E-03
 0.57630005E+02  0.20449E-03
 0.57680004E+02  0.14483E-03
 0.57730003E+02  0.96655E-04
 0.57780003E+02  0.34208E-04
 0.57830006E+02 -0.35590E-04
 0.57880005E+02 -0.82314E-04
 0.57930004E+02 -0.10856E-03
 0.57980003E+02 -0.11112E-03
 0.58030003E+02 -0.94768E-04
 0.58080006E+02 -0.66848E-04
 0.58130005E+02 -0.19867E-04
 0.58180004E+02  0.12517E-04
 0.58230003E+02  0.92589E-05
 0.58280003E+02  0.52933E-04
 0.58330006E+02  0.13969E-03
 0.58380005E+02  0.17367E-03
 0.58430004E+02  0.14498E-03
 0.58480003E+02  0.11132E-03
 0.58530003E+02  0.59975E-04
 0.58580006E+02 -0.49868E-04
 0.58630005E+02 -0.10790E-03
 0.58680004E+02 -0.85721E-04
 0.58730003E+02 -0.39482E-04
 0.58780003E+02  0.55822E-05
 0.58830006E+02  0.41068E-04
 0.58880005E+02  0.89071E-04
 0.58930004E+02  0.49320E-04
 0.58980003E+02 -0.26024E-04
 0.59030003E+02 -0.76446E-04
 0.59080006E+02 -0.16954E-03
 0.59130005E+02 -0.20152E-03
 0.59180004E+02 -0.16023E-03
 0.59230003E+02 -0.12053E-03
 0.59280003E+02 -0.37282E-04
 0.59330006E+02  0.66893E-04
 0.59380005E+02  0.96758E-04
 0.59430004E+02  0.82620E-04
 0.59480003E+02  0.45421E-04
 0.59530003E+02 -0.16979E-04
 0.59580006E+02 -0.20293E-05
 0.59630005E+02  0.62563E-04
 0.59680004E+02  0.94214E-04
 0.59730003E+02  0.12924E-03
 0.59780003E+02  0.12615E-03
 0.59830006E+02  0.52589E-04
 0.59880005E+02  0.29398E-04
 0.59930004E+02  0.44445E-04
 0.59980003E+02  0.50426E-04
 0.60030003E+02  0.72557E-05
 0.60080006E+02 -0.10954E-03
 0.60130005E+02 -0.15470E-03
 0.60180004E+02 -0.18194E-03
 0.60230003E+02 -0.15911E-03
 0.60280003E+02 -0.70565E-04
 0.60330006E+02 -0.79903E-04
 0.60380005E+02 -0.36319E-04
 0.60430004E+02  0.59412E-04
 0.60480003E+02  0.10048E-03
 0.60530003E+02  0.12695E-03
 0.60580006E+02  0.52149E-04
 0.60630005E+02 -0.37192E-04
 0.60680004E+02 -0.29612E-04
 0.60730003E+02  0.58866E-05
 0.60780003E+02  0.61044E-04
 0.60830006E+02  0.50228E-04
 0.60880005E+02 -0.27691E-04
 0.60930004E+02 -0.41619E-04
 0.60980003E+02  0.86203E-05
 0.61030003E+02  0.77698E-04
 0.61080006E+02  0.12913E-03
 0.61130005E+02  0.97853E-04
 0.61180004E+02 -0.14304E-04
 0.61230003E+02 -0.83071E-04
 0.61280003E+02 -0.91256E-04
 0.61330006E+02 -0.65544E-04
 0.61380005E+02 -0.14515E-04
 0.61430004E+02 -0.12409E-05
 0.61480003E+02 -0.11821E-04
 0.61530003E+02 -0.22690E-04
 0.61580006E+02 -0.28968E-04
 0.61630005E+02 -0.21095E-04
 0.61680004E+02  0.11951E-04
 0.61730003E+02  0.17732E-04
 0.61780003E+02 -0.11304E-04
 0.61830006E+02 -0.54244E-05
 0.61880005E+02  0.78753E-05
 0.61930004E+02  0.21853E-04
 0.61980003E+02  0.36244E-04
 0.62030003E+02  0.54900E-05
 0.62080006E+02 -0.47251E-04
 0.62130005E+02 -0.47669E-04
 0.62180004E+02  0.10525E-04
 0.62230003E+02  0.69902E-04
 0.62280003E+02  0.11173E-03
 0.62330006E+02  0.11981E-03
 0.62380005E+02  0.61122E-04
 0.62430004E+02 -0.18660E-04
 0.62480003E+02 -0.65489E-04
 0.62530003E+02 -0.10495E-03
 0.62580006E+02 -0.11380E-03
 0.62630005E+02 -0.77092E-04
 0.62680004E+02 -0.44010E-04
 0.62730003E+02  0.18461E-04
 0.62780003E+02  0.68636E-04
 0.62830006E+02  0.47119E-04
 0.62880005E+02  0.95976E-05
 0.62930004E+02 -0.40195E-04
 0.62980003E+02 -0.83741E-04
 0.63030003E+02 -0.69173E-04
 0.63080006E+02 -0.25334E-04
 0.63130005E+02 -0.28604E-04
 0.63180004E+02 -0.27613E-04
 0.63230003E+02  0.61204E-04
 0.63280003E+02  0.17712E-03
 0.63330006E+02  0.20618E-03
 0.63380005E+02  0.15247E-03
 0.63430004E+02  0.91796E-04
 0.63480003E+02 -0.16974E-04
 0.63530003E+02 -0.79558E-04
 0.63580006E+02 -0.25132E-04
 0.63630005E+02 -0.34255E-04
 0.63680004E+02 -0.93845E-04
 0.63730003E+02 -0.13108E-03
 0.63780003E+02 -0.17415E-03
 0.63830006E+02 -0.16082E-03
 0.63880005E+02 -0.44088E-04
 0.63930004E+02  0.10079E-03
 0.63980003E+02  0.16994E-03
 0.64030006E+02  0.17035E-03
 0.64080002E+02  0.12436E-03
 0.64130005E+02  0.63598E-04
 0.64180008E+02  0.22295E-04
 0.64230003E+02 -0.17186E-04
 0.64280006E+02 -0.57823E-04
 0.64330002E+02 -0.77944E-04
 0.64380005E+02 -0.63191E-04
 0.64430008E+02 -0.70144E-04
 0.64480003E+02 -0.85279E-04
 0.64530006E+02 -0.78009E-04
 0.64580002E+02 -0.56160E-04
 0.64630005E+02  0.13636E-06
 0.64680008E+02  0.59629E-04
 0.64730003E+02  0.10387E-03
 0.64780006E+02  0.86505E-04
 0.64830002E+02  0.31640E-04
 0.64880005E+02 -0.80954E-05
 0.64930008E+02 -0.56283E-04
 0.64980003E+02 -0.61130E-04
 0.65030006E+02 -0.21876E-04
 0.65080002E+02  0.98430E-05
 0.65130005E+02  0.31061E-04
 0.65180008E+02  0.23969E-04
 0.65230003E+02  0.14814E-04
 0.65280006E+02  0.47545E-05
 0.65330002E+02 -0.23232E-04
 0.65380005E+02 -0.30936E-04
 0.65430008E+02 -0.56700E-04
 0.65480003E+02 -0.58254E-04
 0.65530006E+02 -0.19046E-04
 0.65580002E+02  0.10819E-04
 0.65630005E+02  0.51826E-04
 0.65680008E+02  0.40036E-04
 0.65730003E+02  0.39411E-04
 0.65780006E+02  0.71100E-04
 0.65830002E+02  0.55127E-04
 0.65880005E+02  0.66771E-04
 0.65930008E+02  0.60265E-04
 0.65980003E+02 -0.19183E-04
 0.66030006E+02 -0.65421E-04
 0.66080002E+02 -0.71191E-04
 0.66130005E+02 -0.47707E-04
 0.66180008E+02  0.25462E-04
 0.66230003E+02  0.52945E-04
 0.66280006E+02  0.23892E-04
 0.66330002E+02  0.56262E-05
 0.66380005E+02  0.46291E-05
 0.66430008E+02  0.91124E-05
 0.66480003E+02 -0.20711E-04
 0.66530006E+02 -0.73461E-04
 0.66580002E+02 -0.96627E-04
 0.66630005E+02 -0.81981E-04
 0.66680008E+02 -0.30310E-04
 0.66730003E+02  0.23127E-04
 0.66780006E+02  0.16126E-04
 0.66830002E+02  0.40843E-05
 0.66880005E+02  0.21642E-04
 0.66930008E+02  0.38892E-04
 0.66980003E+02  0.70501E-04
 0.67030006E+02  0.63236E-04
 0.67080002E+02  0.18081E-04
 0.67130005E+02 -0.13296E-04
 0.67180008E+02 -0.40174E-04
 0.67230003E+02 -0.58199E-04
 0.67280006E+02 -0.66225E-04
 0.67330002E+02 -0.63233E-04
 0.67380005E+02 -0.19305E-04
 0.67430008E+02  0.81361E-04
 0.67480003E+02  0.13915E-03
 0.67530006E+02  0.10860E-03
 0.67580002E+02  0.66096E-04
 0.67630005E+02  0.98370E-05
 0.67680008E+02 -0.18267E-04
 0.67730003E+02 -0.51015E-05
 0.67780006E+02 -0.23556E-04
 0.67830002E+02 -0.50669E-04
 0.67880005E+02 -0.62846E-04
 0.67930008E+02 -0.74375E-04
 0.67980003E+02 -0.83762E-04
 0.68030006E+02 -0.68766E-04
 0.68080002E+02 -0.35648E-04
 0.68130005E+02 -0.23154E-05
 0.68180008E+02  0.22670E-04
 0.68230003E+02  0.29665E-04
 0.68280006E+02  0.19898E-04
 0.68330002E+02  0.11463E-04
 0.68380005E+02  0.42914E-04
 0.68430008E+02  0.80037E-04
 0.68480003E+02  0.80078E-04
 0.68530006E+02  0.57821E-04
 0.68580002E+02  0.21377E-05
 0.68630005E+02 -0.74340E-04
 0.68680008E+02 -0.11107E-03
 0.68730003E+02 -0.10752E-03
 0.68780006E+02 -0.80933E-04
 0.68830002E+02 -0.21399E-04
 0.68880005E+02  0.43909E-04
 0.68930008E+02  0.82114E-04
 0.68980003E+02  0.81448E-04
 0.69030006E+02  0.37728E-04
 0.69080002E+02  0.41975E-05
 0.69130005E+02  0.10167E-04
 0.69180008E+02  0.27544E-05
 0.69230003E+02  0.32982E-06
 0.69280006E+02  0.32943E-05
 0.69330002E+02  0.40661E-06
 0.69380005E+02  0.25677E-04
 0.69430008E+02  0.36804E-04
 0.69480003E+02  0.35652E-04
 0.69530006E+02  0.21519E-04
 0.69580002E+02 -0.22845E-04
 0.69630005E+02 -0.51077E-04
 0.69680008E+02 -0.67988E-04
 0.69730003E+02 -0.55696E-04
 0.69780006E+02 -0.16152E-04
 0.69830002E+02 -0.60748E-05
 0.69880005E+02  0.15138E-05
 0.69930008E+02  0.10592E-04
 0.69980003E+02  0.77048E-05
 0.70030006E+02  0.28346E-04
 0.70080002E+02  0.42800E-04
 0.70130005E+02  0.71109E-05
 0.70180008E+02 -0.28209E-04
 0.70230003E+02 -0.30436E-04
 0.70280006E+02 -0.10631E-04
 0.70330002E+02  0.14299E-04
 0.70380005E+02  0.25572E-04
 0.70430008E+02  0.64227E-04
 0.70480003E+02  0.87709E-04
 0.70530006E+02  0.74579E-04
 0.70580002E+02  0.72192E-04
 0.70630005E+02  0.26901E-04
 0.70680008E+02 -0.45039E-04
 0.70730003E+02 -0.92667E-04
 0.70780006E+02 -0.97601E-04
 0.70830002E+02 -0.65526E-04
 0.70880005E+02 -0.43772E-04
 0.70930008E+02 -0.28376E-04
 0.70980003E+02 -0.20006E-04
 0.71030006E+02 -0.17169E-04
 0.71080002E+02 -0.17277E-04
 0.71130005E+02 -0.35734E-04
 0.71180008E+02 -0.41586E-04
 0.71230003E+02 -0.13719E-04
 0.71280006E+02  0.29593E-04
 0.71330002E+02  0.41668E-04
 0.71380005E+02 -0.10734E-05
 0.71430008E+02 -0.30112E-04
 0.71480003E+02  0.67811E-05
 0.71530006E+02  0.74935E-04
 0.71580002E+02  0.12218E-03
 0.71630005E+02  0.10553E-03
 0.71680008E+02  0.17718E-04
 0.71730003E+02 -0.78094E-04
 0.71780006E+02 -0.11095E-03
 0.71830002E+02 -0.78896E-04
 0.71880005E+02 -0.19503E-04
 0.71930008E+02  0.15456E-04
 0.71980003E+02  0.33839E-04
 0.72030006E+02  0.81268E-04
 0.72080002E+02  0.11917E-03
 0.72130005E+02  0.11248E-03
 0.72180008E+02  0.72331E-04
 0.72230003E+02  0.72227E-05
 0.72280006E+02 -0.59160E-04
 0.72330002E+02 -0.63934E-04
 0.72380005E+02 -0.37823E-04
 0.72430008E+02 -0.49416E-04
 0.72480003E+02 -0.56368E-04
 0.72530006E+02 -0.52027E-04
 0.72580002E+02 -0.31053E-04
 0.72630005E+02  0.25586E-04
 0.72680008E+02  0.62109E-04
 0.72730003E+02  0.16961E-04
 0.72780006E+02 -0.45243E-04
 0.72830002E+02 -0.47003E-04
 0.72880005E+02 -0.35672E-04
 0.72930008E+02 -0.33548E-04
 0.72980003E+02 -0.37731E-04
 0.73030006E+02 -0.48794E-04
 0.73080002E+02 -0.42415E-04
 0.73130005E+02  0.46224E-06
 0.73180008E+02  0.44185E-04
 0.73230003E+02  0.44875E-04
 0.73280006E+02  0.92018E-05
 0.73330002E+02 -0.26013E-04
 0.73380005E+02 -0.86171E-05
 0.73430008E+02  0.37621E-04
 0.73480003E+02  0.68254E-04
 0.73530006E+02  0.69814E-04
 0.73580002E+02  0.40128E-04
 0.73630005E+02  0.15465E-04
 0.73680008E+02  0.13773E-04
 0.73730003E+02  0.25719E-04
 0.73780006E+02 -0.27070E-05
 0.73830002E+02 -0.57080E-04
 0.73880005E+02 -0.64652E-04
 0.73930008E+02 -0.47314E-04
 0.73980003E+02 -0.14721E-04
 0.74030006E+02  0.29578E-04
 0.74080002E+02  0.53750E-04
 0.74130005E+02  0.48096E-04
 0.74180008E+02  0.55644E-04
 0.74230003E+02  0.66628E-04
 0.74280006E+02  0.26125E-04
 0.74330002E+02 -0.12617E-04
 0.74380005E+02 -0.29279E-04
 0.74430008E+02 -0.41373E-04
 0.74480003E+02 -0.28464E-04
 0.74530006E+02 -0.24132E-04
 0.74580002E+02 -0.56771E-04
 0.74630005E+02 -0.88516E-04
 0.74680008E+02 -0.96162E-04
 0.74730003E+02 -0.75403E-04
 0.74780006E+02 -0.33068E-04
 0.74830002E+02  0.16421E-04
 0.74880005E+02  0.53664E-04
 0.74930008E+02  0.55926E-04
 0.74980003E+02  0.35206E-04
 0.75030006E+02 -0.74408E-05
 0.75080002E+02 -0.36610E-04
 0.75130005E+02 -0.15199E-05
 0.75180008E+02  0.67015E-04
 0.75230003E+02  0.11275E-03
 0.75280006E+02  0.10333E-03
 0.75330002E+02  0.52024E-04
 0.75380005E+02 -0.73233E-06
 0.75430008E+02 -0.23618E-04
 0.75480003E+02 -0.77866E-05
 0.75530006E+02  0.36092E-04
 0.75580002E+02  0.73137E-04
 0.75630005E+02  0.56887E-04
 0.75680008E+02 -0.19055E-05
 0.75730003E+02 -0.62230E-04
 0.75780006E+02 -0.10052E-03
 0.75830002E+02 -0.11045E-03
 0.75880005E+02 -0.10616E-03
 0.75930008E+02 -0.84743E-04
 0.75980003E+02 -0.53922E-04
 0.76030006E+02 -0.44028E-04
 0.76080002E+02 -0.38018E-04
 0.76130005E+02 -0.17387E-04
 0.76180008E+02  0.11368E-04
 0.76230003E+02  0.56045E-04
 0.76280006E+02  0.98301E-04
 0.76330002E+02  0.10819E-03
 0.76380005E+02  0.81187E-04
 0.76430008E+02  0.54743E-04
 0.76480003E+02  0.38678E-04
 0.76530006E+02  0.92570E-05
 0.76580002E+02 -0.12196E-04
 0.76630005E+02 -0.37360E-04
 0.76680008E+02 -0.60206E-04
 0.76730003E+02 -0.68286E-04
 0.76780006E+02 -0.72968E-04
 0.76830002E+02 -0.45874E-04
 0.76880005E+02 -0.46905E-05
 0.76930008E+02  0.34914E-04
 0.76980003E+02  0.86322E-04
 0.77030006E+02  0.11902E-03
 0.77080002E+02  0.10855E-03
 0.77130005E+02  0.67373E-04
 0.77180008E+02  0.87588E-05
 0.77230003E+02 -0.45607E-04
 0.77280006E+02 -0.72352E-04
 0.77330002E+02 -0.83156E-04
 0.77380005E+02 -0.87435E-04
 0.77430008E+02 -0.61599E-04
 0.77480003E+02 -0.15351E-04
 0.77530006E+02  0.26385E-04
 0.77580002E+02  0.52689E-04
 0.77630005E+02  0.43828E-04
 0.77680008E+02  0.24825E-04
 0.77730003E+02  0.88552E-05
 0.77780006E+02 -0.29942E-05
 0.77830002E+02  0.28460E-05
 0.77880005E+02 -0.97258E-05
 0.77930008E+02 -0.33261E-04
 0.77980003E+02 -0.38429E-04
 0.78030006E+02 -0.49723E-04
 0.78080002E+02 -0.62335E-04
 0.78130005E+02 -0.43594E-04
 0.78180008E+02 -0.93252E-05
 0.78230003E+02  0.23718E-04
 0.78280006E+02  0.71154E-04
 0.78330002E+02  0.10219E-03
 0.78380005E+02  0.10173E-03
 0.78430008E+02  0.77846E-04
 0.78480003E+02  0.27781E-04
 0.78530006E+02 -0.27633E-04
 0.78580002E+02 -0.45388E-04
 0.78630005E+02 -0.21297E-04
 0.78680008E+02 -0.26142E-04
 0.78730003E+02 -0.50731E-04
 0.78780006E+02 -0.64228E-04
 0.78830002E+02 -0.58558E-04
 0.78880005E+02 -0.19223E-04
 0.78930008E+02  0.57819E-05
 0.78980003E+02 -0.90545E-07
 0.79030006E+02 -0.18553E-04
 0.79080002E+02 -0.28979E-04
 0.79130005E+02 -0.15321E-04
 0.79180008E+02 -0.70087E-05
 0.79230003E+02 -0.65703E-05
 0.79280006E+02  0.78440E-06
 0.79330002E+02 -0.15849E-04
 0.79380005E+02 -0.28356E-04
 0.79430008E+02 -0.34349E-05
 0.79480003E+02  0.31536E-04
 0.79530006E+02  0.55114E-04
 0.79580002E+02  0.55374E-04
 0.79630005E+02  0.51748E-04
 0.79680008E+02  0.47715E-04
 0.79730003E+02  0.32316E-04
 0.79780006E+02  0.15953E-04
 0.79830002E+02  0.17776E-05
 0.79880005E+02 -0.35326E-05
 0.79930008E+02  0.21582E-04
 0.79980003E+02  0.56809E-04
 0.80030006E+02  0.42317E-04
 0.80080002E+02 -0.14002E-05
 0.80130005E+02 -0.26951E-04
 0.80180008E+02 -0.34543E-04
 0.80230003E+02 -0.23299E-04
 0.80280006E+02 -0.13293E-04
 0.80330002E+02 -0.66652E-05
 0.80380005E+02 -0.60987E-05
 0.80430008E+02 -0.85035E-05
 0.80480003E+02  0.55486E-05
 0.80530006E+02 -0.54010E-07
 0.80580002E+02 -0.11211E-04
 0.80630005E+02 -0.20723E-04
 0.80680008E+02 -0.31835E-04
 0.80730003E+02 -0.17145E-04
 0.80780006E+02 -0.21650E-05
 0.80830002E+02  0.14278E-04
 0.80880005E+02  0.85881E-05
 0.80930008E+02 -0.26063E-04
 0.80980003E+02 -0.38499E-04
 0.81030006E+02 -0.37496E-04
 0.81080002E+02 -0.35285E-04
 0.81130005E+02 -0.29697E-04
 0.81180008E+02 -0.17226E-04
 0.81230003E+02  0.32223E-05
 0.81280006E+02  0.18847E-04
 0.81330002E+02  0.42562E-04
 0.81380005E+02  0.54269E-04
 0.81430008E+02  0.52851E-04
 0.81480003E+02  0.56463E-04
 0.81530006E+02  0.32831E-04
 0.81580002E+02  0.82396E-05
 0.81630005E+02 -0.13106E-04
 0.81680008E+02 -0.46723E-04
 0.81730003E+02 -0.66445E-04
 0.81780006E+02 -0.77156E-04
 0.81830002E+02 -0.66475E-04
 0.81880005E+02 -0.39282E-04
 0.81930008E+02 -0.20284E-04
 0.81980003E+02 -0.13428E-04
 0.82030006E+02 -0.12822E-04
 0.82080002E+02  0.48167E-05
 0.82130005E+02  0.45776E-04
 0.82180008E+02  0.10020E-03
 0.82230003E+02  0.14603E-03
 0.82280006E+02  0.13754E-03
 0.82330002E+02  0.67656E-04
 0.82380005E+02  0.14110E-05
 0.82430008E+02 -0.35138E-04
 0.82480003E+02 -0.48316E-04
 0.82530006E+02 -0.43748E-04
 0.82580002E+02 -0.57658E-04
 0.82630005E+02 -0.86775E-04
 0.82680008E+02 -0.98143E-04
 0.82730003E+02 -0.72742E-04
 0.82780006E+02 -0.38277E-04
 0.82830002E+02  0.27742E-07
 0.82880005E+02  0.44731E-04
 0.82930008E+02  0.63739E-04
 0.82980003E+02  0.87367E-04
 0.83030006E+02  0.10507E-03
 0.83080002E+02  0.98134E-04
 0.83130005E+02  0.97164E-04
 0.83180008E+02  0.88135E-04
 0.83230003E+02  0.59457E-04
 0.83280006E+02  0.11407E-04
 0.83330002E+02 -0.44042E-04
 0.83380005E+02 -0.84515E-04
 0.83430008E+02 -0.11527E-03
 0.83480003E+02 -0.12211E-03
 0.83530006E+02 -0.10423E-03
 0.83580002E+02 -0.87770E-04
 0.83630005E+02 -0.54261E-04
 0.83680008E+02 -0.10872E-04
 0.83730003E+02  0.19599E-04
 0.83780006E+02  0.37856E-04
 0.83830002E+02  0.46579E-04
 0.83880005E+02  0.49891E-04
 0.83930008E+02  0.44835E-04
 0.83980003E+02  0.37438E-04
 0.84030006E+02  0.17454E-04
 0.84080002E+02 -0.13702E-04
 0.84130005E+02 -0.32882E-04
 0.84180008E+02 -0.51025E-04
 0.84230003E+02 -0.66655E-04
 0.84280006E+02 -0.68656E-04
 0.84330002E+02 -0.71805E-04
 0.84380005E+02 -0.57261E-04
 0.84430008E+02 -0.21014E-04
 0.84480003E+02  0.14783E-04
 0.84530006E+02  0.38625E-04
 0.84580002E+02  0.34743E-04
 0.84630005E+02  0.14579E-04
 0.84680008E+02  0.13946E-04
 0.84730003E+02  0.43352E-04
 0.84780006E+02  0.80608E-04
 0.84830002E+02  0.11173E-03
 0.84880005E+02  0.99161E-04
 0.84930008E+02  0.57476E-04
 0.84980003E+02  0.50656E-04
 0.85030006E+02  0.61725E-04
 0.85080002E+02  0.66437E-04
 0.85130005E+02  0.41895E-04
 0.85180008E+02 -0.20432E-04
 0.85230003E+02 -0.73958E-04
 0.85280006E+02 -0.93575E-04
 0.85330002E+02 -0.77054E-04
 0.85380005E+02 -0.55362E-04
 0.85430008E+02 -0.55093E-04
 0.85480003E+02 -0.61597E-04
 0.85530006E+02 -0.73291E-04
 0.85580002E+02 -0.67330E-04
 0.85630005E+02 -0.28906E-04
 0.85680008E+02  0.13738E-04
 0.85730003E+02  0.42397E-04
 0.85780006E+02  0.51928E-04
 0.85830002E+02  0.54492E-04
 0.85880005E+02  0.60695E-04
 0.85930008E+02  0.59541E-04
 0.85980003E+02  0.38262E-04
 0.86030006E+02 -0.32320E-05
 0.86080002E+02 -0.48719E-04
 0.86130005E+02 -0.71709E-04
 0.86180008E+02 -0.58745E-04
 0.86230003E+02 -0.38642E-04
 0.86280006E+02 -0.24460E-04
 0.86330002E+02 -0.90608E-06
 0.86380005E+02  0.17025E-04
 0.86430008E+02  0.26538E-04
 0.86480003E+02  0.27866E-04
 0.86530006E+02  0.19760E-04
 0.86580002E+02  0.35512E-04
 0.86630005E+02  0.60768E-04
 0.86680008E+02  0.63225E-04
 0.86730003E+02  0.42992E-04
 0.86780006E+02  0.21878E-05
 0.86830002E+02 -0.29896E-04
 0.86880005E+02 -0.30858E-04
 0.86930008E+02 -0.16390E-04
 0.86980003E+02 -0.10100E-04
 0.87030006E+02 -0.21590E-04
 0.87080002E+02 -0.51621E-04
 0.87130005E+02 -0.64670E-04
 0.87180008E+02 -0.45549E-04
 0.87230003E+02 -0.13872E-04
 0.87280006E+02  0.30115E-04
 0.87330002E+02  0.43207E-04
 0.87380005E+02  0.22498E-04
 0.87430008E+02  0.14371E-04
 0.87480003E+02  0.68472E-05
 0.87530006E+02 -0.77702E-05
 0.87580002E+02 -0.33052E-05
 0.87630005E+02  0.16784E-04
 0.87680008E+02  0.25411E-04
 0.87730003E+02  0.17885E-04
 0.87780006E+02 -0.85681E-05
 0.87830002E+02 -0.42347E-04
 0.87880005E+02 -0.50063E-04
 0.87930008E+02 -0.29431E-04
 0.87980003E+02 -0.95124E-05
 0.88030006E+02 -0.83099E-05
 0.88080002E+02 -0.21816E-04
 0.88130005E+02 -0.25573E-04
 0.88180008E+02 -0.27317E-05
 0.88230003E+02  0.28861E-04
 0.88280006E+02  0.46665E-04
 0.88330002E+02  0.33269E-04
 0.88380005E+02  0.11590E-04
 0.88430008E+02  0.73257E-05
 0.88480003E+02  0.12290E-04
 0.88530006E+02  0.34561E-04
 0.88580002E+02  0.50125E-04
 0.88630005E+02  0.31570E-04
 0.88680008E+02  0.84603E-05
 0.88730003E+02 -0.75479E-05
 0.88780006E+02 -0.22271E-04
 0.88830002E+02 -0.22092E-04
 0.88880005E+02 -0.29122E-04
 0.88930008E+02 -0.42418E-04
 0.88980003E+02 -0.34676E-04
 0.89030006E+02 -0.17931E-04
 0.89080002E+02  0.13213E-04
 0.89130005E+02  0.34150E-04
 0.89180008E+02  0.27923E-04
 0.89230003E+02  0.18371E-04
 0.89280006E+02 -0.12576E-05
 0.89330002E+02 -0.19728E-04
 0.89380005E+02 -0.27180E-04
 0.89430008E+02 -0.26038E-04
 0.89480003E+02 -0.18243E-04
 0.89530006E+02 -0.85290E-05
 0.89580002E+02  0.50764E-05
 0.89630005E+02  0.40145E-05
 0.89680008E+02 -0.89693E-05
 0.89730003E+02 -0.71104E-05
 0.89780006E+02  0.87387E-05
 0.89830002E+02  0.21564E-04
 0.89880005E+02  0.33580E-04
 0.89930008E+02  0.35426E-04
 0.89980003E+02  0.20813E-04
 0.90030006E+02  0.23510E-04
 0.90080002E+02  0.31728E-04
 0.90130005E+02  0.22393E-04
 0.90180008E+02  0.61460E-05
 0.90230003E+02 -0.13869E-04
 0.90280006E+02 -0.32320E-04
 0.90330002E+02 -0.38930E-04
 0.90380005E+02 -0.22053E-04
 0.90430008E+02 -0.77162E-05
 0.90480003E+02 -0.21191E-05
 0.90530006E+02  0.14032E-04
 0.90580002E+02  0.67783E-05
 0.90630005E+02 -0.12372E-04
 0.90680008E+02 -0.20936E-04
 0.90730003E+02 -0.30805E-04
 0.90780006E+02 -0.18457E-04
 0.90830002E+02  0.53039E-05
 0.90880005E+02  0.18056E-04
 0.90930008E+02  0.17449E-04
 0.90980003E+02 -0.10667E-05
 0.91030006E+02 -0.24657E-04
 0.91080002E+02 -0.38816E-04
 0.91130005E+02 -0.36304E-04
 0.91180008E+02 -0.19930E-04
 0.91230003E+02  0.29356E-05
 0.91280006E+02  0.37014E-04
 0.91330002E+02  0.80844E-04
 0.91380005E+02  0.87028E-04
 0.91430008E+02  0.52676E-04
 0.91480003E+02  0.76103E-05
 0.91530006E+02 -0.45710E-04
 0.91580002E+02 -0.62922E-04
 0.91630005E+02 -0.48908E-04
 0.91680008E+02 -0.44675E-04
 0.91730003E+02 -0.43102E-04
 0.91780006E+02 -0.37511E-04
 0.91830002E+02 -0.19403E-04
 0.91880005E+02  0.91997E-05
 0.91930008E+02  0.37514E-04
 0.91980003E+02  0.58997E-04
 0.92030006E+02  0.58076E-04
 0.92080002E+02  0.32839E-04
 0.92130005E+02  0.10658E-04
 0.92180008E+02  0.14359E-05
 0.92230003E+02 -0.16222E-05
 0.92280006E+02  0.32938E-05
 0.92330002E+02 -0.15267E-05
 0.92380005E+02 -0.15246E-04
 0.92430008E+02 -0.19354E-04
 0.92480003E+02 -0.12421E-04
 0.92530006E+02 -0.36847E-05
 0.92580002E+02 -0.26687E-05
 0.92630005E+02 -0.25452E-05
 0.92680008E+02 -0.37636E-06
 0.92730003E+02  0.97338E-05
 0.92780006E+02  0.30032E-04
 0.92830002E+02  0.40484E-04
 0.92880005E+02  0.30464E-04
 0.92930008E+02  0.17004E-04
 0.92980003E+02  0.16192E-04
 0.93030006E+02  0.81227E-05
 0.93080002E+02 -0.10888E-04
 0.93130005E+02 -0.24740E-04
 0.93180008E+02 -0.26542E-04
 0.93230003E+02 -0.14856E-04
 0.93280006E+02 -0.20028E-04
 0.93330002E+02 -0.41158E-04
 0.93380005E+02 -0.53881E-04
 0.93430008E+02 -0.50817E-04
 0.93480003E+02 -0.24896E-04
 0.93530006E+02  0.28968E-05
 0.93580002E+02  0.53131E-05
 0.93630005E+02 -0.10206E-04
 0.93680008E+02 -0.15882E-04
 0.93730003E+02 -0.10237E-04
 0.93780006E+02 -0.52360E-06
 0.93830002E+02  0.10337E-04
 0.93880005E+02  0.10168E-04
 0.93930008E+02  0.83988E-05
 0.93980003E+02  0.21512E-04
 0.94030006E+02  0.50993E-04
 0.94080002E+02  0.79592E-04
 0.94130005E+02  0.72214E-04
 0.94180008E+02  0.33388E-04
 0.94230003E+02 -0.90002E-05
 0.94280006E+02 -0.43154E-04
 0.94330002E+02 -0.41013E-04
 0.94380005E+02 -0.79339E-05
 0.94430008E+02  0.14823E-04
 0.94480003E+02  0.16628E-04
 0.94530006E+02  0.16562E-05
 0.94580002E+02 -0.14459E-04
 0.94630005E+02 -0.12146E-04
 0.94680008E+02  0.36047E-05
 0.94730003E+02  0.23971E-04
 0.94780006E+02  0.40413E-04
 0.94830002E+02  0.26188E-04
 0.94880005E+02 -0.70182E-05
 0.94930008E+02 -0.20882E-04
 0.94980003E+02 -0.33966E-04
 0.95030006E+02 -0.51669E-04
 0.95080002E+02 -0.47770E-04
 0.95130005E+02 -0.31747E-04
 0.95180008E+02 -0.22129E-04
 0.95230003E+02 -0.14452E-04
 0.95280006E+02 -0.89910E-05
 0.95330002E+02 -0.17445E-04
 0.95380005E+02 -0.11656E-04
 0.95430008E+02  0.19476E-04
 0.95480003E+02  0.40041E-04
 0.95530006E+02  0.40580E-04
 0.95580002E+02  0.22347E-04
 0.95630005E+02 -0.89045E-05
 0.95680008E+02 -0.27648E-04
 0.95730003E+02 -0.20975E-04
 0.95780006E+02  0.57483E-05
 0.95830002E+02  0.34794E-04
 0.95880005E+02  0.50409E-04
 0.95930008E+02  0.54618E-04
 0.95980003E+02  0.49771E-04
 0.96030006E+02  0.35540E-04
 0.96080002E+02  0.14058E-04
 0.96130005E+02 -0.12626E-04
 0.96180008E+02 -0.32255E-04
 0.96230003E+02 -0.30993E-04
 0.96280006E+02 -0.21077E-04
 0.96330002E+02 -0.21913E-04
 0.96380005E+02 -0.39458E-04
 0.96430008E+02 -0.59421E-04
 0.96480003E+02 -0.50775E-04
 0.96530006E+02 -0.21728E-04
 0.96580002E+02  0.43011E-05
 0.96630005E+02  0.23998E-04
 0.96680008E+02  0.25528E-04
 0.96730003E+02  0.16590E-04
 0.96780006E+02  0.13372E-04
 0.96830002E+02  0.13108E-04
 0.96880005E+02  0.13063E-04
 0.96930008E+02  0.87587E-05
 0.96980003E+02  0.10300E-05
 0.97030006E+02 -0.21018E-06
 0.97080002E+02  0.92099E-06
 0.97130005E+02 -0.10806E-05
 0.97180008E+02 -0.56014E-05
 0.97230003E+02 -0.18608E-04
 0.97280006E+02 -0.27326E-04
 0.97330002E+02 -0.20452E-04
 0.97380005E+02 -0.11595E-04
 0.97430008E+02 -0.98411E-05
 0.97480003E+02 -0.94731E-05
 0.97530006E+02 -0.36989E-05
 0.97580002E+02  0.10821E-04
 0.97630005E+02  0.33681E-04
 0.97680008E+02  0.48228E-04
 0.97730003E+02  0.39343E-04
 0.97780006E+02  0.22730E-04
 0.97830002E+02  0.16114E-04
 0.97880005E+02  0.21219E-04
 0.97930008E+02  0.30805E-04
 0.97980003E+02  0.24011E-04
 0.98030006E+02  0.50510E-05
 0.98080002E+02 -0.12586E-04
 0.98130005E+02 -0.34295E-04
 0.98180008E+02 -0.52961E-04
 0.98230003E+02 -0.55371E-04
 0.98280006E+02 -0.39062E-04
 0.98330002E+02 -0.18284E-04
 0.98380005E+02 -0.31750E-05
 0.98430008E+02  0.34212E-06
 0.98480003E+02 -0.12093E-04
 0.98530006E+02 -0.12535E-04
 0.98580002E+02  0.67838E-05
 0.98630005E+02  0.20118E-04
 0.98680008E+02  0.29193E-04
 0.98730003E+02  0.31074E-04
 0.98780006E+02  0.13710E-04
 0.98830002E+02 -0.20487E-05
 0.98880005E+02 -0.23801E-05
 0.98930008E+02  0.20656E-05
 0.98980003E+02  0.81938E-06
 0.99030006E+02 -0.95794E-05
 0.99080002E+02 -0.16599E-04
 0.99130005E+02 -0.10530E-04
 0.99180008E+02  0.37425E-05
 0.99230003E+02  0.14326E-04
 0.99280006E+02  0.16384E-04
 0.99330002E+02  0.11336E-04
 0.99380005E+02 -0.10884E-05
 0.99430008E+02 -0.16365E-04
 0.99480003E+02 -0.33822E-04
 0.99530006E+02 -0.41135E-04
 0.99580002E+02 -0.28750E-04
 0.99630005E+02 -0.61884E-06
 0.99680008E+02  0.26947E-04
 0.99730003E+02  0.34406E-04
 0.99780006E+02  0.29478E-04
 0.99830002E+02  0.20413E-04
 0.99880005E+02  0.11810E-04
 0.99930008E+02  0.54340E-05
 0.99980003E+02  0.27079E-05
