-0.19996643E-01 -0.39488E-05
 0.30003358E-01 -0.19735E-05
 0.80003358E-01 -0.56212E-06
 0.13000336E+00  0.64422E-06
 0.18000336E+00  0.12222E-05
 0.23000336E+00  0.12822E-05
 0.28000337E+00  0.15833E-05
 0.33000335E+00  0.13498E-05
 0.38000336E+00  0.92297E-06
 0.43000337E+00  0.11205E-05
 0.48000336E+00  0.11787E-05
 0.53000337E+00  0.10651E-05
 0.58000338E+00  0.77073E-06
 0.63000339E+00  0.46141E-06
 0.68000335E+00  0.43488E-06
 0.73000336E+00  0.10544E-06
 0.78000337E+00 -0.29772E-06
 0.83000338E+00 -0.29674E-06
 0.88000339E+00 -0.20689E-06
 0.93000335E+00 -0.25783E-06
 0.98000336E+00 -0.44123E-06
 0.10300034E+01 -0.67092E-06
 0.10800034E+01 -0.83371E-06
 0.11300033E+01 -0.91221E-06
 0.11800034E+01 -0.80236E-06
 0.12300034E+01 -0.78347E-06
 0.12800034E+01 -0.67173E-06
 0.13300034E+01 -0.62106E-06
 0.13800033E+01 -0.96927E-06
 0.14300034E+01 -0.89066E-06
 0.14800034E+01 -0.61958E-06
 0.15300034E+01 -0.27953E-06
 0.15800034E+01  0.26562E-06
 0.16300033E+01 -0.29245E-07
 0.16800034E+01 -0.72355E-06
 0.17300034E+01 -0.85635E-06
 0.17800034E+01 -0.58088E-06
 0.18300034E+01 -0.27342E-06
 0.18800033E+01 -0.12125E-06
 0.19300034E+01  0.21056E-06
 0.19800034E+01  0.22344E-06
 0.20300033E+01 -0.26656E-07
 0.20800035E+01  0.10015E-06
 0.21300035E+01  0.54741E-06
 0.21800034E+01  0.96132E-06
 0.22300034E+01  0.66714E-06
 0.22800033E+01  0.56282E-06
 0.23300035E+01  0.10053E-05
 0.23800035E+01  0.12147E-05
 0.24300034E+01  0.13012E-05
 0.24800034E+01  0.98150E-06
 0.25300033E+01  0.68563E-06
 0.25800035E+01  0.48465E-06
 0.26300035E+01  0.18645E-06
 0.26800034E+01  0.38848E-06
 0.27300034E+01  0.56778E-06
 0.27800033E+01  0.74122E-06
 0.28300035E+01  0.80009E-06
 0.28800035E+01  0.53834E-06
 0.29300034E+01  0.16894E-06
 0.29800034E+01 -0.16448E-06
 0.30300033E+01 -0.12987E-06
 0.30800035E+01 -0.58644E-06
 0.31300035E+01 -0.11352E-05
 0.31800034E+01 -0.98843E-06
 0.32300034E+01 -0.95525E-06
 0.32800033E+01 -0.90030E-06
 0.33300035E+01 -0.67511E-06
 0.33800035E+01 -0.48204E-06
 0.34300034E+01 -0.11775E-06
 0.34800034E+01 -0.13659E-06
 0.35300033E+01 -0.43274E-06
 0.35800035E+01 -0.40411E-06
 0.36300035E+01 -0.93736E-07
 0.36800034E+01  0.23884E-06
 0.37300034E+01 -0.24084E-06
 0.37800033E+01 -0.69300E-06
 0.38300035E+01 -0.13632E-06
 0.38800035E+01  0.23087E-06
 0.39300034E+01  0.17272E-06
 0.39800034E+01 -0.73412E-07
 0.40300035E+01 -0.62566E-06
 0.40800033E+01 -0.60425E-06
 0.41300035E+01  0.14258E-06
 0.41800036E+01  0.39402E-06
 0.42300034E+01  0.19071E-06
 0.42800035E+01  0.19890E-06
 0.43300033E+01  0.35841E-06
 0.43800035E+01  0.44269E-06
 0.44300036E+01  0.25864E-06
 0.44800034E+01 -0.97515E-08
 0.45300035E+01 -0.32846E-08
 0.45800033E+01  0.81606E-06
 0.46300035E+01  0.10826E-05
 0.46800036E+01  0.20775E-06
 0.47300034E+01  0.51343E-08
 0.47800035E+01 -0.11207E-06
 0.48300033E+01 -0.26196E-06
 0.48800035E+01  0.19441E-06
 0.49300036E+01  0.31639E-06
 0.49800034E+01  0.23724E-06
 0.50300035E+01  0.88878E-07
 0.50800033E+01  0.95428E-07
 0.51300035E+01  0.34753E-06
 0.51800036E+01  0.56263E-06
 0.52300034E+01  0.66136E-06
 0.52800035E+01  0.63947E-07
 0.53300033E+01 -0.16088E-06
 0.53800035E+01 -0.32197E-07
 0.54300036E+01 -0.14523E-06
 0.54800034E+01  0.18546E-06
 0.55300035E+01 -0.59904E-07
 0.55800033E+01 -0.75308E-06
 0.56300035E+01 -0.12129E-05
 0.56800036E+01 -0.15208E-05
 0.57300034E+01 -0.16025E-05
 0.57800035E+01 -0.15246E-05
 0.58300033E+01 -0.14111E-05
 0.58800035E+01 -0.16069E-05
 0.59300036E+01 -0.10831E-05
 0.59800034E+01 -0.32728E-06
 0.60300035E+01 -0.30861E-06
 0.60800033E+01 -0.12632E-06
 0.61300035E+01  0.30654E-06
 0.61800036E+01  0.75011E-06
 0.62300034E+01  0.95958E-06
 0.62800035E+01  0.12577E-05
 0.63300033E+01  0.15715E-05
 0.63800035E+01  0.17457E-05
 0.64300036E+01  0.19441E-05
 0.64800034E+01  0.17147E-05
 0.65300035E+01  0.13002E-05
 0.65800033E+01  0.10491E-05
 0.66300035E+01  0.89828E-06
 0.66800036E+01  0.77245E-06
 0.67300034E+01  0.52882E-06
 0.67800035E+01 -0.12841E-06
 0.68300033E+01 -0.44950E-06
 0.68800035E+01 -0.40562E-06
 0.69300036E+01 -0.39553E-06
 0.69800034E+01 -0.26200E-06
 0.70300035E+01 -0.99536E-06
 0.70800033E+01 -0.13403E-05
 0.71300035E+01 -0.62416E-06
 0.71800036E+01 -0.24988E-06
 0.72300034E+01 -0.23137E-06
 0.72800035E+01 -0.44292E-06
 0.73300033E+01 -0.62834E-06
 0.73800035E+01 -0.69838E-06
 0.74300036E+01 -0.81757E-06
 0.74800034E+01 -0.11580E-05
 0.75300035E+01 -0.11993E-05
 0.75800033E+01 -0.45516E-06
 0.76300035E+01  0.22350E-07
 0.76800036E+01 -0.46768E-07
 0.77300034E+01  0.54595E-07
 0.77800035E+01  0.41105E-06
 0.78300033E+01  0.88932E-06
 0.78800035E+01  0.77456E-06
 0.79300036E+01  0.44776E-06
 0.79800034E+01  0.89752E-06
 0.80300035E+01  0.98549E-06
 0.80800037E+01  0.36590E-06
 0.81300039E+01  0.10220E-06
 0.81800032E+01  0.39692E-06
 0.82300034E+01  0.19163E-06
 0.82800035E+01 -0.41033E-06
 0.83300037E+01 -0.80073E-07
 0.83800039E+01  0.54205E-06
 0.84300032E+01  0.49641E-06
 0.84800034E+01  0.34673E-06
 0.85300035E+01  0.40628E-06
 0.85800037E+01  0.16584E-06
 0.86300039E+01 -0.14243E-06
 0.86800032E+01 -0.23700E-06
 0.87300034E+01 -0.51464E-06
 0.87800035E+01 -0.69163E-06
 0.88300037E+01 -0.64114E-06
 0.88800039E+01 -0.63021E-06
 0.89300032E+01 -0.68461E-06
 0.89800034E+01 -0.82398E-06
 0.90300035E+01 -0.77421E-06
 0.90800037E+01 -0.83279E-06
 0.91300039E+01 -0.10136E-05
 0.91800032E+01 -0.89739E-06
 0.92300034E+01 -0.41349E-06
 0.92800035E+01  0.10550E-06
 0.93300037E+01  0.51002E-06
 0.93800039E+01  0.10104E-05
 0.94300032E+01  0.14315E-05
 0.94800034E+01  0.16452E-05
 0.95300035E+01  0.14272E-05
 0.95800037E+01  0.14064E-05
 0.96300039E+01  0.15169E-05
 0.96800032E+01  0.11749E-05
 0.97300034E+01  0.52821E-06
 0.97800035E+01  0.27078E-06
 0.98300037E+01  0.34348E-06
 0.98800039E+01 -0.20044E-06
 0.99300032E+01 -0.82942E-06
 0.99800034E+01 -0.16016E-05
 0.10030004E+02 -0.22129E-05
 0.10080004E+02 -0.21003E-05
 0.10130004E+02 -0.14638E-05
 0.10180003E+02 -0.59558E-06
 0.10230003E+02 -0.27634E-06
 0.10280004E+02 -0.57488E-06
 0.10330004E+02 -0.87525E-06
 0.10380004E+02 -0.44021E-06
 0.10430003E+02  0.20070E-06
 0.10480003E+02  0.59044E-06
 0.10530004E+02  0.80972E-06
 0.10580004E+02  0.50415E-06
 0.10630004E+02  0.16042E-06
 0.10680003E+02  0.24485E-06
 0.10730003E+02  0.77331E-06
 0.10780004E+02  0.13707E-05
 0.10830004E+02  0.11923E-05
 0.10880004E+02  0.33950E-06
 0.10930003E+02 -0.21960E-06
 0.10980003E+02 -0.44212E-06
 0.11030004E+02 -0.48872E-06
 0.11080004E+02 -0.36691E-06
 0.11130004E+02 -0.24217E-06
 0.11180003E+02 -0.31478E-07
 0.11230003E+02 -0.21803E-07
 0.11280004E+02 -0.16216E-06
 0.11330004E+02 -0.12831E-06
 0.11380004E+02  0.34625E-06
 0.11430003E+02  0.64273E-06
 0.11480003E+02  0.61420E-06
 0.11530004E+02  0.66696E-06
 0.11580004E+02  0.46023E-06
 0.11630004E+02  0.34012E-06
 0.11680003E+02  0.43982E-07
 0.11730003E+02  0.19220E-06
 0.11780004E+02  0.63544E-06
 0.11830004E+02  0.55927E-06
 0.11880004E+02  0.54204E-06
 0.11930003E+02  0.53668E-07
 0.11980003E+02 -0.18093E-06
 0.12030004E+02 -0.26212E-07
 0.12080004E+02 -0.29367E-06
 0.12130004E+02 -0.32918E-06
 0.12180003E+02 -0.17999E-06
 0.12230003E+02 -0.22653E-06
 0.12280004E+02  0.15389E-07
 0.12330004E+02  0.64450E-07
 0.12380004E+02 -0.58346E-06
 0.12430003E+02 -0.66466E-06
 0.12480003E+02 -0.38745E-06
 0.12530004E+02 -0.27023E-06
 0.12580004E+02 -0.24631E-06
 0.12630004E+02 -0.65931E-06
 0.12680003E+02 -0.12129E-05
 0.12730003E+02 -0.13453E-05
 0.12780004E+02 -0.85332E-06
 0.12830004E+02 -0.58444E-06
 0.12880004E+02 -0.51176E-06
 0.12930003E+02 -0.38497E-06
 0.12980003E+02 -0.43419E-06
 0.13030004E+02 -0.11552E-06
 0.13080004E+02  0.28115E-06
 0.13130004E+02  0.44080E-06
 0.13180003E+02  0.70314E-06
 0.13230003E+02  0.39628E-06
 0.13280004E+02 -0.32953E-06
 0.13330004E+02 -0.31086E-06
 0.13380004E+02  0.17462E-06
 0.13430003E+02  0.29294E-06
 0.13480003E+02 -0.60975E-07
 0.13530004E+02 -0.74147E-07
 0.13580004E+02  0.44566E-07
 0.13630004E+02  0.61704E-07
 0.13680003E+02  0.41819E-06
 0.13730003E+02  0.67981E-06
 0.13780004E+02  0.98118E-06
 0.13830004E+02  0.91662E-06
 0.13880004E+02  0.88092E-06
 0.13930003E+02  0.12920E-05
 0.13980003E+02  0.11469E-05
 0.14030004E+02  0.10518E-05
 0.14080004E+02  0.89709E-06
 0.14130004E+02  0.35744E-06
 0.14180003E+02  0.64046E-06
 0.14230003E+02  0.14431E-05
 0.14280004E+02  0.11582E-05
 0.14330004E+02  0.18195E-06
 0.14380004E+02 -0.14543E-06
 0.14430003E+02 -0.42664E-06
 0.14480003E+02 -0.53085E-06
 0.14530004E+02 -0.58256E-06
 0.14580004E+02 -0.10059E-05
 0.14630004E+02 -0.75563E-06
 0.14680003E+02 -0.86694E-06
 0.14730003E+02 -0.11852E-05
 0.14780004E+02 -0.94252E-06
 0.14830004E+02 -0.83354E-06
 0.14880004E+02 -0.47022E-06
 0.14930003E+02 -0.23970E-06
 0.14980003E+02 -0.36086E-06
 0.15030004E+02 -0.79192E-06
 0.15080004E+02 -0.11284E-05
 0.15130004E+02 -0.10254E-05
 0.15180003E+02 -0.10417E-05
 0.15230003E+02 -0.91823E-06
 0.15280004E+02 -0.72421E-06
 0.15330004E+02 -0.82705E-06
 0.15380004E+02 -0.88120E-06
 0.15430003E+02 -0.59356E-06
 0.15480003E+02 -0.10145E-06
 0.15530004E+02  0.23508E-06
 0.15580004E+02  0.10345E-08
 0.15630004E+02 -0.96525E-07
 0.15680003E+02  0.52684E-06
 0.15730003E+02  0.56256E-06
 0.15780004E+02  0.38719E-06
 0.15830004E+02  0.10972E-05
 0.15880004E+02  0.10247E-05
 0.15930003E+02  0.54380E-06
 0.15980003E+02  0.11362E-05
 0.16030005E+02  0.19739E-05
 0.16080004E+02  0.24112E-05
 0.16130003E+02  0.17827E-05
 0.16180004E+02  0.93853E-06
 0.16230003E+02  0.93694E-06
 0.16280005E+02  0.11509E-05
 0.16330004E+02  0.13444E-05
 0.16380003E+02  0.10926E-05
 0.16430004E+02  0.25440E-06
 0.16480003E+02 -0.56952E-06
 0.16530005E+02 -0.77629E-06
 0.16580004E+02 -0.43947E-06
 0.16630003E+02 -0.36916E-06
 0.16680004E+02 -0.59303E-06
 0.16730003E+02 -0.74120E-06
 0.16780005E+02 -0.65070E-06
 0.16830004E+02 -0.48656E-06
 0.16880003E+02 -0.99965E-06
 0.16930004E+02 -0.11097E-05
 0.16980003E+02 -0.18644E-06
 0.17030005E+02 -0.14790E-06
 0.17080004E+02 -0.89074E-06
 0.17130003E+02 -0.12406E-05
 0.17180004E+02 -0.11377E-05
 0.17230003E+02 -0.82196E-06
 0.17280005E+02 -0.64476E-06
 0.17330004E+02 -0.39997E-06
 0.17380003E+02 -0.21842E-06
 0.17430004E+02 -0.70082E-06
 0.17480003E+02 -0.10277E-05
 0.17530005E+02 -0.81026E-06
 0.17580004E+02 -0.88124E-06
 0.17630003E+02 -0.84081E-06
 0.17680004E+02 -0.71226E-06
 0.17730003E+02 -0.63160E-06
 0.17780005E+02 -0.75410E-07
 0.17830004E+02  0.42929E-06
 0.17880003E+02  0.40832E-06
 0.17930004E+02  0.55662E-06
 0.17980003E+02  0.11668E-05
 0.18030005E+02  0.14955E-05
 0.18080004E+02  0.12146E-05
 0.18130003E+02  0.82840E-06
 0.18180004E+02  0.62980E-06
 0.18230003E+02  0.53835E-06
 0.18280005E+02  0.81840E-06
 0.18330004E+02  0.87485E-06
 0.18380003E+02  0.10186E-05
 0.18430004E+02  0.13914E-05
 0.18480003E+02  0.11132E-05
 0.18530005E+02  0.13541E-05
 0.18580004E+02  0.15745E-05
 0.18630003E+02  0.13955E-05
 0.18680004E+02  0.14984E-05
 0.18730003E+02  0.74867E-06
 0.18780005E+02 -0.23686E-06
 0.18830004E+02 -0.73188E-06
 0.18880003E+02 -0.10839E-05
 0.18930004E+02 -0.14319E-05
 0.18980003E+02 -0.17202E-05
 0.19030005E+02 -0.15820E-05
 0.19080004E+02 -0.12977E-05
 0.19130003E+02 -0.10948E-05
 0.19180004E+02 -0.12312E-05
 0.19230003E+02 -0.10902E-05
 0.19280005E+02 -0.76144E-06
 0.19330004E+02 -0.82554E-06
 0.19380003E+02 -0.47022E-06
 0.19430004E+02  0.98852E-07
 0.19480003E+02  0.43635E-06
 0.19530005E+02  0.37215E-06
 0.19580004E+02  0.50721E-06
 0.19630003E+02  0.58857E-06
 0.19680004E+02  0.33192E-06
 0.19730003E+02  0.63504E-06
 0.19780005E+02  0.90681E-06
 0.19830004E+02  0.91456E-06
 0.19880003E+02  0.21215E-06
 0.19930004E+02 -0.66924E-06
 0.19980003E+02 -0.58351E-06
 0.20030005E+02 -0.54783E-06
 0.20080004E+02 -0.35017E-06
 0.20130003E+02 -0.44963E-07
 0.20180004E+02 -0.46518E-06
 0.20230003E+02 -0.74555E-06
 0.20280005E+02 -0.45443E-06
 0.20330004E+02  0.44291E-07
 0.20380003E+02  0.30676E-06
 0.20430004E+02  0.17297E-06
 0.20480003E+02  0.27380E-06
 0.20530005E+02  0.36871E-06
 0.20580004E+02 -0.20845E-06
 0.20630003E+02 -0.50884E-06
 0.20680004E+02 -0.41064E-06
 0.20730003E+02  0.86019E-07
 0.20780005E+02  0.24733E-06
 0.20830004E+02  0.91501E-06
 0.20880003E+02  0.30383E-05
 0.20930004E+02  0.68094E-05
 0.20980003E+02  0.12409E-04
 0.21030005E+02  0.16314E-04
 0.21080004E+02  0.17120E-04
 0.21130003E+02  0.10731E-04
 0.21180004E+02 -0.68166E-06
 0.21230003E+02 -0.24503E-04
 0.21280005E+02 -0.46274E-04
 0.21330004E+02 -0.38671E-04
 0.21380003E+02  0.12880E-05
 0.21430004E+02  0.41074E-04
 0.21480003E+02  0.23507E-04
 0.21530005E+02 -0.19217E-04
 0.21580004E+02 -0.29463E-04
 0.21630003E+02  0.30730E-04
 0.21680004E+02  0.61506E-04
 0.21730003E+02 -0.10626E-04
 0.21780005E+02 -0.57685E-04
 0.21830004E+02 -0.63460E-05
 0.21880003E+02  0.54438E-04
 0.21930004E+02  0.28630E-05
 0.21980003E+02 -0.64014E-04
 0.22030005E+02 -0.50239E-04
 0.22080004E+02  0.58554E-04
 0.22130003E+02  0.12427E-03
 0.22180004E+02  0.14454E-04
 0.22230003E+02 -0.94270E-04
 0.22280005E+02 -0.61703E-04
 0.22330004E+02  0.42099E-04
 0.22380003E+02  0.52894E-04
 0.22430004E+02 -0.59573E-04
 0.22480003E+02 -0.95376E-04
 0.22530005E+02  0.53547E-04
 0.22580004E+02  0.14315E-03
 0.22630003E+02  0.43209E-04
 0.22680004E+02 -0.13408E-03
 0.22730003E+02 -0.19029E-03
 0.22780005E+02 -0.48725E-04
 0.22830004E+02  0.65965E-04
 0.22880003E+02  0.41822E-04
 0.22930004E+02 -0.52413E-04
 0.22980003E+02 -0.44852E-04
 0.23030005E+02  0.12115E-03
 0.23080004E+02  0.17297E-03
 0.23130003E+02  0.26858E-04
 0.23180004E+02 -0.11954E-03
 0.23230003E+02 -0.13892E-03
 0.23280005E+02 -0.20524E-04
 0.23330004E+02  0.10134E-03
 0.23380003E+02  0.87461E-04
 0.23430004E+02 -0.40853E-04
 0.23480003E+02 -0.40579E-04
 0.23530005E+02  0.93133E-04
 0.23580004E+02  0.96193E-04
 0.23630003E+02 -0.27489E-04
 0.23680004E+02 -0.14819E-03
 0.23730003E+02 -0.14416E-03
 0.23780005E+02  0.90542E-05
 0.23830004E+02  0.95335E-04
 0.23880003E+02  0.11404E-04
 0.23930004E+02 -0.60528E-04
 0.23980003E+02  0.31323E-05
 0.24030005E+02  0.15066E-03
 0.24080004E+02  0.12832E-03
 0.24130003E+02 -0.10311E-03
 0.24180004E+02 -0.11614E-03
 0.24230003E+02  0.10430E-03
 0.24280005E+02  0.15893E-03
 0.24330004E+02  0.12569E-04
 0.24380003E+02 -0.73125E-04
 0.24430004E+02  0.40109E-04
 0.24480003E+02  0.10988E-03
 0.24530005E+02 -0.87894E-05
 0.24580004E+02 -0.11584E-03
 0.24630003E+02 -0.11918E-03
 0.24680004E+02 -0.12074E-04
 0.24730003E+02  0.73509E-04
 0.24780005E+02 -0.27186E-04
 0.24830004E+02 -0.12636E-03
 0.24880003E+02 -0.30042E-04
 0.24930004E+02  0.99223E-04
 0.24980003E+02  0.38729E-04
 0.25030005E+02 -0.65812E-04
 0.25080004E+02 -0.69016E-04
 0.25130003E+02 -0.33103E-04
 0.25180004E+02  0.93554E-04
 0.25230003E+02  0.88863E-04
 0.25280005E+02 -0.86465E-04
 0.25330004E+02 -0.48887E-04
 0.25380003E+02  0.10659E-03
 0.25430004E+02  0.62862E-04
 0.25480003E+02 -0.84185E-04
 0.25530005E+02 -0.94453E-04
 0.25580004E+02  0.44040E-06
 0.25630003E+02  0.68477E-04
 0.25680004E+02  0.58165E-04
 0.25730003E+02 -0.17538E-04
 0.25780005E+02 -0.89788E-04
 0.25830004E+02 -0.11927E-03
 0.25880003E+02 -0.10857E-03
 0.25930004E+02 -0.37277E-04
 0.25980003E+02  0.80153E-04
 0.26030005E+02  0.17587E-03
 0.26080004E+02  0.16187E-03
 0.26130003E+02  0.10556E-03
 0.26180004E+02  0.65442E-04
 0.26230003E+02 -0.11412E-03
 0.26280005E+02 -0.16784E-03
 0.26330004E+02  0.19155E-05
 0.26380003E+02  0.44007E-04
 0.26430004E+02 -0.55607E-05
 0.26480003E+02 -0.86938E-05
 0.26530005E+02  0.78609E-04
 0.26580004E+02  0.10983E-03
 0.26630003E+02 -0.41216E-04
 0.26680004E+02 -0.16676E-03
 0.26730003E+02 -0.18738E-03
 0.26780005E+02 -0.11995E-03
 0.26830004E+02  0.57866E-04
 0.26880003E+02  0.11608E-03
 0.26930004E+02 -0.23227E-04
 0.26980003E+02 -0.42657E-04
 0.27030005E+02  0.10347E-03
 0.27080004E+02  0.13615E-03
 0.27130003E+02  0.49532E-04
 0.27180004E+02 -0.43857E-04
 0.27230003E+02 -0.68264E-04
 0.27280005E+02  0.49580E-04
 0.27330004E+02  0.66492E-04
 0.27380003E+02 -0.28519E-04
 0.27430004E+02  0.48095E-04
 0.27480003E+02  0.15776E-03
 0.27530005E+02  0.65248E-04
 0.27580004E+02 -0.78024E-04
 0.27630003E+02 -0.12923E-03
 0.27680004E+02 -0.13157E-03
 0.27730003E+02 -0.24522E-04
 0.27780005E+02  0.14724E-04
 0.27830004E+02 -0.11938E-03
 0.27880003E+02 -0.20204E-03
 0.27930004E+02 -0.14338E-04
 0.27980003E+02  0.28685E-03
 0.28030005E+02  0.19653E-03
 0.28080004E+02 -0.56516E-04
 0.28130003E+02 -0.97614E-04
 0.28180004E+02 -0.77205E-05
 0.28230003E+02  0.22258E-04
 0.28280005E+02 -0.16091E-03
 0.28330004E+02 -0.18099E-03
 0.28380003E+02  0.18143E-04
 0.28430004E+02  0.13351E-03
 0.28480003E+02  0.22920E-03
 0.28530005E+02  0.18396E-03
 0.28580004E+02  0.30355E-05
 0.28630003E+02 -0.53990E-04
 0.28680004E+02 -0.26314E-04
 0.28730003E+02  0.16281E-04
 0.28780005E+02  0.68258E-04
 0.28830004E+02  0.58753E-04
 0.28880003E+02  0.54258E-04
 0.28930004E+02  0.11403E-03
 0.28980003E+02  0.81477E-04
 0.29030005E+02 -0.35967E-04
 0.29080004E+02 -0.17964E-03
 0.29130003E+02 -0.32458E-03
 0.29180004E+02 -0.26715E-03
 0.29230003E+02 -0.81113E-04
 0.29280005E+02 -0.14848E-04
 0.29330004E+02 -0.64980E-05
 0.29380003E+02  0.50890E-04
 0.29430004E+02  0.90068E-04
 0.29480003E+02  0.31428E-04
 0.29530005E+02 -0.14072E-03
 0.29580004E+02 -0.18489E-03
 0.29630003E+02  0.37589E-04
 0.29680004E+02  0.19046E-03
 0.29730003E+02  0.16760E-03
 0.29780005E+02  0.10837E-03
 0.29830004E+02  0.35567E-04
 0.29880003E+02  0.13361E-04
 0.29930004E+02  0.38640E-05
 0.29980003E+02 -0.43981E-04
 0.30030005E+02 -0.74816E-04
 0.30080004E+02 -0.33353E-05
 0.30130003E+02  0.19621E-03
 0.30180004E+02  0.20378E-03
 0.30230003E+02 -0.21091E-04
 0.30280005E+02 -0.10013E-03
 0.30330004E+02 -0.11142E-03
 0.30380003E+02 -0.77936E-04
 0.30430004E+02  0.50634E-04
 0.30480003E+02  0.45246E-04
 0.30530005E+02  0.63269E-04
 0.30580004E+02  0.19300E-03
 0.30630003E+02  0.16397E-03
 0.30680004E+02 -0.21582E-04
 0.30730003E+02 -0.15881E-03
 0.30780005E+02 -0.96057E-04
 0.30830004E+02 -0.73106E-04
 0.30880003E+02 -0.22439E-03
 0.30930004E+02 -0.15272E-03
 0.30980003E+02  0.10640E-03
 0.31030005E+02  0.23614E-03
 0.31080004E+02  0.17265E-03
 0.31130003E+02  0.12772E-04
 0.31180004E+02 -0.15701E-03
 0.31230003E+02 -0.29383E-03
 0.31280005E+02 -0.24862E-03
 0.31330004E+02 -0.16175E-03
 0.31380003E+02 -0.13859E-03
 0.31430004E+02  0.34895E-04
 0.31480003E+02  0.24177E-03
 0.31530005E+02  0.25354E-03
 0.31580004E+02  0.16300E-03
 0.31630003E+02  0.75127E-04
 0.31680004E+02  0.83884E-04
 0.31730003E+02  0.14029E-03
 0.31780005E+02  0.86100E-04
 0.31830004E+02  0.23198E-04
 0.31880003E+02 -0.40832E-04
 0.31930004E+02 -0.14917E-04
 0.31980003E+02  0.13945E-03
 0.32030003E+02  0.11148E-03
 0.32080006E+02 -0.11921E-03
 0.32130005E+02 -0.33542E-03
 0.32180004E+02 -0.35412E-03
 0.32230003E+02 -0.15369E-03
 0.32280003E+02  0.45596E-04
 0.32330006E+02  0.26166E-04
 0.32380005E+02 -0.15400E-03
 0.32430004E+02 -0.13801E-03
 0.32480003E+02  0.10635E-03
 0.32530003E+02  0.17995E-03
 0.32580006E+02  0.56811E-05
 0.32630005E+02 -0.20749E-03
 0.32680004E+02 -0.12642E-03
 0.32730003E+02  0.17792E-03
 0.32780003E+02  0.25464E-03
 0.32830006E+02  0.17852E-03
 0.32880005E+02  0.39972E-04
 0.32930004E+02 -0.32156E-04
 0.32980003E+02  0.31283E-04
 0.33030003E+02 -0.25822E-04
 0.33080006E+02 -0.61048E-04
 0.33130005E+02  0.24897E-04
 0.33180004E+02  0.53869E-04
 0.33230003E+02  0.34403E-04
 0.33280003E+02  0.60130E-04
 0.33330006E+02  0.14868E-03
 0.33380005E+02  0.15192E-03
 0.33430004E+02  0.62973E-04
 0.33480003E+02 -0.10240E-04
 0.33530003E+02 -0.59198E-04
 0.33580006E+02 -0.28700E-04
 0.33630005E+02 -0.60890E-04
 0.33680004E+02 -0.94907E-04
 0.33730003E+02  0.45580E-04
 0.33780003E+02  0.70641E-04
 0.33830006E+02 -0.10780E-03
 0.33880005E+02 -0.19703E-03
 0.33930004E+02 -0.94864E-04
 0.33980003E+02  0.25018E-04
 0.34030003E+02  0.52920E-04
 0.34080006E+02  0.44708E-04
 0.34130005E+02  0.15817E-04
 0.34180004E+02 -0.48666E-04
 0.34230003E+02 -0.11181E-03
 0.34280003E+02 -0.13531E-03
 0.34330006E+02 -0.16645E-03
 0.34380005E+02 -0.23525E-03
 0.34430004E+02 -0.18980E-03
 0.34480003E+02 -0.16570E-04
 0.34530003E+02  0.58257E-04
 0.34580006E+02  0.12013E-03
 0.34630005E+02  0.19774E-03
 0.34680004E+02  0.15089E-03
 0.34730003E+02  0.17538E-03
 0.34780003E+02  0.26346E-03
 0.34830006E+02  0.27928E-03
 0.34880005E+02  0.25090E-03
 0.34930004E+02  0.17704E-03
 0.34980003E+02  0.98959E-04
 0.35030003E+02 -0.38615E-05
 0.35080006E+02 -0.13011E-03
 0.35130005E+02 -0.16829E-03
 0.35180004E+02 -0.13988E-03
 0.35230003E+02 -0.14257E-03
 0.35280003E+02 -0.19170E-03
 0.35330006E+02 -0.13175E-03
 0.35380005E+02  0.56365E-04
 0.35430004E+02  0.89554E-04
 0.35480003E+02 -0.36901E-04
 0.35530003E+02 -0.19908E-03
 0.35580006E+02 -0.36928E-03
 0.35630005E+02 -0.34955E-03
 0.35680004E+02 -0.79124E-04
 0.35730003E+02  0.88665E-04
 0.35780003E+02  0.10112E-03
 0.35830006E+02  0.21558E-03
 0.35880005E+02  0.34333E-03
 0.35930004E+02  0.31599E-03
 0.35980003E+02  0.11559E-03
 0.36030003E+02 -0.40169E-04
 0.36080006E+02 -0.58643E-04
 0.36130005E+02 -0.13008E-04
 0.36180004E+02  0.79939E-04
 0.36230003E+02  0.10084E-03
 0.36280003E+02  0.12951E-03
 0.36330006E+02  0.11622E-03
 0.36380005E+02 -0.11630E-03
 0.36430004E+02 -0.30837E-03
 0.36480003E+02 -0.27574E-03
 0.36530003E+02 -0.20675E-03
 0.36580006E+02 -0.22391E-03
 0.36630005E+02 -0.12678E-03
 0.36680004E+02  0.12122E-03
 0.36730003E+02  0.18674E-03
 0.36780003E+02  0.12927E-03
 0.36830006E+02  0.47654E-04
 0.36880005E+02 -0.21654E-03
 0.36930004E+02 -0.43825E-03
 0.36980003E+02 -0.37840E-03
 0.37030003E+02 -0.10317E-03
 0.37080006E+02  0.60270E-04
 0.37130005E+02 -0.13535E-03
 0.37180004E+02 -0.48955E-03
 0.37230003E+02 -0.67173E-03
 0.37280003E+02 -0.56013E-03
 0.37330006E+02 -0.26404E-03
 0.37380005E+02  0.19467E-03
 0.37430004E+02  0.64705E-03
 0.37480003E+02  0.88546E-03
 0.37530003E+02  0.11823E-02
 0.37580006E+02  0.14619E-02
 0.37630005E+02  0.12468E-02
 0.37680004E+02  0.73550E-03
 0.37730003E+02  0.41957E-03
 0.37780003E+02  0.14902E-03
 0.37830006E+02 -0.30741E-03
 0.37880005E+02 -0.53549E-03
 0.37930004E+02 -0.43290E-03
 0.37980003E+02 -0.37472E-03
 0.38030003E+02 -0.46618E-03
 0.38080006E+02 -0.56682E-03
 0.38130005E+02 -0.51063E-03
 0.38180004E+02 -0.32688E-03
 0.38230003E+02 -0.28150E-04
 0.38280003E+02  0.30019E-03
 0.38330006E+02  0.49390E-03
 0.38380005E+02  0.26812E-03
 0.38430004E+02 -0.41974E-03
 0.38480003E+02 -0.80791E-03
 0.38530003E+02 -0.60473E-03
 0.38580006E+02 -0.31468E-03
 0.38630005E+02 -0.96768E-04
 0.38680004E+02  0.13788E-03
 0.38730003E+02  0.18595E-03
 0.38780003E+02  0.30169E-03
 0.38830006E+02  0.80102E-03
 0.38880005E+02  0.10173E-02
 0.38930004E+02  0.85700E-03
 0.38980003E+02  0.67329E-03
 0.39030003E+02  0.31289E-03
 0.39080006E+02 -0.28478E-04
 0.39130005E+02 -0.13521E-03
 0.39180004E+02 -0.24834E-03
 0.39230003E+02 -0.69458E-03
 0.39280003E+02 -0.12703E-02
 0.39330006E+02 -0.16123E-02
 0.39380005E+02 -0.15399E-02
 0.39430004E+02 -0.84015E-03
 0.39480003E+02 -0.20670E-03
 0.39530003E+02 -0.29194E-03
 0.39580006E+02 -0.42640E-03
 0.39630005E+02 -0.13812E-03
 0.39680004E+02  0.37608E-03
 0.39730003E+02  0.99821E-03
 0.39780003E+02  0.12978E-02
 0.39830006E+02  0.84049E-03
 0.39880005E+02  0.43864E-03
 0.39930004E+02  0.72524E-03
 0.39980003E+02  0.95530E-03
 0.40030003E+02  0.73021E-03
 0.40080006E+02 -0.11428E-03
 0.40130005E+02 -0.10640E-02
 0.40180004E+02 -0.10647E-02
 0.40230003E+02 -0.61684E-03
 0.40280003E+02 -0.11739E-03
 0.40330006E+02  0.31400E-03
 0.40380005E+02  0.35209E-03
 0.40430004E+02  0.44564E-03
 0.40480003E+02  0.59323E-03
 0.40530003E+02  0.59154E-03
 0.40580006E+02  0.50804E-03
 0.40630005E+02  0.30575E-03
 0.40680004E+02 -0.12732E-03
 0.40730003E+02 -0.87501E-03
 0.40780003E+02 -0.13713E-02
 0.40830006E+02 -0.11592E-02
 0.40880005E+02 -0.67266E-03
 0.40930004E+02 -0.27563E-03
 0.40980003E+02 -0.26018E-03
 0.41030003E+02 -0.53188E-03
 0.41080006E+02 -0.38632E-03
 0.41130005E+02  0.13334E-04
 0.41180004E+02  0.37773E-03
 0.41230003E+02  0.72474E-03
 0.41280003E+02  0.65895E-03
 0.41330006E+02  0.44600E-03
 0.41380005E+02  0.48266E-03
 0.41430004E+02  0.61090E-03
 0.41480003E+02  0.66623E-03
 0.41530003E+02  0.16775E-03
 0.41580006E+02 -0.43484E-03
 0.41630005E+02 -0.17998E-03
 0.41680004E+02  0.60660E-03
 0.41730003E+02  0.12959E-02
 0.41780003E+02  0.13826E-02
 0.41830006E+02  0.10561E-02
 0.41880005E+02  0.78609E-03
 0.41930004E+02  0.34466E-03
 0.41980003E+02 -0.11822E-03
 0.42030003E+02 -0.30789E-03
 0.42080006E+02 -0.55338E-03
 0.42130005E+02 -0.86146E-03
 0.42180004E+02 -0.99232E-03
 0.42230003E+02 -0.11937E-02
 0.42280003E+02 -0.11970E-02
 0.42330006E+02 -0.91432E-03
 0.42380005E+02 -0.62479E-03
 0.42430004E+02 -0.15685E-03
 0.42480003E+02  0.13381E-03
 0.42530003E+02 -0.49605E-04
 0.42580006E+02 -0.32693E-03
 0.42630005E+02 -0.29518E-03
 0.42680004E+02 -0.25512E-04
 0.42730003E+02 -0.36107E-04
 0.42780003E+02 -0.53296E-03
 0.42830006E+02 -0.90682E-03
 0.42880005E+02 -0.41971E-03
 0.42930004E+02  0.48502E-03
 0.42980003E+02  0.10712E-02
 0.43030003E+02  0.12410E-02
 0.43080006E+02  0.80380E-03
 0.43130005E+02  0.30667E-03
 0.43180004E+02  0.34565E-03
 0.43230003E+02  0.27682E-03
 0.43280003E+02 -0.19648E-03
 0.43330006E+02 -0.68504E-03
 0.43380005E+02 -0.87540E-03
 0.43430004E+02 -0.57987E-03
 0.43480003E+02 -0.75660E-04
 0.43530003E+02  0.42381E-03
 0.43580006E+02  0.89435E-03
 0.43630005E+02  0.91627E-03
 0.43680004E+02  0.52745E-03
 0.43730003E+02  0.27522E-03
 0.43780003E+02  0.66371E-04
 0.43830006E+02 -0.23952E-03
 0.43880005E+02 -0.29850E-03
 0.43930004E+02 -0.45052E-03
 0.43980003E+02 -0.69498E-03
 0.44030003E+02 -0.65625E-03
 0.44080006E+02 -0.68076E-03
 0.44130005E+02 -0.44679E-03
 0.44180004E+02  0.22754E-03
 0.44230003E+02  0.80264E-03
 0.44280003E+02  0.91919E-03
 0.44330006E+02  0.67125E-03
 0.44380005E+02  0.61096E-03
 0.44430004E+02  0.85079E-03
 0.44480003E+02  0.99794E-03
 0.44530003E+02  0.47448E-03
 0.44580006E+02 -0.63872E-03
 0.44630005E+02 -0.12522E-02
 0.44680004E+02 -0.10419E-02
 0.44730003E+02 -0.69630E-03
 0.44780003E+02 -0.57612E-03
 0.44830006E+02 -0.62978E-03
 0.44880005E+02 -0.48073E-03
 0.44930004E+02  0.18025E-03
 0.44980003E+02  0.81709E-03
 0.45030003E+02  0.86721E-03
 0.45080006E+02  0.64029E-03
 0.45130005E+02  0.58175E-03
 0.45180004E+02  0.37847E-03
 0.45230003E+02 -0.29578E-03
 0.45280003E+02 -0.84403E-03
 0.45330006E+02 -0.76781E-03
 0.45380005E+02 -0.22036E-03
 0.45430004E+02  0.39246E-03
 0.45480003E+02  0.68606E-03
 0.45530003E+02  0.74652E-03
 0.45580006E+02  0.68564E-03
 0.45630005E+02  0.56210E-03
 0.45680004E+02  0.41911E-03
 0.45730003E+02  0.15175E-03
 0.45780003E+02 -0.40116E-03
 0.45830006E+02 -0.12484E-02
 0.45880005E+02 -0.18837E-02
 0.45930004E+02 -0.20278E-02
 0.45980003E+02 -0.17936E-02
 0.46030003E+02 -0.14180E-02
 0.46080006E+02 -0.81088E-03
 0.46130005E+02  0.76965E-04
 0.46180004E+02  0.80312E-03
 0.46230003E+02  0.12734E-02
 0.46280003E+02  0.14782E-02
 0.46330006E+02  0.13980E-02
 0.46380005E+02  0.10345E-02
 0.46430004E+02  0.68616E-03
 0.46480003E+02  0.57622E-03
 0.46530003E+02  0.28404E-03
 0.46580006E+02 -0.13568E-03
 0.46630005E+02 -0.33575E-03
 0.46680004E+02 -0.35167E-03
 0.46730003E+02 -0.16493E-04
 0.46780003E+02  0.64439E-03
 0.46830006E+02  0.94669E-03
 0.46880005E+02  0.77520E-03
 0.46930004E+02  0.52025E-03
 0.46980003E+02  0.28119E-03
 0.47030003E+02  0.10199E-04
 0.47080006E+02 -0.24381E-03
 0.47130005E+02 -0.36893E-03
 0.47180004E+02 -0.72843E-03
 0.47230003E+02 -0.12413E-02
 0.47280003E+02 -0.12448E-02
 0.47330006E+02 -0.85311E-03
 0.47380005E+02 -0.43856E-03
 0.47430004E+02 -0.11887E-03
 0.47480003E+02 -0.85000E-04
 0.47530003E+02 -0.26038E-03
 0.47580006E+02 -0.25418E-03
 0.47630005E+02  0.10648E-04
 0.47680004E+02  0.25614E-03
 0.47730003E+02  0.24813E-03
 0.47780003E+02  0.81136E-04
 0.47830006E+02  0.18416E-03
 0.47880005E+02  0.63391E-03
 0.47930004E+02  0.96662E-03
 0.47980003E+02  0.98272E-03
 0.48030003E+02  0.10090E-02
 0.48080006E+02  0.96728E-03
 0.48130005E+02  0.49477E-03
 0.48180004E+02 -0.16153E-03
 0.48230003E+02 -0.71602E-03
 0.48280003E+02 -0.10945E-02
 0.48330006E+02 -0.11077E-02
 0.48380005E+02 -0.87454E-03
 0.48430004E+02 -0.67028E-03
 0.48480003E+02 -0.23451E-03
 0.48530003E+02  0.53488E-03
 0.48580006E+02  0.11138E-02
 0.48630005E+02  0.10995E-02
 0.48680004E+02  0.67491E-03
 0.48730003E+02  0.14632E-03
 0.48780003E+02 -0.46226E-03
 0.48830006E+02 -0.90332E-03
 0.48880005E+02 -0.92716E-03
 0.48930004E+02 -0.70933E-03
 0.48980003E+02 -0.58479E-03
 0.49030003E+02 -0.48173E-03
 0.49080006E+02 -0.16574E-03
 0.49130005E+02  0.16199E-03
 0.49180004E+02  0.27531E-03
 0.49230003E+02  0.32407E-03
 0.49280003E+02  0.51210E-03
 0.49330006E+02  0.62112E-03
 0.49380005E+02  0.51698E-03
 0.49430004E+02  0.40649E-03
 0.49480003E+02  0.32194E-03
 0.49530003E+02  0.14376E-03
 0.49580006E+02 -0.11854E-03
 0.49630005E+02 -0.46521E-03
 0.49680004E+02 -0.85673E-03
 0.49730003E+02 -0.10037E-02
 0.49780003E+02 -0.74734E-03
 0.49830006E+02 -0.32156E-03
 0.49880005E+02 -0.22855E-06
 0.49930004E+02  0.17850E-03
 0.49980003E+02  0.28773E-03
 0.50030003E+02  0.33245E-03
 0.50080006E+02  0.30866E-03
 0.50130005E+02  0.39647E-03
 0.50180004E+02  0.47814E-03
 0.50230003E+02  0.19981E-03
 0.50280003E+02 -0.25710E-03
 0.50330006E+02 -0.48709E-03
 0.50380005E+02 -0.45571E-03
 0.50430004E+02 -0.28336E-03
 0.50480003E+02  0.25469E-04
 0.50530003E+02  0.33191E-03
 0.50580006E+02  0.46480E-03
 0.50630005E+02  0.48525E-03
 0.50680004E+02  0.45163E-03
 0.50730003E+02  0.33642E-03
 0.50780003E+02  0.61873E-04
 0.50830006E+02 -0.41313E-03
 0.50880005E+02 -0.69151E-03
 0.50930004E+02 -0.40719E-03
 0.50980003E+02  0.23410E-03
 0.51030003E+02  0.83285E-03
 0.51080006E+02  0.11255E-02
 0.51130005E+02  0.11742E-02
 0.51180004E+02  0.11039E-02
 0.51230003E+02  0.86038E-03
 0.51280003E+02  0.53205E-03
 0.51330006E+02  0.25869E-03
 0.51380005E+02 -0.16030E-03
 0.51430004E+02 -0.81708E-03
 0.51480003E+02 -0.14222E-02
 0.51530003E+02 -0.16917E-02
 0.51580006E+02 -0.15544E-02
 0.51630005E+02 -0.11166E-02
 0.51680004E+02 -0.54544E-03
 0.51730003E+02 -0.59828E-04
 0.51780003E+02  0.29647E-03
 0.51830006E+02  0.54658E-03
 0.51880005E+02  0.52423E-03
 0.51930004E+02  0.18376E-03
 0.51980003E+02 -0.29402E-03
 0.52030003E+02 -0.73607E-03
 0.52080006E+02 -0.91904E-03
 0.52130005E+02 -0.67014E-03
 0.52180004E+02 -0.18142E-03
 0.52230003E+02  0.29988E-03
 0.52280003E+02  0.76901E-03
 0.52330006E+02  0.11726E-02
 0.52380005E+02  0.12371E-02
 0.52430004E+02  0.93163E-03
 0.52480003E+02  0.62789E-03
 0.52530003E+02  0.48296E-03
 0.52580006E+02  0.28239E-03
 0.52630005E+02  0.50988E-04
 0.52680004E+02 -0.70032E-04
 0.52730003E+02 -0.21530E-03
 0.52780003E+02 -0.26875E-03
 0.52830006E+02 -0.16398E-03
 0.52880005E+02 -0.12546E-03
 0.52930004E+02 -0.15978E-03
 0.52980003E+02 -0.28080E-03
 0.53030003E+02 -0.42781E-03
 0.53080006E+02 -0.53327E-03
 0.53130005E+02 -0.71506E-03
 0.53180004E+02 -0.83837E-03
 0.53230003E+02 -0.73581E-03
 0.53280003E+02 -0.52420E-03
 0.53330006E+02 -0.33510E-03
 0.53380005E+02 -0.91896E-04
 0.53430004E+02  0.27917E-03
 0.53480003E+02  0.50781E-03
 0.53530003E+02  0.42330E-03
 0.53580006E+02  0.34608E-03
 0.53630005E+02  0.44601E-03
 0.53680004E+02  0.45209E-03
 0.53730003E+02  0.33215E-03
 0.53780003E+02  0.37962E-03
 0.53830006E+02  0.55927E-03
 0.53880005E+02  0.64529E-03
 0.53930004E+02  0.66240E-03
 0.53980003E+02  0.62827E-03
 0.54030003E+02  0.48270E-03
 0.54080006E+02  0.26680E-03
 0.54130005E+02  0.97955E-04
 0.54180004E+02 -0.37051E-04
 0.54230003E+02 -0.25571E-03
 0.54280003E+02 -0.53511E-03
 0.54330006E+02 -0.99289E-03
 0.54380005E+02 -0.16202E-02
 0.54430004E+02 -0.19507E-02
 0.54480003E+02 -0.17582E-02
 0.54530003E+02 -0.11773E-02
 0.54580006E+02 -0.43149E-03
 0.54630005E+02  0.17049E-03
 0.54680004E+02  0.53428E-03
 0.54730003E+02  0.79585E-03
 0.54780003E+02  0.10220E-02
 0.54830006E+02  0.10644E-02
 0.54880005E+02  0.70726E-03
 0.54930004E+02  0.15424E-03
 0.54980003E+02 -0.10309E-03
 0.55030003E+02 -0.48627E-05
 0.55080006E+02  0.23788E-03
 0.55130005E+02  0.62858E-03
 0.55180004E+02  0.10616E-02
 0.55230003E+02  0.12380E-02
 0.55280003E+02  0.96180E-03
 0.55330006E+02  0.36418E-03
 0.55380005E+02 -0.14039E-03
 0.55430004E+02 -0.40197E-03
 0.55480003E+02 -0.59092E-03
 0.55530003E+02 -0.71544E-03
 0.55580006E+02 -0.59765E-03
 0.55630005E+02 -0.35501E-03
 0.55680004E+02 -0.27929E-03
 0.55730003E+02 -0.41100E-03
 0.55780003E+02 -0.57688E-03
 0.55830006E+02 -0.57891E-03
 0.55880005E+02 -0.38089E-03
 0.55930004E+02 -0.92292E-04
 0.55980003E+02  0.76131E-04
 0.56030003E+02  0.85610E-04
 0.56080006E+02  0.15141E-03
 0.56130005E+02  0.28597E-03
 0.56180004E+02  0.35699E-03
 0.56230003E+02  0.31668E-03
 0.56280003E+02  0.16072E-03
 0.56330006E+02  0.99605E-04
 0.56380005E+02  0.22431E-03
 0.56430004E+02  0.34362E-03
 0.56480003E+02  0.37457E-03
 0.56530003E+02  0.26263E-03
 0.56580006E+02  0.24727E-04
 0.56630005E+02 -0.21650E-03
 0.56680004E+02 -0.30535E-03
 0.56730003E+02 -0.26733E-03
 0.56780003E+02 -0.29984E-03
 0.56830006E+02 -0.36809E-03
 0.56880005E+02 -0.37497E-03
 0.56930004E+02 -0.20679E-03
 0.56980003E+02  0.91482E-04
 0.57030003E+02  0.22962E-03
 0.57080006E+02  0.18320E-03
 0.57130005E+02  0.21433E-03
 0.57180004E+02  0.43649E-03
 0.57230003E+02  0.59794E-03
 0.57280003E+02  0.50300E-03
 0.57330006E+02  0.23063E-03
 0.57380005E+02 -0.57160E-04
 0.57430004E+02 -0.18074E-03
 0.57480003E+02 -0.14725E-03
 0.57530003E+02 -0.17046E-03
 0.57580006E+02 -0.28231E-03
 0.57630005E+02 -0.36667E-03
 0.57680004E+02 -0.43895E-03
 0.57730003E+02 -0.47464E-03
 0.57780003E+02 -0.47975E-03
 0.57830006E+02 -0.49214E-03
 0.57880005E+02 -0.34414E-03
 0.57930004E+02  0.56698E-04
 0.57980003E+02  0.46578E-03
 0.58030003E+02  0.63144E-03
 0.58080006E+02  0.55364E-03
 0.58130005E+02  0.31800E-03
 0.58180004E+02  0.39049E-04
 0.58230003E+02 -0.22708E-03
 0.58280003E+02 -0.45279E-03
 0.58330006E+02 -0.47403E-03
 0.58380005E+02 -0.26248E-03
 0.58430004E+02  0.90208E-05
 0.58480003E+02  0.25452E-03
 0.58530003E+02  0.48436E-03
 0.58580006E+02  0.60362E-03
 0.58630005E+02  0.44913E-03
 0.58680004E+02  0.10864E-03
 0.58730003E+02 -0.23450E-03
 0.58780003E+02 -0.49319E-03
 0.58830006E+02 -0.54317E-03
 0.58880005E+02 -0.37476E-03
 0.58930004E+02 -0.16985E-03
 0.58980003E+02 -0.38652E-04
 0.59030003E+02  0.15196E-03
 0.59080006E+02  0.38568E-03
 0.59130005E+02  0.49818E-03
 0.59180004E+02  0.53459E-03
 0.59230003E+02  0.44093E-03
 0.59280003E+02  0.22711E-03
 0.59330006E+02  0.10887E-03
 0.59380005E+02  0.81945E-04
 0.59430004E+02  0.14318E-04
 0.59480003E+02 -0.14507E-03
 0.59530003E+02 -0.33282E-03
 0.59580006E+02 -0.44919E-03
 0.59630005E+02 -0.41616E-03
 0.59680004E+02 -0.23659E-03
 0.59730003E+02 -0.15789E-04
 0.59780003E+02  0.14590E-03
 0.59830006E+02  0.20406E-03
 0.59880005E+02  0.22848E-03
 0.59930004E+02  0.25549E-03
 0.59980003E+02  0.24657E-03
 0.60030003E+02  0.14346E-03
 0.60080006E+02 -0.21111E-04
 0.60130005E+02 -0.12845E-03
 0.60180004E+02 -0.20371E-03
 0.60230003E+02 -0.24859E-03
 0.60280003E+02 -0.25808E-03
 0.60330006E+02 -0.26584E-03
 0.60380005E+02 -0.19532E-03
 0.60430004E+02 -0.41347E-04
 0.60480003E+02  0.15775E-03
 0.60530003E+02  0.35364E-03
 0.60580006E+02  0.38442E-03
 0.60630005E+02  0.22060E-03
 0.60680004E+02 -0.61556E-04
 0.60730003E+02 -0.41576E-03
 0.60780003E+02 -0.67084E-03
 0.60830006E+02 -0.70461E-03
 0.60880005E+02 -0.59489E-03
 0.60930004E+02 -0.43904E-03
 0.60980003E+02 -0.20737E-03
 0.61030003E+02  0.13218E-03
 0.61080006E+02  0.43041E-03
 0.61130005E+02  0.51530E-03
 0.61180004E+02  0.40010E-03
 0.61230003E+02  0.19202E-03
 0.61280003E+02 -0.91646E-06
 0.61330006E+02 -0.65002E-04
 0.61380005E+02 -0.82617E-05
 0.61430004E+02  0.39458E-04
 0.61480003E+02  0.31346E-04
 0.61530003E+02  0.40661E-04
 0.61580006E+02  0.56836E-04
 0.61630005E+02  0.47486E-04
 0.61680004E+02  0.86082E-04
 0.61730003E+02  0.23577E-03
 0.61780003E+02  0.42685E-03
 0.61830006E+02  0.48506E-03
 0.61880005E+02  0.44868E-03
 0.61930004E+02  0.43328E-03
 0.61980003E+02  0.36268E-03
 0.62030003E+02  0.15288E-03
 0.62080006E+02 -0.21326E-03
 0.62130005E+02 -0.62342E-03
 0.62180004E+02 -0.92022E-03
 0.62230003E+02 -0.98250E-03
 0.62280003E+02 -0.75410E-03
 0.62330006E+02 -0.46619E-03
 0.62380005E+02 -0.22288E-03
 0.62430004E+02  0.14769E-03
 0.62480003E+02  0.52764E-03
 0.62530003E+02  0.73605E-03
 0.62580006E+02  0.83331E-03
 0.62630005E+02  0.81511E-03
 0.62680004E+02  0.56518E-03
 0.62730003E+02  0.17571E-03
 0.62780003E+02 -0.10037E-03
 0.62830006E+02 -0.19683E-03
 0.62880005E+02 -0.19877E-03
 0.62930004E+02 -0.14839E-03
 0.62980003E+02 -0.54092E-04
 0.63030003E+02  0.89441E-06
 0.63080006E+02 -0.41925E-04
 0.63130005E+02 -0.84782E-04
 0.63180004E+02 -0.98550E-04
 0.63230003E+02 -0.14205E-03
 0.63280003E+02 -0.16838E-03
 0.63330006E+02 -0.18996E-03
 0.63380005E+02 -0.26789E-03
 0.63430004E+02 -0.33649E-03
 0.63480003E+02 -0.31906E-03
 0.63530003E+02 -0.26378E-03
 0.63580006E+02 -0.21247E-03
 0.63630005E+02 -0.87458E-04
 0.63680004E+02  0.10561E-03
 0.63730003E+02  0.31157E-03
 0.63780003E+02  0.51891E-03
 0.63830006E+02  0.67898E-03
 0.63880005E+02  0.74331E-03
 0.63930004E+02  0.61220E-03
 0.63980003E+02  0.24919E-03
 0.64030006E+02 -0.20920E-03
 0.64080002E+02 -0.62666E-03
 0.64130005E+02 -0.91721E-03
 0.64180008E+02 -0.10044E-02
 0.64230003E+02 -0.87743E-03
 0.64280006E+02 -0.59061E-03
 0.64330002E+02 -0.20003E-03
 0.64380005E+02  0.19997E-03
 0.64430008E+02  0.52572E-03
 0.64480003E+02  0.71063E-03
 0.64530006E+02  0.70498E-03
 0.64580002E+02  0.63821E-03
 0.64630005E+02  0.60998E-03
 0.64680008E+02  0.51272E-03
 0.64730003E+02  0.31894E-03
 0.64780006E+02  0.76827E-04
 0.64830002E+02 -0.19803E-03
 0.64880005E+02 -0.41113E-03
 0.64930008E+02 -0.53890E-03
 0.64980003E+02 -0.60277E-03
 0.65030006E+02 -0.53777E-03
 0.65080002E+02 -0.38689E-03
 0.65130005E+02 -0.19329E-03
 0.65180008E+02  0.85469E-04
 0.65230003E+02  0.32644E-03
 0.65280006E+02  0.34237E-03
 0.65330002E+02  0.12247E-03
 0.65380005E+02 -0.23720E-03
 0.65430008E+02 -0.56713E-03
 0.65480003E+02 -0.68972E-03
 0.65530006E+02 -0.61357E-03
 0.65580002E+02 -0.46454E-03
 0.65630005E+02 -0.30498E-03
 0.65680008E+02 -0.76525E-04
 0.65730003E+02  0.27762E-03
 0.65780006E+02  0.62036E-03
 0.65830002E+02  0.80259E-03
 0.65880005E+02  0.88210E-03
 0.65930008E+02  0.87365E-03
 0.65980003E+02  0.72008E-03
 0.66030006E+02  0.47919E-03
 0.66080002E+02  0.21235E-03
 0.66130005E+02 -0.52862E-04
 0.66180008E+02 -0.26955E-03
 0.66230003E+02 -0.35396E-03
 0.66280006E+02 -0.29849E-03
 0.66330002E+02 -0.24181E-03
 0.66380005E+02 -0.22159E-03
 0.66430008E+02 -0.14630E-03
 0.66480003E+02 -0.14651E-04
 0.66530006E+02  0.10944E-03
 0.66580002E+02  0.22170E-03
 0.66630005E+02  0.26898E-03
 0.66680008E+02  0.17402E-03
 0.66730003E+02  0.43131E-04
 0.66780006E+02 -0.16522E-04
 0.66830002E+02 -0.92409E-05
 0.66880005E+02  0.85297E-05
 0.66930008E+02  0.10664E-04
 0.66980003E+02  0.82455E-04
 0.67030006E+02  0.18034E-03
 0.67080002E+02  0.19943E-03
 0.67130005E+02  0.13327E-03
 0.67180008E+02 -0.13574E-04
 0.67230003E+02 -0.19764E-03
 0.67280006E+02 -0.34905E-03
 0.67330002E+02 -0.44682E-03
 0.67380005E+02 -0.51124E-03
 0.67430008E+02 -0.55531E-03
 0.67480003E+02 -0.57734E-03
 0.67530006E+02 -0.52841E-03
 0.67580002E+02 -0.41751E-03
 0.67630005E+02 -0.28923E-03
 0.67680008E+02 -0.16703E-03
 0.67730003E+02 -0.98051E-04
 0.67780006E+02 -0.15582E-04
 0.67830002E+02  0.13871E-03
 0.67880005E+02  0.28998E-03
 0.67930008E+02  0.34853E-03
 0.67980003E+02  0.35829E-03
 0.68030006E+02  0.44169E-03
 0.68080002E+02  0.55274E-03
 0.68130005E+02  0.57436E-03
 0.68180008E+02  0.52302E-03
 0.68230003E+02  0.49181E-03
 0.68280006E+02  0.47965E-03
 0.68330002E+02  0.41822E-03
 0.68380005E+02  0.26990E-03
 0.68430008E+02  0.15494E-04
 0.68480003E+02 -0.27912E-03
 0.68530006E+02 -0.50627E-03
 0.68580002E+02 -0.59771E-03
 0.68630005E+02 -0.55011E-03
 0.68680008E+02 -0.46379E-03
 0.68730003E+02 -0.36618E-03
 0.68780006E+02 -0.23186E-03
 0.68830002E+02 -0.96687E-04
 0.68880005E+02  0.50413E-04
 0.68930008E+02  0.14498E-03
 0.68980003E+02  0.11570E-03
 0.69030006E+02  0.75960E-04
 0.69080002E+02  0.12221E-03
 0.69130005E+02  0.19372E-03
 0.69180008E+02  0.24955E-03
 0.69230003E+02  0.31278E-03
 0.69280006E+02  0.28457E-03
 0.69330002E+02  0.10789E-03
 0.69380005E+02 -0.10080E-03
 0.69430008E+02 -0.23116E-03
 0.69480003E+02 -0.27925E-03
 0.69530006E+02 -0.29339E-03
 0.69580002E+02 -0.27124E-03
 0.69630005E+02 -0.23784E-03
 0.69680008E+02 -0.24572E-03
 0.69730003E+02 -0.35543E-03
 0.69780006E+02 -0.53772E-03
 0.69830002E+02 -0.58241E-03
 0.69880005E+02 -0.41519E-03
 0.69930008E+02 -0.17976E-03
 0.69980003E+02  0.22893E-04
 0.70030006E+02  0.21472E-03
 0.70080002E+02  0.41687E-03
 0.70130005E+02  0.58848E-03
 0.70180008E+02  0.70746E-03
 0.70230003E+02  0.78507E-03
 0.70280006E+02  0.79098E-03
 0.70330002E+02  0.68880E-03
 0.70380005E+02  0.52127E-03
 0.70430008E+02  0.37102E-03
 0.70480003E+02  0.28581E-03
 0.70530006E+02  0.23545E-03
 0.70580002E+02  0.15095E-03
 0.70630005E+02 -0.79438E-05
 0.70680008E+02 -0.18868E-03
 0.70730003E+02 -0.30951E-03
 0.70780006E+02 -0.39705E-03
 0.70830002E+02 -0.48772E-03
 0.70880005E+02 -0.58622E-03
 0.70930008E+02 -0.67219E-03
 0.70980003E+02 -0.66072E-03
 0.71030006E+02 -0.53563E-03
 0.71080002E+02 -0.36200E-03
 0.71130005E+02 -0.22808E-03
 0.71180008E+02 -0.16738E-03
 0.71230003E+02 -0.14422E-03
 0.71280006E+02 -0.13470E-03
 0.71330002E+02 -0.93930E-04
 0.71380005E+02 -0.42165E-04
 0.71430008E+02  0.34487E-04
 0.71480003E+02  0.19232E-03
 0.71530006E+02  0.37464E-03
 0.71580002E+02  0.52376E-03
 0.71630005E+02  0.58646E-03
 0.71680008E+02  0.56416E-03
 0.71730003E+02  0.50262E-03
 0.71780006E+02  0.42099E-03
 0.71830002E+02  0.31287E-03
 0.71880005E+02  0.11444E-03
 0.71930008E+02 -0.15150E-03
 0.71980003E+02 -0.36736E-03
 0.72030006E+02 -0.48925E-03
 0.72080002E+02 -0.52785E-03
 0.72130005E+02 -0.47610E-03
 0.72180008E+02 -0.34865E-03
 0.72230003E+02 -0.19204E-03
 0.72280006E+02 -0.15823E-04
 0.72330002E+02  0.16930E-03
 0.72380005E+02  0.28487E-03
 0.72430008E+02  0.30271E-03
 0.72480003E+02  0.29520E-03
 0.72530006E+02  0.30111E-03
 0.72580002E+02  0.30424E-03
 0.72630005E+02  0.30279E-03
 0.72680008E+02  0.26041E-03
 0.72730003E+02  0.14322E-03
 0.72780006E+02  0.19835E-05
 0.72830002E+02 -0.14844E-03
 0.72880005E+02 -0.29285E-03
 0.72930008E+02 -0.37148E-03
 0.72980003E+02 -0.40950E-03
 0.73030006E+02 -0.43657E-03
 0.73080002E+02 -0.43564E-03
 0.73130005E+02 -0.38021E-03
 0.73180008E+02 -0.28776E-03
 0.73230003E+02 -0.22307E-03
 0.73280006E+02 -0.18540E-03
 0.73330002E+02 -0.14806E-03
 0.73380005E+02 -0.59909E-04
 0.73430008E+02  0.11207E-03
 0.73480003E+02  0.33992E-03
 0.73530006E+02  0.60408E-03
 0.73580002E+02  0.80363E-03
 0.73630005E+02  0.81624E-03
 0.73680008E+02  0.67699E-03
 0.73730003E+02  0.49916E-03
 0.73780006E+02  0.31476E-03
 0.73830002E+02  0.11085E-03
 0.73880005E+02 -0.11046E-03
 0.73930008E+02 -0.31698E-03
 0.73980003E+02 -0.42803E-03
 0.74030006E+02 -0.41981E-03
 0.74080002E+02 -0.37017E-03
 0.74130005E+02 -0.35227E-03
 0.74180008E+02 -0.37626E-03
 0.74230003E+02 -0.40629E-03
 0.74280006E+02 -0.38043E-03
 0.74330002E+02 -0.27681E-03
 0.74380005E+02 -0.16062E-03
 0.74430008E+02 -0.89676E-04
 0.74480003E+02 -0.63516E-05
 0.74530006E+02  0.13256E-03
 0.74580002E+02  0.28242E-03
 0.74630005E+02  0.36362E-03
 0.74680008E+02  0.30358E-03
 0.74730003E+02  0.19009E-03
 0.74780006E+02  0.12071E-03
 0.74830002E+02  0.75710E-04
 0.74880005E+02  0.70301E-04
 0.74930008E+02  0.11279E-03
 0.74980003E+02  0.17711E-03
 0.75030006E+02  0.26972E-03
 0.75080002E+02  0.36953E-03
 0.75130005E+02  0.41148E-03
 0.75180008E+02  0.36599E-03
 0.75230003E+02  0.19032E-03
 0.75280006E+02 -0.14275E-03
 0.75330002E+02 -0.51113E-03
 0.75380005E+02 -0.79412E-03
 0.75430008E+02 -0.96383E-03
 0.75480003E+02 -0.95794E-03
 0.75530006E+02 -0.75186E-03
 0.75580002E+02 -0.42447E-03
 0.75630005E+02 -0.90747E-04
 0.75680008E+02  0.18505E-03
 0.75730003E+02  0.39816E-03
 0.75780006E+02  0.55164E-03
 0.75830002E+02  0.65768E-03
 0.75880005E+02  0.68279E-03
 0.75930008E+02  0.59084E-03
 0.75980003E+02  0.43651E-03
 0.76030006E+02  0.28824E-03
 0.76080002E+02  0.17259E-03
 0.76130005E+02  0.85548E-04
 0.76180008E+02 -0.34013E-04
 0.76230003E+02 -0.17080E-03
 0.76280006E+02 -0.23214E-03
 0.76330002E+02 -0.23549E-03
 0.76380005E+02 -0.21266E-03
 0.76430008E+02 -0.15434E-03
 0.76480003E+02 -0.97404E-04
 0.76530006E+02 -0.89907E-04
 0.76580002E+02 -0.10905E-03
 0.76630005E+02 -0.14994E-03
 0.76680008E+02 -0.23029E-03
 0.76730003E+02 -0.27707E-03
 0.76780006E+02 -0.25471E-03
 0.76830002E+02 -0.20555E-03
 0.76880005E+02 -0.18097E-03
 0.76930008E+02 -0.16159E-03
 0.76980003E+02 -0.93300E-04
 0.77030006E+02  0.34388E-04
 0.77080002E+02  0.22007E-03
 0.77130005E+02  0.38344E-03
 0.77180008E+02  0.47171E-03
 0.77230003E+02  0.51731E-03
 0.77280006E+02  0.53059E-03
 0.77330002E+02  0.47654E-03
 0.77380005E+02  0.35552E-03
 0.77430008E+02  0.24812E-03
 0.77480003E+02  0.15063E-03
 0.77530006E+02  0.24517E-04
 0.77580002E+02 -0.85998E-04
 0.77630005E+02 -0.15012E-03
 0.77680008E+02 -0.20168E-03
 0.77730003E+02 -0.27046E-03
 0.77780006E+02 -0.31628E-03
 0.77830002E+02 -0.35048E-03
 0.77880005E+02 -0.43543E-03
 0.77930008E+02 -0.56748E-03
 0.77980003E+02 -0.69125E-03
 0.78030006E+02 -0.72343E-03
 0.78080002E+02 -0.65219E-03
 0.78130005E+02 -0.52341E-03
 0.78180008E+02 -0.32458E-03
 0.78230003E+02 -0.37016E-04
 0.78280006E+02  0.28942E-03
 0.78330002E+02  0.57311E-03
 0.78380005E+02  0.77394E-03
 0.78430008E+02  0.89237E-03
 0.78480003E+02  0.92379E-03
 0.78530006E+02  0.86422E-03
 0.78580002E+02  0.75132E-03
 0.78630005E+02  0.60789E-03
 0.78680008E+02  0.39615E-03
 0.78730003E+02  0.12893E-03
 0.78780006E+02 -0.94449E-04
 0.78830002E+02 -0.22923E-03
 0.78880005E+02 -0.32356E-03
 0.78930008E+02 -0.39284E-03
 0.78980003E+02 -0.43001E-03
 0.79030006E+02 -0.44466E-03
 0.79080002E+02 -0.44878E-03
 0.79130005E+02 -0.47284E-03
 0.79180008E+02 -0.50590E-03
 0.79230003E+02 -0.50048E-03
 0.79280006E+02 -0.47171E-03
 0.79330002E+02 -0.45811E-03
 0.79380005E+02 -0.41862E-03
 0.79430008E+02 -0.30569E-03
 0.79480003E+02 -0.94586E-04
 0.79530006E+02  0.20720E-03
 0.79580002E+02  0.49960E-03
 0.79630005E+02  0.68156E-03
 0.79680008E+02  0.72520E-03
 0.79730003E+02  0.67927E-03
 0.79780006E+02  0.59594E-03
 0.79830002E+02  0.48989E-03
 0.79880005E+02  0.37423E-03
 0.79930008E+02  0.23167E-03
 0.79980003E+02  0.51123E-04
 0.80030006E+02 -0.13909E-03
 0.80080002E+02 -0.30486E-03
 0.80130005E+02 -0.41553E-03
 0.80180008E+02 -0.47132E-03
 0.80230003E+02 -0.48168E-03
 0.80280006E+02 -0.42652E-03
 0.80330002E+02 -0.30295E-03
 0.80380005E+02 -0.13380E-03
 0.80430008E+02  0.72605E-04
 0.80480003E+02  0.25418E-03
 0.80530006E+02  0.34157E-03
 0.80580002E+02  0.35001E-03
 0.80630005E+02  0.27513E-03
 0.80680008E+02  0.13642E-03
 0.80730003E+02 -0.26816E-05
 0.80780006E+02 -0.12159E-03
 0.80830002E+02 -0.20341E-03
 0.80880005E+02 -0.21958E-03
 0.80930008E+02 -0.16300E-03
 0.80980003E+02 -0.77834E-04
 0.81030006E+02 -0.25945E-04
 0.81080002E+02 -0.64097E-05
 0.81130005E+02  0.44342E-04
 0.81180008E+02  0.91941E-04
 0.81230003E+02  0.48507E-04
 0.81280006E+02 -0.13853E-04
 0.81330002E+02 -0.34170E-05
 0.81380005E+02  0.51701E-04
 0.81430008E+02  0.99699E-04
 0.81480003E+02  0.99891E-04
 0.81530006E+02  0.51482E-04
 0.81580002E+02  0.15902E-04
 0.81630005E+02  0.36415E-04
 0.81680008E+02  0.10010E-03
 0.81730003E+02  0.15834E-03
 0.81780006E+02  0.16223E-03
 0.81830002E+02  0.10860E-03
 0.81880005E+02  0.24925E-04
 0.81930008E+02 -0.58398E-04
 0.81980003E+02 -0.15025E-03
 0.82030006E+02 -0.27573E-03
 0.82080002E+02 -0.39780E-03
 0.82130005E+02 -0.45645E-03
 0.82180008E+02 -0.45094E-03
 0.82230003E+02 -0.40252E-03
 0.82280006E+02 -0.28007E-03
 0.82330002E+02 -0.10134E-03
 0.82380005E+02  0.61303E-04
 0.82430008E+02  0.18902E-03
 0.82480003E+02  0.28789E-03
 0.82530006E+02  0.38327E-03
 0.82580002E+02  0.50449E-03
 0.82630005E+02  0.63236E-03
 0.82680008E+02  0.69874E-03
 0.82730003E+02  0.67010E-03
 0.82780006E+02  0.56175E-03
 0.82830002E+02  0.37011E-03
 0.82880005E+02  0.14293E-03
 0.82930008E+02 -0.42881E-04
 0.82980003E+02 -0.17931E-03
 0.83030006E+02 -0.28475E-03
 0.83080002E+02 -0.36674E-03
 0.83130005E+02 -0.41204E-03
 0.83180008E+02 -0.44231E-03
 0.83230003E+02 -0.48151E-03
 0.83280006E+02 -0.47976E-03
 0.83330002E+02 -0.46043E-03
 0.83380005E+02 -0.50219E-03
 0.83430008E+02 -0.54197E-03
 0.83480003E+02 -0.47376E-03
 0.83530006E+02 -0.32155E-03
 0.83580002E+02 -0.14289E-03
 0.83630005E+02  0.20818E-04
 0.83680008E+02  0.14496E-03
 0.83730003E+02  0.27164E-03
 0.83780006E+02  0.39013E-03
 0.83830002E+02  0.42747E-03
 0.83880005E+02  0.38464E-03
 0.83930008E+02  0.31351E-03
 0.83980003E+02  0.22612E-03
 0.84030006E+02  0.12995E-03
 0.84080002E+02  0.53647E-04
 0.84130005E+02  0.27924E-05
 0.84180008E+02 -0.10341E-04
 0.84230003E+02  0.13772E-04
 0.84280006E+02  0.23105E-04
 0.84330002E+02  0.18714E-04
 0.84380005E+02  0.58055E-04
 0.84430008E+02  0.11611E-03
 0.84480003E+02  0.13038E-03
 0.84530006E+02  0.85347E-04
 0.84580002E+02 -0.32820E-05
 0.84630005E+02 -0.79652E-04
 0.84680008E+02 -0.99108E-04
 0.84730003E+02 -0.73085E-04
 0.84780006E+02 -0.27577E-04
 0.84830002E+02  0.17468E-04
 0.84880005E+02  0.40451E-04
 0.84930008E+02  0.42336E-04
 0.84980003E+02  0.56120E-04
 0.85030006E+02  0.86318E-04
 0.85080002E+02  0.10598E-03
 0.85130005E+02  0.11688E-03
 0.85180008E+02  0.12178E-03
 0.85230003E+02  0.97589E-04
 0.85280006E+02  0.32524E-04
 0.85330002E+02 -0.78215E-04
 0.85380005E+02 -0.21192E-03
 0.85430008E+02 -0.31671E-03
 0.85480003E+02 -0.38268E-03
 0.85530006E+02 -0.40421E-03
 0.85580002E+02 -0.33709E-03
 0.85630005E+02 -0.18518E-03
 0.85680008E+02 -0.19532E-04
 0.85730003E+02  0.11558E-03
 0.85780006E+02  0.21830E-03
 0.85830002E+02  0.29249E-03
 0.85880005E+02  0.34721E-03
 0.85930008E+02  0.38797E-03
 0.85980003E+02  0.40926E-03
 0.86030006E+02  0.37457E-03
 0.86080002E+02  0.26964E-03
 0.86130005E+02  0.15217E-03
 0.86180008E+02  0.46545E-04
 0.86230003E+02 -0.66892E-04
 0.86280006E+02 -0.16084E-03
 0.86330002E+02 -0.22659E-03
 0.86380005E+02 -0.28444E-03
 0.86430008E+02 -0.30552E-03
 0.86480003E+02 -0.29449E-03
 0.86530006E+02 -0.29765E-03
 0.86580002E+02 -0.33030E-03
 0.86630005E+02 -0.35877E-03
 0.86680008E+02 -0.33548E-03
 0.86730003E+02 -0.27722E-03
 0.86780006E+02 -0.19195E-03
 0.86830002E+02 -0.59515E-04
 0.86880005E+02  0.11287E-03
 0.86930008E+02  0.30118E-03
 0.86980003E+02  0.44909E-03
 0.87030006E+02  0.52474E-03
 0.87080002E+02  0.54947E-03
 0.87130005E+02  0.51996E-03
 0.87180008E+02  0.39242E-03
 0.87230003E+02  0.17833E-03
 0.87280006E+02 -0.44448E-04
 0.87330002E+02 -0.23539E-03
 0.87380005E+02 -0.39382E-03
 0.87430008E+02 -0.49948E-03
 0.87480003E+02 -0.52208E-03
 0.87530006E+02 -0.45097E-03
 0.87580002E+02 -0.30269E-03
 0.87630005E+02 -0.12276E-03
 0.87680008E+02  0.55551E-04
 0.87730003E+02  0.23064E-03
 0.87780006E+02  0.36396E-03
 0.87830002E+02  0.39626E-03
 0.87880005E+02  0.32233E-03
 0.87930008E+02  0.17352E-03
 0.87980003E+02  0.21879E-04
 0.88030006E+02 -0.67130E-04
 0.88080002E+02 -0.10186E-03
 0.88130005E+02 -0.10891E-03
 0.88180008E+02 -0.10209E-03
 0.88230003E+02 -0.79144E-04
 0.88280006E+02 -0.30652E-04
 0.88330002E+02  0.35249E-04
 0.88380005E+02  0.91016E-04
 0.88430008E+02  0.13023E-03
 0.88480003E+02  0.17570E-03
 0.88530006E+02  0.21672E-03
 0.88580002E+02  0.23379E-03
 0.88630005E+02  0.22795E-03
 0.88680008E+02  0.19067E-03
 0.88730003E+02  0.12796E-03
 0.88780006E+02  0.45831E-04
 0.88830002E+02 -0.68974E-04
 0.88880005E+02 -0.20013E-03
 0.88930008E+02 -0.31030E-03
 0.88980003E+02 -0.37561E-03
 0.89030006E+02 -0.40878E-03
 0.89080002E+02 -0.43019E-03
 0.89130005E+02 -0.42514E-03
 0.89180008E+02 -0.37739E-03
 0.89230003E+02 -0.27857E-03
 0.89280006E+02 -0.14762E-03
 0.89330002E+02 -0.68591E-05
 0.89380005E+02  0.15866E-03
 0.89430008E+02  0.32152E-03
 0.89480003E+02  0.44114E-03
 0.89530006E+02  0.52128E-03
 0.89580002E+02  0.53962E-03
 0.89630005E+02  0.46447E-03
 0.89680008E+02  0.30898E-03
 0.89730003E+02  0.13318E-03
 0.89780006E+02 -0.12114E-04
 0.89830002E+02 -0.13677E-03
 0.89880005E+02 -0.24287E-03
 0.89930008E+02 -0.30271E-03
 0.89980003E+02 -0.31283E-03
 0.90030006E+02 -0.29618E-03
 0.90080002E+02 -0.25969E-03
 0.90130005E+02 -0.18913E-03
 0.90180008E+02 -0.90583E-04
 0.90230003E+02  0.37447E-05
 0.90280006E+02  0.71099E-04
 0.90330002E+02  0.10231E-03
 0.90380005E+02  0.89563E-04
 0.90430008E+02  0.74040E-04
 0.90480003E+02  0.87435E-04
 0.90530006E+02  0.79851E-04
 0.90580002E+02  0.34600E-04
 0.90630005E+02 -0.10465E-04
 0.90680008E+02 -0.47013E-04
 0.90730003E+02 -0.65888E-04
 0.90780006E+02 -0.36768E-04
 0.90830002E+02  0.34548E-04
 0.90880005E+02  0.10435E-03
 0.90930008E+02  0.13393E-03
 0.90980003E+02  0.11252E-03
 0.91030006E+02  0.80486E-04
 0.91080002E+02  0.84001E-04
 0.91130005E+02  0.98405E-04
 0.91180008E+02  0.76038E-04
 0.91230003E+02  0.25414E-04
 0.91280006E+02 -0.25326E-04
 0.91330002E+02 -0.64092E-04
 0.91380005E+02 -0.70902E-04
 0.91430008E+02 -0.36621E-04
 0.91480003E+02  0.13080E-04
 0.91530006E+02  0.37274E-04
 0.91580002E+02  0.39012E-04
 0.91630005E+02  0.42423E-04
 0.91680008E+02  0.39011E-04
 0.91730003E+02  0.23615E-04
 0.91780006E+02 -0.12576E-04
 0.91830002E+02 -0.71722E-04
 0.91880005E+02 -0.12361E-03
 0.91930008E+02 -0.15364E-03
 0.91980003E+02 -0.17536E-03
 0.92030006E+02 -0.18417E-03
 0.92080002E+02 -0.17342E-03
 0.92130005E+02 -0.16295E-03
 0.92180008E+02 -0.15424E-03
 0.92230003E+02 -0.11432E-03
 0.92280006E+02 -0.17857E-04
 0.92330002E+02  0.99284E-04
 0.92380005E+02  0.16978E-03
 0.92430008E+02  0.18699E-03
 0.92480003E+02  0.20389E-03
 0.92530006E+02  0.23938E-03
 0.92580002E+02  0.25219E-03
 0.92630005E+02  0.22758E-03
 0.92680008E+02  0.19573E-03
 0.92730003E+02  0.16278E-03
 0.92780006E+02  0.98081E-04
 0.92830002E+02  0.16279E-06
 0.92880005E+02 -0.83182E-04
 0.92930008E+02 -0.13022E-03
 0.92980003E+02 -0.15621E-03
 0.93030006E+02 -0.15972E-03
 0.93080002E+02 -0.13789E-03
 0.93130005E+02 -0.12218E-03
 0.93180008E+02 -0.14422E-03
 0.93230003E+02 -0.20111E-03
 0.93280006E+02 -0.25779E-03
 0.93330002E+02 -0.27823E-03
 0.93380005E+02 -0.26833E-03
 0.93430008E+02 -0.25099E-03
 0.93480003E+02 -0.21648E-03
 0.93530006E+02 -0.12961E-03
 0.93580002E+02  0.81530E-05
 0.93630005E+02  0.16555E-03
 0.93680008E+02  0.31772E-03
 0.93730003E+02  0.44136E-03
 0.93780006E+02  0.52728E-03
 0.93830002E+02  0.56032E-03
 0.93880005E+02  0.53290E-03
 0.93930008E+02  0.45436E-03
 0.93980003E+02  0.32507E-03
 0.94030006E+02  0.17204E-03
 0.94080002E+02  0.28974E-04
 0.94130005E+02 -0.10302E-03
 0.94180008E+02 -0.22192E-03
 0.94230003E+02 -0.32518E-03
 0.94280006E+02 -0.40331E-03
 0.94330002E+02 -0.42543E-03
 0.94380005E+02 -0.38761E-03
 0.94430008E+02 -0.32418E-03
 0.94480003E+02 -0.27030E-03
 0.94530006E+02 -0.25110E-03
 0.94580002E+02 -0.25992E-03
 0.94630005E+02 -0.24044E-03
 0.94680008E+02 -0.17655E-03
 0.94730003E+02 -0.11550E-03
 0.94780006E+02 -0.46471E-04
 0.94830002E+02  0.57242E-04
 0.94880005E+02  0.15341E-03
 0.94930008E+02  0.19978E-03
 0.94980003E+02  0.19602E-03
 0.95030006E+02  0.17197E-03
 0.95080002E+02  0.15672E-03
 0.95130005E+02  0.15330E-03
 0.95180008E+02  0.16180E-03
 0.95230003E+02  0.19987E-03
 0.95280006E+02  0.25597E-03
 0.95330002E+02  0.29166E-03
 0.95380005E+02  0.29220E-03
 0.95430008E+02  0.24216E-03
 0.95480003E+02  0.15249E-03
 0.95530006E+02  0.63981E-04
 0.95580002E+02 -0.32414E-04
 0.95630005E+02 -0.14961E-03
 0.95680008E+02 -0.23564E-03
 0.95730003E+02 -0.25731E-03
 0.95780006E+02 -0.24166E-03
 0.95830002E+02 -0.20652E-03
 0.95880005E+02 -0.16075E-03
 0.95930008E+02 -0.10813E-03
 0.95980003E+02 -0.37796E-04
 0.96030006E+02  0.25984E-04
 0.96080002E+02  0.63872E-04
 0.96130005E+02  0.10122E-03
 0.96180008E+02  0.12293E-03
 0.96230003E+02  0.11008E-03
 0.96280006E+02  0.10282E-03
 0.96330002E+02  0.99058E-04
 0.96380005E+02  0.69030E-04
 0.96430008E+02  0.39111E-04
 0.96480003E+02  0.23200E-04
 0.96530006E+02  0.63042E-06
 0.96580002E+02 -0.24829E-04
 0.96630005E+02 -0.44779E-04
 0.96680008E+02 -0.78139E-04
 0.96730003E+02 -0.12073E-03
 0.96780006E+02 -0.12889E-03
 0.96830002E+02 -0.11751E-03
 0.96880005E+02 -0.13417E-03
 0.96930008E+02 -0.16265E-03
 0.96980003E+02 -0.16595E-03
 0.97030006E+02 -0.12267E-03
 0.97080002E+02 -0.43448E-04
 0.97130005E+02  0.31111E-04
 0.97180008E+02  0.73928E-04
 0.97230003E+02  0.96463E-04
 0.97280006E+02  0.11915E-03
 0.97330002E+02  0.13853E-03
 0.97380005E+02  0.15235E-03
 0.97430008E+02  0.16751E-03
 0.97480003E+02  0.18844E-03
 0.97530006E+02  0.19731E-03
 0.97580002E+02  0.16903E-03
 0.97630005E+02  0.10862E-03
 0.97680008E+02  0.34503E-04
 0.97730003E+02 -0.47669E-04
 0.97780006E+02 -0.13679E-03
 0.97830002E+02 -0.21695E-03
 0.97880005E+02 -0.27103E-03
 0.97930008E+02 -0.29453E-03
 0.97980003E+02 -0.27685E-03
 0.98030006E+02 -0.22258E-03
 0.98080002E+02 -0.17701E-03
 0.98130005E+02 -0.14911E-03
 0.98180008E+02 -0.97958E-04
 0.98230003E+02 -0.19700E-04
 0.98280006E+02  0.59721E-04
 0.98330002E+02  0.11513E-03
 0.98380005E+02  0.13173E-03
 0.98430008E+02  0.12688E-03
 0.98480003E+02  0.12481E-03
 0.98530006E+02  0.12819E-03
 0.98580002E+02  0.12579E-03
 0.98630005E+02  0.11269E-03
 0.98680008E+02  0.98984E-04
 0.98730003E+02  0.10402E-03
 0.98780006E+02  0.13871E-03
 0.98830002E+02  0.19077E-03
 0.98880005E+02  0.23067E-03
 0.98930008E+02  0.23132E-03
 0.98980003E+02  0.19824E-03
 0.99030006E+02  0.15553E-03
 0.99080002E+02  0.10774E-03
 0.99130005E+02  0.43436E-04
 0.99180008E+02 -0.29478E-04
 0.99230003E+02 -0.84024E-04
 0.99280006E+02 -0.12071E-03
 0.99330002E+02 -0.15739E-03
 0.99380005E+02 -0.19935E-03
 0.99430008E+02 -0.24492E-03
 0.99480003E+02 -0.29275E-03
 0.99530006E+02 -0.32654E-03
 0.99580002E+02 -0.32152E-03
 0.99630005E+02 -0.28122E-03
 0.99680008E+02 -0.20881E-03
 0.99730003E+02 -0.99500E-04
 0.99780006E+02  0.31726E-04
 0.99830002E+02  0.15199E-03
 0.99880005E+02  0.22820E-03
 0.99930008E+02  0.24798E-03
 0.99980003E+02  0.19970E-03
