-0.19996643E-01  0.52872E-05
 0.30003358E-01  0.28797E-05
 0.80003358E-01  0.11145E-05
 0.13000336E+00 -0.12622E-06
 0.18000336E+00 -0.89655E-06
 0.23000336E+00 -0.14090E-05
 0.28000337E+00 -0.16015E-05
 0.33000335E+00 -0.14741E-05
 0.38000336E+00 -0.14853E-05
 0.43000337E+00 -0.12904E-05
 0.48000336E+00 -0.82119E-06
 0.53000337E+00 -0.52938E-06
 0.58000338E+00 -0.36971E-06
 0.63000339E+00 -0.13195E-06
 0.68000335E+00  0.93508E-07
 0.73000336E+00  0.91846E-07
 0.78000337E+00  0.14663E-07
 0.83000338E+00  0.62000E-07
 0.88000339E+00  0.36997E-06
 0.93000335E+00  0.11515E-06
 0.98000336E+00  0.99385E-08
 0.10300034E+01  0.47120E-06
 0.10800034E+01  0.10799E-06
 0.11300033E+01  0.29302E-07
 0.11800034E+01  0.17124E-06
 0.12300034E+01  0.62670E-07
 0.12800034E+01  0.10257E-06
 0.13300034E+01 -0.23396E-06
 0.13800033E+01 -0.91125E-07
 0.14300034E+01  0.95637E-07
 0.14800034E+01 -0.34854E-06
 0.15300034E+01 -0.10515E-06
 0.15800034E+01  0.20960E-06
 0.16300033E+01 -0.10054E-06
 0.16800034E+01  0.76504E-07
 0.17300034E+01  0.50596E-06
 0.17800034E+01  0.28885E-06
 0.18300034E+01 -0.11071E-07
 0.18800033E+01  0.19844E-06
 0.19300034E+01  0.15138E-06
 0.19800034E+01 -0.37345E-07
 0.20300033E+01 -0.11211E-06
 0.20800035E+01 -0.11024E-07
 0.21300035E+01 -0.58602E-07
 0.21800034E+01 -0.62159E-06
 0.22300034E+01 -0.17915E-06
 0.22800033E+01  0.14574E-06
 0.23300035E+01 -0.27244E-06
 0.23800035E+01  0.14191E-06
 0.24300034E+01  0.35043E-06
 0.24800034E+01 -0.27710E-07
 0.25300033E+01 -0.26145E-07
 0.25800035E+01  0.14753E-06
 0.26300035E+01  0.58676E-07
 0.26800034E+01 -0.21943E-06
 0.27300034E+01 -0.37889E-06
 0.27800033E+01 -0.13376E-06
 0.28300035E+01 -0.33877E-06
 0.28800035E+01 -0.61744E-06
 0.29300034E+01 -0.11772E-06
 0.29800034E+01 -0.12129E-06
 0.30300033E+01 -0.57463E-06
 0.30800035E+01 -0.34951E-06
 0.31300035E+01 -0.14111E-07
 0.31800034E+01 -0.35542E-06
 0.32300034E+01 -0.37392E-06
 0.32800033E+01  0.83421E-07
 0.33300035E+01  0.93806E-07
 0.33800035E+01 -0.14129E-06
 0.34300034E+01  0.18422E-07
 0.34800034E+01  0.44907E-06
 0.35300033E+01  0.15200E-06
 0.35800035E+01  0.26920E-07
 0.36300035E+01  0.55809E-06
 0.36800034E+01  0.44404E-06
 0.37300034E+01  0.15956E-06
 0.37800033E+01  0.23160E-06
 0.38300035E+01  0.14464E-06
 0.38800035E+01  0.27599E-07
 0.39300034E+01  0.11071E-06
 0.39800034E+01  0.21749E-06
 0.40300035E+01  0.38435E-06
 0.40800033E+01  0.25299E-06
 0.41300035E+01  0.60589E-07
 0.41800036E+01  0.28238E-06
 0.42300034E+01  0.15245E-06
 0.42800035E+01 -0.12898E-06
 0.43300033E+01  0.67495E-07
 0.43800035E+01  0.20590E-06
 0.44300036E+01  0.36271E-07
 0.44800034E+01  0.12569E-06
 0.45300035E+01  0.44026E-06
 0.45800033E+01  0.29350E-06
 0.46300035E+01 -0.67340E-07
 0.46800036E+01  0.16872E-06
 0.47300034E+01  0.25438E-06
 0.47800035E+01 -0.30431E-06
 0.48300033E+01 -0.23084E-06
 0.48800035E+01  0.19634E-06
 0.49300036E+01 -0.28122E-06
 0.49800034E+01 -0.60819E-06
 0.50300035E+01 -0.99471E-07
 0.50800033E+01 -0.32912E-06
 0.51300035E+01 -0.71729E-06
 0.51800036E+01 -0.35998E-06
 0.52300034E+01 -0.50984E-07
 0.52800035E+01 -0.17459E-06
 0.53300033E+01 -0.46387E-06
 0.53800035E+01 -0.38043E-07
 0.54300036E+01  0.11592E-06
 0.54800034E+01 -0.34202E-06
 0.55300035E+01 -0.51965E-07
 0.55800033E+01  0.39537E-06
 0.56300035E+01 -0.10149E-07
 0.56800036E+01 -0.25287E-06
 0.57300034E+01  0.25589E-06
 0.57800035E+01  0.17847E-06
 0.58300033E+01 -0.27122E-06
 0.58800035E+01 -0.98682E-07
 0.59300036E+01  0.50457E-07
 0.59800034E+01 -0.21437E-06
 0.60300035E+01 -0.17096E-06
 0.60800033E+01  0.24358E-06
 0.61300035E+01  0.32058E-06
 0.61800036E+01  0.85805E-07
 0.62300034E+01  0.22239E-06
 0.62800035E+01  0.44615E-06
 0.63300033E+01  0.19866E-06
 0.63800035E+01  0.18819E-06
 0.64300036E+01  0.40821E-06
 0.64800034E+01  0.20975E-06
 0.65300035E+01 -0.69377E-08
 0.65800033E+01  0.16906E-06
 0.66300035E+01  0.16652E-06
 0.66800036E+01 -0.19345E-06
 0.67300034E+01 -0.29421E-06
 0.67800035E+01 -0.14426E-06
 0.68300033E+01 -0.29618E-06
 0.68800035E+01 -0.43220E-06
 0.69300036E+01 -0.17793E-06
 0.69800034E+01 -0.15968E-06
 0.70300035E+01 -0.42029E-06
 0.70800033E+01 -0.38564E-06
 0.71300035E+01 -0.12113E-06
 0.71800036E+01 -0.21671E-06
 0.72300034E+01 -0.29751E-06
 0.72800035E+01  0.44988E-07
 0.73300033E+01  0.25340E-06
 0.73800035E+01  0.22159E-06
 0.74300036E+01  0.19358E-06
 0.74800034E+01  0.40573E-06
 0.75300035E+01  0.44429E-06
 0.75800033E+01  0.12018E-06
 0.76300035E+01  0.38892E-06
 0.76800036E+01  0.47021E-06
 0.77300034E+01  0.12306E-07
 0.77800035E+01  0.29810E-06
 0.78300033E+01  0.45745E-06
 0.78800035E+01  0.26195E-06
 0.79300036E+01  0.27718E-06
 0.79800034E+01  0.47727E-06
 0.80300035E+01  0.45141E-06
 0.80800037E+01 -0.21626E-06
 0.81300039E+01 -0.19940E-06
 0.81800032E+01  0.11512E-06
 0.82300034E+01 -0.35816E-06
 0.82800035E+01 -0.35924E-06
 0.83300037E+01  0.82632E-07
 0.83800039E+01 -0.42984E-06
 0.84300032E+01 -0.85636E-06
 0.84800034E+01 -0.35973E-06
 0.85300035E+01 -0.26182E-06
 0.85800037E+01 -0.47331E-06
 0.86300039E+01 -0.38253E-06
 0.86800032E+01 -0.27958E-06
 0.87300034E+01 -0.51314E-06
 0.87800035E+01 -0.71337E-06
 0.88300037E+01 -0.23202E-06
 0.88800039E+01  0.24065E-08
 0.89300032E+01 -0.28278E-06
 0.89800034E+01 -0.10055E-06
 0.90300035E+01  0.34518E-06
 0.90800037E+01  0.16416E-06
 0.91300039E+01 -0.72054E-07
 0.91800032E+01  0.44290E-06
 0.92300034E+01  0.62174E-06
 0.92800035E+01  0.35553E-06
 0.93300037E+01  0.48339E-06
 0.93800039E+01  0.65130E-06
 0.94300032E+01  0.29551E-06
 0.94800034E+01  0.15178E-06
 0.95300035E+01  0.64315E-06
 0.95800037E+01  0.42418E-06
 0.96300039E+01 -0.22749E-07
 0.96800032E+01  0.13670E-06
 0.97300034E+01  0.16561E-06
 0.97800035E+01 -0.16267E-06
 0.98300037E+01 -0.25449E-06
 0.98800039E+01  0.16278E-06
 0.99300032E+01  0.87087E-08
 0.99800034E+01 -0.40395E-06
 0.10030004E+02 -0.98723E-08
 0.10080004E+02  0.17747E-06
 0.10130004E+02 -0.29328E-06
 0.10180003E+02 -0.21011E-06
 0.10230003E+02  0.14651E-06
 0.10280004E+02 -0.24500E-06
 0.10330004E+02 -0.46878E-06
 0.10380004E+02 -0.19785E-06
 0.10430003E+02 -0.32007E-06
 0.10480003E+02 -0.56877E-06
 0.10530004E+02 -0.24342E-06
 0.10580004E+02  0.18719E-06
 0.10630004E+02  0.16806E-07
 0.10680003E+02 -0.14474E-06
 0.10730003E+02  0.12861E-06
 0.10780004E+02  0.16757E-06
 0.10830004E+02 -0.18369E-06
 0.10880004E+02 -0.18418E-06
 0.10930003E+02  0.89984E-07
 0.10980003E+02 -0.14239E-06
 0.11030004E+02 -0.12850E-06
 0.11080004E+02  0.32353E-06
 0.11130004E+02  0.18774E-06
 0.11180003E+02 -0.68449E-07
 0.11230003E+02  0.79519E-07
 0.11280004E+02  0.30423E-06
 0.11330004E+02  0.18078E-06
 0.11380004E+02  0.85813E-07
 0.11430003E+02  0.39098E-06
 0.11480003E+02  0.19887E-06
 0.11530004E+02 -0.21782E-06
 0.11580004E+02 -0.14169E-06
 0.11630004E+02  0.50753E-08
 0.11680003E+02 -0.21180E-06
 0.11730003E+02 -0.30206E-06
 0.11780004E+02  0.37295E-07
 0.11830004E+02 -0.56109E-07
 0.11880004E+02 -0.21843E-06
 0.11930003E+02  0.69251E-07
 0.11980003E+02  0.23547E-06
 0.12030004E+02  0.49172E-08
 0.12080004E+02 -0.45903E-08
 0.12130004E+02  0.29009E-06
 0.12180003E+02  0.20502E-06
 0.12230003E+02  0.34694E-07
 0.12280004E+02  0.58875E-07
 0.12330004E+02  0.20204E-06
 0.12380004E+02  0.34495E-07
 0.12430003E+02 -0.22721E-06
 0.12480003E+02  0.81457E-07
 0.12530004E+02  0.34162E-06
 0.12580004E+02 -0.73978E-07
 0.12630004E+02 -0.31615E-07
 0.12680003E+02  0.32142E-06
 0.12730003E+02  0.11393E-09
 0.12780004E+02 -0.41757E-07
 0.12830004E+02  0.19188E-06
 0.12880004E+02  0.10863E-06
 0.12930003E+02 -0.38246E-06
 0.12980003E+02 -0.37393E-06
 0.13030004E+02  0.68925E-07
 0.13080004E+02 -0.22032E-06
 0.13130004E+02 -0.20482E-06
 0.13180003E+02  0.39439E-06
 0.13230003E+02  0.35495E-06
 0.13280004E+02 -0.22331E-06
 0.13330004E+02  0.16951E-07
 0.13380004E+02  0.35299E-06
 0.13430003E+02 -0.16507E-06
 0.13480003E+02 -0.79778E-08
 0.13530004E+02  0.32000E-06
 0.13580004E+02 -0.17639E-06
 0.13630004E+02 -0.57859E-06
 0.13680003E+02 -0.32926E-06
 0.13730003E+02 -0.26256E-06
 0.13780004E+02 -0.64931E-06
 0.13830004E+02 -0.36529E-06
 0.13880004E+02 -0.15633E-06
 0.13930003E+02 -0.48330E-06
 0.13980003E+02 -0.43904E-06
 0.14030004E+02  0.24314E-07
 0.14080004E+02  0.26989E-06
 0.14130004E+02  0.14730E-06
 0.14180003E+02  0.42600E-06
 0.14230003E+02  0.63035E-06
 0.14280004E+02  0.30852E-06
 0.14330004E+02  0.10661E-06
 0.14380004E+02  0.25369E-06
 0.14430003E+02  0.15961E-06
 0.14480003E+02 -0.12359E-06
 0.14530004E+02  0.43317E-07
 0.14580004E+02  0.10676E-07
 0.14630004E+02 -0.27462E-06
 0.14680003E+02 -0.20640E-06
 0.14730003E+02  0.41058E-07
 0.14780004E+02  0.34802E-07
 0.14830004E+02 -0.58567E-07
 0.14880004E+02  0.16376E-06
 0.14930003E+02  0.17099E-06
 0.14980003E+02 -0.91426E-07
 0.15030004E+02  0.47529E-08
 0.15080004E+02  0.16916E-06
 0.15130004E+02  0.53530E-07
 0.15180003E+02 -0.45650E-08
 0.15230003E+02  0.51467E-07
 0.15280004E+02  0.33624E-07
 0.15330004E+02  0.13023E-06
 0.15380004E+02  0.26828E-06
 0.15430003E+02  0.40910E-06
 0.15480003E+02  0.48819E-06
 0.15530004E+02  0.38768E-06
 0.15580004E+02  0.31880E-06
 0.15630004E+02  0.46621E-07
 0.15680003E+02 -0.21443E-06
 0.15730003E+02 -0.13041E-06
 0.15780004E+02  0.39683E-08
 0.15830004E+02 -0.14566E-06
 0.15880004E+02 -0.25029E-06
 0.15930003E+02  0.10750E-06
 0.15980003E+02  0.18959E-06
 0.16030005E+02 -0.31402E-07
 0.16080004E+02  0.75066E-07
 0.16130003E+02  0.22754E-07
 0.16180004E+02 -0.22011E-06
 0.16230003E+02 -0.27036E-06
 0.16280005E+02 -0.37761E-06
 0.16330004E+02 -0.59809E-06
 0.16380003E+02 -0.70291E-06
 0.16430004E+02 -0.65256E-06
 0.16480003E+02 -0.54876E-06
 0.16530005E+02 -0.41900E-06
 0.16580004E+02 -0.39505E-06
 0.16630003E+02 -0.30595E-06
 0.16680004E+02 -0.17585E-06
 0.16730003E+02 -0.28705E-06
 0.16780005E+02 -0.12781E-06
 0.16830004E+02  0.14370E-06
 0.16880003E+02  0.44058E-07
 0.16930004E+02  0.27958E-06
 0.16980003E+02  0.50873E-06
 0.17030005E+02  0.48626E-06
 0.17080004E+02  0.56263E-06
 0.17130003E+02  0.32201E-06
 0.17180004E+02  0.35058E-06
 0.17230003E+02  0.35856E-06
 0.17280005E+02  0.15411E-06
 0.17330004E+02  0.32376E-06
 0.17380003E+02  0.23470E-06
 0.17430004E+02  0.15237E-06
 0.17480003E+02  0.17897E-06
 0.17530005E+02  0.20712E-06
 0.17580004E+02  0.33201E-06
 0.17630003E+02  0.25190E-07
 0.17680004E+02  0.36424E-07
 0.17730003E+02  0.20746E-06
 0.17780005E+02  0.13445E-08
 0.17830004E+02  0.15291E-06
 0.17880003E+02  0.28875E-06
 0.17930004E+02 -0.24113E-07
 0.17980003E+02 -0.30685E-06
 0.18030005E+02 -0.12875E-06
 0.18080004E+02 -0.11620E-06
 0.18130003E+02 -0.33431E-06
 0.18180004E+02 -0.19657E-06
 0.18230003E+02 -0.58766E-08
 0.18280005E+02 -0.15042E-06
 0.18330004E+02 -0.36597E-06
 0.18380003E+02 -0.66206E-07
 0.18430004E+02  0.13392E-06
 0.18480003E+02 -0.48908E-07
 0.18530005E+02 -0.33666E-07
 0.18580004E+02  0.98470E-07
 0.18630003E+02 -0.14420E-06
 0.18680004E+02 -0.28571E-06
 0.18730003E+02  0.22002E-07
 0.18780005E+02 -0.12102E-06
 0.18830004E+02 -0.22720E-06
 0.18880003E+02 -0.64475E-07
 0.18930004E+02 -0.92407E-07
 0.18980003E+02 -0.19837E-06
 0.19030005E+02 -0.30895E-06
 0.19080004E+02 -0.90276E-07
 0.19130003E+02 -0.26064E-08
 0.19180004E+02 -0.93831E-07
 0.19230003E+02  0.41332E-08
 0.19280005E+02  0.11500E-06
 0.19330004E+02  0.39393E-07
 0.19380003E+02 -0.22739E-06
 0.19430004E+02 -0.20202E-06
 0.19480003E+02 -0.68949E-07
 0.19530005E+02 -0.27594E-06
 0.19580004E+02 -0.20831E-06
 0.19630003E+02  0.15221E-06
 0.19680004E+02  0.49151E-07
 0.19730003E+02 -0.32352E-07
 0.19780005E+02  0.26167E-06
 0.19830004E+02  0.39740E-06
 0.19880003E+02  0.40542E-06
 0.19930004E+02  0.45183E-06
 0.19980003E+02  0.44020E-06
 0.20030005E+02  0.30319E-06
 0.20080004E+02  0.63663E-07
 0.20130003E+02  0.14424E-06
 0.20180004E+02  0.41728E-06
 0.20230003E+02  0.29028E-06
 0.20280005E+02  0.84952E-07
 0.20330004E+02  0.30032E-06
 0.20380003E+02  0.25647E-06
 0.20430004E+02 -0.17796E-06
 0.20480003E+02  0.12036E-06
 0.20530005E+02  0.31602E-06
 0.20580004E+02 -0.20890E-06
 0.20630003E+02 -0.17362E-06
 0.20680004E+02  0.18755E-06
 0.20730003E+02  0.18424E-07
 0.20780005E+02 -0.29265E-06
 0.20830004E+02 -0.12241E-06
 0.20880003E+02 -0.82316E-07
 0.20930004E+02 -0.57571E-06
 0.20980003E+02 -0.54931E-06
 0.21030005E+02 -0.29094E-06
 0.21080004E+02 -0.55503E-06
 0.21130003E+02 -0.58689E-06
 0.21180004E+02 -0.17703E-06
 0.21230003E+02  0.15989E-06
 0.21280005E+02  0.33439E-07
 0.21330004E+02 -0.83445E-07
 0.21380003E+02  0.33583E-06
 0.21430004E+02  0.17169E-06
 0.21480003E+02 -0.17523E-06
 0.21530005E+02 -0.60897E-06
 0.21580004E+02 -0.17942E-05
 0.21630003E+02 -0.25859E-05
 0.21680004E+02 -0.35516E-05
 0.21730003E+02 -0.49843E-05
 0.21780005E+02 -0.55702E-05
 0.21830004E+02  0.93247E-06
 0.21880003E+02  0.67274E-05
 0.21930004E+02  0.11235E-04
 0.21980003E+02  0.10610E-04
 0.22030005E+02  0.64560E-05
 0.22080004E+02  0.17456E-04
 0.22130003E+02  0.21881E-05
 0.22180004E+02 -0.22374E-04
 0.22230003E+02 -0.31647E-04
 0.22280005E+02 -0.30577E-04
 0.22330004E+02 -0.31672E-05
 0.22380003E+02  0.22463E-04
 0.22430004E+02  0.55592E-04
 0.22480003E+02  0.51184E-04
 0.22530005E+02 -0.69250E-05
 0.22580004E+02 -0.40401E-04
 0.22630003E+02 -0.25676E-04
 0.22680004E+02 -0.13858E-04
 0.22730003E+02 -0.17221E-04
 0.22780005E+02 -0.73303E-05
 0.22830004E+02 -0.25984E-04
 0.22880003E+02 -0.12860E-04
 0.22930004E+02  0.48024E-04
 0.22980003E+02  0.57783E-04
 0.23030005E+02  0.89036E-05
 0.23080004E+02 -0.85204E-04
 0.23130003E+02 -0.10279E-03
 0.23180004E+02 -0.45930E-05
 0.23230003E+02 -0.11508E-04
 0.23280005E+02 -0.25960E-04
 0.23330004E+02  0.77613E-04
 0.23380003E+02  0.10151E-03
 0.23430004E+02  0.12493E-03
 0.23480003E+02  0.13801E-03
 0.23530005E+02  0.62711E-04
 0.23580004E+02 -0.89862E-05
 0.23630003E+02 -0.35036E-04
 0.23680004E+02 -0.52920E-04
 0.23730003E+02 -0.15005E-03
 0.23780005E+02 -0.71219E-04
 0.23830004E+02 -0.14502E-04
 0.23880003E+02 -0.91421E-04
 0.23930004E+02  0.77986E-04
 0.23980003E+02  0.36705E-04
 0.24030005E+02 -0.23809E-04
 0.24080004E+02  0.25143E-03
 0.24130003E+02  0.45955E-04
 0.24180004E+02 -0.27956E-03
 0.24230003E+02 -0.24098E-03
 0.24280005E+02 -0.35781E-03
 0.24330004E+02 -0.18172E-03
 0.24380003E+02  0.22915E-03
 0.24430004E+02  0.27094E-03
 0.24480003E+02  0.27844E-03
 0.24530005E+02  0.37625E-03
 0.24580004E+02  0.28733E-03
 0.24630003E+02  0.22909E-04
 0.24680004E+02 -0.10680E-03
 0.24730003E+02 -0.31563E-03
 0.24780005E+02 -0.53421E-03
 0.24830004E+02 -0.40357E-03
 0.24880003E+02 -0.11213E-03
 0.24930004E+02  0.27585E-03
 0.24980003E+02  0.44037E-03
 0.25030005E+02  0.38207E-03
 0.25080004E+02  0.28196E-03
 0.25130003E+02 -0.34282E-04
 0.25180004E+02 -0.24774E-03
 0.25230003E+02 -0.23750E-03
 0.25280005E+02 -0.24939E-03
 0.25330004E+02 -0.95543E-04
 0.25380003E+02  0.51017E-04
 0.25430004E+02 -0.33401E-04
 0.25480003E+02  0.36412E-04
 0.25530005E+02  0.76517E-04
 0.25580004E+02  0.74056E-04
 0.25630003E+02  0.14019E-03
 0.25680004E+02  0.12097E-03
 0.25730003E+02  0.20745E-03
 0.25780005E+02  0.41452E-04
 0.25830004E+02 -0.21850E-03
 0.25880003E+02 -0.21189E-03
 0.25930004E+02 -0.24796E-03
 0.25980003E+02 -0.15522E-03
 0.26030005E+02  0.69161E-04
 0.26080004E+02  0.17864E-03
 0.26130003E+02  0.16938E-03
 0.26180004E+02  0.97572E-04
 0.26230003E+02 -0.84845E-05
 0.26280005E+02  0.83309E-05
 0.26330004E+02  0.11969E-03
 0.26380003E+02  0.53532E-04
 0.26430004E+02 -0.10766E-03
 0.26480003E+02 -0.24469E-03
 0.26530005E+02 -0.24995E-03
 0.26580004E+02 -0.10166E-03
 0.26630003E+02  0.86270E-04
 0.26680004E+02  0.18749E-03
 0.26730003E+02  0.15175E-03
 0.26780005E+02  0.17188E-03
 0.26830004E+02  0.10237E-03
 0.26880003E+02 -0.14534E-03
 0.26930004E+02 -0.99332E-04
 0.26980003E+02 -0.93022E-05
 0.27030005E+02 -0.34166E-04
 0.27080004E+02  0.11829E-03
 0.27130003E+02 -0.36051E-04
 0.27180004E+02 -0.17730E-03
 0.27230003E+02 -0.17209E-03
 0.27280005E+02 -0.25914E-03
 0.27330004E+02 -0.47083E-04
 0.27380003E+02  0.13427E-03
 0.27430004E+02  0.31699E-03
 0.27480003E+02  0.41640E-03
 0.27530005E+02  0.16915E-03
 0.27580004E+02 -0.41935E-04
 0.27630003E+02 -0.19031E-03
 0.27680004E+02 -0.22208E-03
 0.27730003E+02 -0.13791E-04
 0.27780005E+02  0.85697E-04
 0.27830004E+02  0.54294E-04
 0.27880003E+02  0.15834E-03
 0.27930004E+02  0.35357E-04
 0.27980003E+02 -0.15837E-03
 0.28030005E+02 -0.12508E-03
 0.28080004E+02 -0.26573E-04
 0.28130003E+02  0.68017E-04
 0.28180004E+02 -0.63763E-04
 0.28230003E+02 -0.15261E-03
 0.28280005E+02 -0.15293E-03
 0.28330004E+02 -0.16492E-03
 0.28380003E+02 -0.39924E-04
 0.28430004E+02  0.82819E-04
 0.28480003E+02  0.19077E-03
 0.28530005E+02  0.22658E-03
 0.28580004E+02  0.15430E-03
 0.28630003E+02 -0.70917E-05
 0.28680004E+02 -0.99960E-04
 0.28730003E+02 -0.13488E-05
 0.28780005E+02  0.85547E-04
 0.28830004E+02  0.24412E-04
 0.28880003E+02 -0.11361E-03
 0.28930004E+02 -0.11307E-03
 0.28980003E+02 -0.11955E-03
 0.29030005E+02 -0.13822E-03
 0.29080004E+02 -0.62155E-04
 0.29130003E+02 -0.58663E-04
 0.29180004E+02  0.14805E-03
 0.29230003E+02  0.38594E-03
 0.29280005E+02  0.31562E-03
 0.29330004E+02  0.21149E-04
 0.29380003E+02 -0.27647E-03
 0.29430004E+02 -0.16010E-03
 0.29480003E+02  0.56981E-04
 0.29530005E+02  0.13837E-03
 0.29580004E+02  0.16069E-03
 0.29630003E+02  0.37336E-04
 0.29680004E+02 -0.34223E-04
 0.29730003E+02 -0.67629E-04
 0.29780005E+02 -0.94618E-04
 0.29830004E+02  0.17059E-04
 0.29880003E+02  0.66631E-04
 0.29930004E+02 -0.19443E-03
 0.29980003E+02 -0.35823E-03
 0.30030005E+02 -0.23916E-03
 0.30080004E+02 -0.11196E-03
 0.30130003E+02  0.16880E-04
 0.30180004E+02  0.13120E-03
 0.30230003E+02  0.13811E-03
 0.30280005E+02  0.59080E-04
 0.30330004E+02  0.10520E-03
 0.30380003E+02  0.15356E-03
 0.30430004E+02  0.38283E-04
 0.30480003E+02 -0.61007E-04
 0.30530005E+02 -0.87720E-04
 0.30580004E+02  0.13322E-04
 0.30630003E+02  0.23504E-03
 0.30680004E+02  0.24818E-03
 0.30730003E+02 -0.51908E-04
 0.30780005E+02 -0.26246E-03
 0.30830004E+02 -0.13374E-03
 0.30880003E+02  0.77676E-04
 0.30930004E+02  0.14734E-03
 0.30980003E+02  0.18312E-03
 0.31030005E+02  0.91020E-04
 0.31080004E+02 -0.16591E-03
 0.31130003E+02 -0.17303E-03
 0.31180004E+02  0.10432E-03
 0.31230003E+02  0.15444E-03
 0.31280005E+02 -0.45993E-04
 0.31330004E+02 -0.16348E-03
 0.31380003E+02 -0.33444E-03
 0.31430004E+02 -0.35482E-03
 0.31480003E+02  0.16598E-04
 0.31530005E+02  0.23106E-03
 0.31580004E+02  0.11622E-03
 0.31630003E+02  0.81118E-05
 0.31680004E+02 -0.13462E-04
 0.31730003E+02 -0.37110E-04
 0.31780005E+02  0.26129E-04
 0.31830004E+02  0.20181E-03
 0.31880003E+02  0.26824E-03
 0.31930004E+02  0.20600E-03
 0.31980003E+02  0.18952E-03
 0.32030003E+02  0.83769E-04
 0.32080006E+02 -0.23765E-03
 0.32130005E+02 -0.52253E-03
 0.32180004E+02 -0.45904E-03
 0.32230003E+02 -0.10443E-03
 0.32280003E+02  0.21415E-03
 0.32330006E+02  0.29521E-03
 0.32380005E+02  0.10882E-03
 0.32430004E+02 -0.12502E-03
 0.32480003E+02 -0.20413E-03
 0.32530003E+02 -0.39969E-04
 0.32580006E+02  0.16946E-03
 0.32630005E+02  0.15406E-03
 0.32680004E+02  0.15553E-04
 0.32730003E+02 -0.25153E-05
 0.32780003E+02  0.14806E-03
 0.32830006E+02  0.25872E-03
 0.32880005E+02  0.16489E-03
 0.32930004E+02 -0.19243E-03
 0.32980003E+02 -0.43562E-03
 0.33030003E+02 -0.27788E-03
 0.33080006E+02 -0.41293E-04
 0.33130005E+02  0.19322E-03
 0.33180004E+02  0.32692E-03
 0.33230003E+02  0.22860E-03
 0.33280003E+02 -0.18529E-04
 0.33330006E+02 -0.35942E-03
 0.33380005E+02 -0.46707E-03
 0.33430004E+02 -0.22575E-03
 0.33480003E+02  0.22451E-03
 0.33530003E+02  0.55474E-03
 0.33580006E+02  0.42550E-03
 0.33630005E+02  0.97727E-04
 0.33680004E+02 -0.26002E-03
 0.33730003E+02 -0.38309E-03
 0.33780003E+02 -0.42161E-04
 0.33830006E+02  0.12667E-03
 0.33880005E+02 -0.83812E-05
 0.33930004E+02 -0.14604E-03
 0.33980003E+02 -0.25700E-03
 0.34030003E+02 -0.23265E-03
 0.34080006E+02 -0.44310E-04
 0.34130005E+02  0.34941E-03
 0.34180004E+02  0.56054E-03
 0.34230003E+02  0.38468E-03
 0.34280003E+02 -0.42112E-05
 0.34330006E+02 -0.30807E-03
 0.34380005E+02 -0.27097E-03
 0.34430004E+02 -0.20279E-03
 0.34480003E+02 -0.90489E-04
 0.34530003E+02  0.75308E-04
 0.34580006E+02  0.12137E-03
 0.34630005E+02  0.12438E-04
 0.34680004E+02 -0.75541E-04
 0.34730003E+02  0.43325E-04
 0.34780003E+02  0.15830E-03
 0.34830006E+02  0.18459E-03
 0.34880005E+02  0.33322E-04
 0.34930004E+02 -0.18346E-03
 0.34980003E+02 -0.34675E-03
 0.35030003E+02 -0.31381E-03
 0.35080006E+02  0.40455E-04
 0.35130005E+02  0.31316E-03
 0.35180004E+02  0.41606E-03
 0.35230003E+02  0.27511E-03
 0.35280003E+02 -0.83608E-04
 0.35330006E+02 -0.31668E-03
 0.35380005E+02 -0.52185E-03
 0.35430004E+02 -0.41718E-03
 0.35480003E+02  0.75816E-04
 0.35530003E+02  0.28626E-03
 0.35580006E+02  0.24978E-03
 0.35630005E+02  0.18612E-03
 0.35680004E+02  0.11982E-03
 0.35730003E+02  0.15327E-03
 0.35780003E+02  0.19317E-03
 0.35830006E+02  0.20596E-03
 0.35880005E+02  0.16838E-03
 0.35930004E+02  0.68313E-04
 0.35980003E+02 -0.19506E-03
 0.36030003E+02 -0.44067E-03
 0.36080006E+02 -0.33886E-03
 0.36130005E+02 -0.74725E-04
 0.36180004E+02  0.72281E-04
 0.36230003E+02  0.32999E-04
 0.36280003E+02 -0.12831E-03
 0.36330006E+02 -0.31372E-03
 0.36380005E+02 -0.17378E-03
 0.36430004E+02  0.17541E-03
 0.36480003E+02  0.18130E-03
 0.36530003E+02  0.24242E-04
 0.36580006E+02 -0.51886E-04
 0.36630005E+02  0.83331E-05
 0.36680004E+02  0.18053E-03
 0.36730003E+02  0.32657E-03
 0.36780003E+02  0.51442E-03
 0.36830006E+02  0.39339E-03
 0.36880005E+02 -0.20614E-03
 0.36930004E+02 -0.71316E-03
 0.36980003E+02 -0.74963E-03
 0.37030003E+02 -0.28287E-03
 0.37080006E+02  0.31544E-03
 0.37130005E+02  0.65482E-03
 0.37180004E+02  0.61586E-03
 0.37230003E+02  0.16245E-03
 0.37280003E+02 -0.23526E-03
 0.37330006E+02 -0.26801E-03
 0.37380005E+02 -0.14726E-03
 0.37430004E+02 -0.40573E-04
 0.37480003E+02 -0.24896E-04
 0.37530003E+02 -0.16495E-04
 0.37580006E+02  0.21152E-04
 0.37630005E+02  0.61431E-04
 0.37680004E+02  0.18693E-03
 0.37730003E+02  0.33207E-03
 0.37780003E+02  0.57788E-04
 0.37830006E+02 -0.43426E-03
 0.37880005E+02 -0.61204E-03
 0.37930004E+02 -0.60441E-03
 0.37980003E+02 -0.29530E-03
 0.38030003E+02  0.25946E-03
 0.38080006E+02  0.66229E-03
 0.38130005E+02  0.49231E-03
 0.38180004E+02 -0.30696E-03
 0.38230003E+02 -0.10505E-02
 0.38280003E+02 -0.10866E-02
 0.38330006E+02 -0.20794E-03
 0.38380005E+02  0.83336E-03
 0.38430004E+02  0.13367E-02
 0.38480003E+02  0.12002E-02
 0.38530003E+02  0.49851E-03
 0.38580006E+02 -0.14837E-03
 0.38630005E+02 -0.58220E-03
 0.38680004E+02 -0.76438E-03
 0.38730003E+02 -0.39960E-03
 0.38780003E+02  0.68076E-04
 0.38830006E+02  0.11520E-03
 0.38880005E+02 -0.23195E-03
 0.38930004E+02 -0.51764E-03
 0.38980003E+02 -0.48837E-03
 0.39030003E+02 -0.22059E-03
 0.39080006E+02  0.41034E-03
 0.39130005E+02  0.10658E-02
 0.39180004E+02  0.86981E-03
 0.39230003E+02  0.49566E-04
 0.39280003E+02 -0.10848E-03
 0.39330006E+02  0.53944E-03
 0.39380005E+02  0.83449E-03
 0.39430004E+02  0.29669E-03
 0.39480003E+02 -0.65233E-03
 0.39530003E+02 -0.13410E-02
 0.39580006E+02 -0.11616E-02
 0.39630005E+02 -0.54494E-03
 0.39680004E+02  0.17848E-03
 0.39730003E+02  0.56411E-03
 0.39780003E+02 -0.52960E-04
 0.39830006E+02 -0.69447E-03
 0.39880005E+02 -0.55741E-03
 0.39930004E+02 -0.21861E-04
 0.39980003E+02  0.25496E-03
 0.40030003E+02  0.35292E-03
 0.40080006E+02  0.68825E-03
 0.40130005E+02  0.91673E-03
 0.40180004E+02  0.97910E-03
 0.40230003E+02  0.10331E-02
 0.40280003E+02  0.57750E-03
 0.40330006E+02 -0.42700E-03
 0.40380005E+02 -0.94491E-03
 0.40430004E+02 -0.61639E-03
 0.40480003E+02 -0.38903E-04
 0.40530003E+02  0.30997E-03
 0.40580006E+02  0.23906E-03
 0.40630005E+02 -0.27780E-04
 0.40680004E+02 -0.24387E-03
 0.40730003E+02 -0.50369E-03
 0.40780003E+02 -0.42818E-03
 0.40830006E+02  0.17197E-04
 0.40880005E+02  0.12112E-03
 0.40930004E+02 -0.49509E-04
 0.40980003E+02 -0.19210E-03
 0.41030003E+02 -0.58270E-03
 0.41080006E+02 -0.84382E-03
 0.41130005E+02 -0.55045E-04
 0.41180004E+02  0.10844E-02
 0.41230003E+02  0.12337E-02
 0.41280003E+02  0.45309E-03
 0.41330006E+02 -0.54458E-03
 0.41380005E+02 -0.16430E-02
 0.41430004E+02 -0.20875E-02
 0.41480003E+02 -0.86012E-03
 0.41530003E+02  0.13530E-02
 0.41580006E+02  0.29981E-02
 0.41630005E+02  0.27735E-02
 0.41680004E+02  0.12250E-02
 0.41730003E+02 -0.54587E-03
 0.41780003E+02 -0.17647E-02
 0.41830006E+02 -0.20083E-02
 0.41880005E+02 -0.17047E-02
 0.41930004E+02 -0.94298E-03
 0.41980003E+02 -0.35637E-03
 0.42030003E+02 -0.95268E-05
 0.42080006E+02  0.48801E-03
 0.42130005E+02  0.90462E-03
 0.42180004E+02  0.13958E-02
 0.42230003E+02  0.13474E-02
 0.42280003E+02  0.18398E-03
 0.42330006E+02 -0.10409E-02
 0.42380005E+02 -0.13979E-02
 0.42430004E+02 -0.90509E-03
 0.42480003E+02  0.33975E-03
 0.42530003E+02  0.17203E-02
 0.42580006E+02  0.19228E-02
 0.42630005E+02  0.62022E-03
 0.42680004E+02 -0.10365E-02
 0.42730003E+02 -0.17950E-02
 0.42780003E+02 -0.15368E-02
 0.42830006E+02 -0.91920E-03
 0.42880005E+02 -0.64413E-04
 0.42930004E+02  0.50664E-03
 0.42980003E+02  0.35602E-03
 0.43030003E+02  0.20912E-03
 0.43080006E+02  0.46374E-03
 0.43130005E+02  0.97499E-03
 0.43180004E+02  0.12170E-02
 0.43230003E+02  0.97805E-03
 0.43280003E+02  0.61731E-03
 0.43330006E+02  0.31225E-03
 0.43380005E+02 -0.47412E-04
 0.43430004E+02 -0.89773E-03
 0.43480003E+02 -0.16417E-02
 0.43530003E+02 -0.15613E-02
 0.43580006E+02 -0.10565E-02
 0.43630005E+02 -0.19420E-03
 0.43680004E+02  0.60656E-03
 0.43730003E+02  0.75996E-03
 0.43780003E+02  0.57256E-03
 0.43830006E+02  0.50161E-03
 0.43880005E+02  0.71648E-03
 0.43930004E+02  0.10949E-02
 0.43980003E+02  0.10379E-02
 0.44030003E+02  0.16863E-04
 0.44080006E+02 -0.12057E-02
 0.44130005E+02 -0.18830E-02
 0.44180004E+02 -0.17747E-02
 0.44230003E+02 -0.63111E-03
 0.44280003E+02  0.76622E-03
 0.44330006E+02  0.14074E-02
 0.44380005E+02  0.95377E-03
 0.44430004E+02 -0.15361E-03
 0.44480003E+02 -0.11011E-02
 0.44530003E+02 -0.10652E-02
 0.44580006E+02 -0.12715E-04
 0.44630005E+02  0.95194E-03
 0.44680004E+02  0.12461E-02
 0.44730003E+02  0.93441E-03
 0.44780003E+02  0.29813E-03
 0.44830006E+02 -0.20281E-03
 0.44880005E+02 -0.21092E-03
 0.44930004E+02  0.12835E-03
 0.44980003E+02  0.36033E-03
 0.45030003E+02  0.48120E-05
 0.45080006E+02 -0.99666E-03
 0.45130005E+02 -0.18519E-02
 0.45180004E+02 -0.18618E-02
 0.45230003E+02 -0.85069E-03
 0.45280003E+02  0.63868E-03
 0.45330006E+02  0.17651E-02
 0.45380005E+02  0.17900E-02
 0.45430004E+02  0.86474E-03
 0.45480003E+02  0.10718E-03
 0.45530003E+02 -0.10253E-03
 0.45580006E+02 -0.49354E-04
 0.45630005E+02 -0.12101E-03
 0.45680004E+02 -0.60386E-03
 0.45730003E+02 -0.12356E-02
 0.45780003E+02 -0.13335E-02
 0.45830006E+02 -0.70126E-03
 0.45880005E+02  0.11806E-03
 0.45930004E+02  0.64776E-03
 0.45980003E+02  0.89987E-03
 0.46030003E+02  0.98045E-03
 0.46080006E+02  0.10176E-02
 0.46130005E+02  0.11053E-02
 0.46180004E+02  0.80444E-03
 0.46230003E+02 -0.51974E-04
 0.46280003E+02 -0.89798E-03
 0.46330006E+02 -0.12247E-02
 0.46380005E+02 -0.89446E-03
 0.46430004E+02 -0.22928E-03
 0.46480003E+02  0.20453E-03
 0.46530003E+02  0.29808E-03
 0.46580006E+02  0.17920E-03
 0.46630005E+02  0.16817E-03
 0.46680004E+02  0.32354E-03
 0.46730003E+02  0.17761E-03
 0.46780003E+02 -0.72408E-04
 0.46830006E+02 -0.32920E-03
 0.46880005E+02 -0.56246E-03
 0.46930004E+02 -0.56781E-03
 0.46980003E+02 -0.45961E-03
 0.47030003E+02 -0.29938E-03
 0.47080006E+02 -0.35359E-03
 0.47130005E+02 -0.27920E-03
 0.47180004E+02  0.16611E-03
 0.47230003E+02  0.57258E-03
 0.47280003E+02  0.86677E-03
 0.47330006E+02  0.86235E-03
 0.47380005E+02  0.45377E-03
 0.47430004E+02  0.91087E-05
 0.47480003E+02 -0.22817E-03
 0.47530003E+02 -0.34140E-03
 0.47580006E+02 -0.12754E-03
 0.47630005E+02  0.35570E-03
 0.47680004E+02  0.54773E-03
 0.47730003E+02  0.26218E-03
 0.47780003E+02 -0.27959E-03
 0.47830006E+02 -0.60273E-03
 0.47880005E+02 -0.51688E-03
 0.47930004E+02 -0.10700E-03
 0.47980003E+02  0.38740E-03
 0.48030003E+02  0.47565E-03
 0.48080006E+02  0.10661E-03
 0.48130005E+02 -0.32756E-03
 0.48180004E+02 -0.41973E-03
 0.48230003E+02 -0.21312E-03
 0.48280003E+02 -0.10068E-03
 0.48330006E+02 -0.13697E-03
 0.48380005E+02 -0.12951E-03
 0.48430004E+02 -0.41381E-04
 0.48480003E+02 -0.19435E-04
 0.48530003E+02  0.10908E-04
 0.48580006E+02  0.14520E-03
 0.48630005E+02  0.16570E-03
 0.48680004E+02  0.22494E-04
 0.48730003E+02 -0.27988E-05
 0.48780003E+02  0.22286E-03
 0.48830006E+02  0.36395E-03
 0.48880005E+02  0.10808E-03
 0.48930004E+02 -0.26157E-03
 0.48980003E+02 -0.22915E-03
 0.49030003E+02  0.78317E-04
 0.49080006E+02  0.21711E-03
 0.49130005E+02  0.19660E-03
 0.49180004E+02  0.91059E-04
 0.49230003E+02 -0.10071E-03
 0.49280003E+02 -0.73666E-04
 0.49330006E+02  0.33065E-03
 0.49380005E+02  0.66411E-03
 0.49430004E+02  0.35684E-03
 0.49480003E+02 -0.46911E-03
 0.49530003E+02 -0.11181E-02
 0.49580006E+02 -0.12838E-02
 0.49630005E+02 -0.10316E-02
 0.49680004E+02 -0.59022E-03
 0.49730003E+02 -0.37056E-04
 0.49780003E+02  0.69792E-03
 0.49830006E+02  0.13906E-02
 0.49880005E+02  0.16937E-02
 0.49930004E+02  0.13076E-02
 0.49980003E+02  0.39295E-03
 0.50030003E+02 -0.60394E-03
 0.50080006E+02 -0.12385E-02
 0.50130005E+02 -0.12486E-02
 0.50180004E+02 -0.91500E-03
 0.50230003E+02 -0.73799E-03
 0.50280003E+02 -0.54586E-03
 0.50330006E+02  0.17904E-03
 0.50380005E+02  0.10929E-02
 0.50430004E+02  0.15898E-02
 0.50480003E+02  0.14786E-02
 0.50530003E+02  0.89407E-03
 0.50580006E+02  0.14005E-03
 0.50630005E+02 -0.57475E-03
 0.50680004E+02 -0.10606E-02
 0.50730003E+02 -0.11234E-02
 0.50780003E+02 -0.86675E-03
 0.50830006E+02 -0.48612E-03
 0.50880005E+02 -0.10777E-04
 0.50930004E+02  0.40774E-03
 0.50980003E+02  0.63600E-03
 0.51030003E+02  0.44039E-03
 0.51080006E+02 -0.19759E-04
 0.51130005E+02 -0.22615E-03
 0.51180004E+02 -0.19430E-03
 0.51230003E+02 -0.21436E-03
 0.51280003E+02 -0.29501E-03
 0.51330006E+02 -0.23717E-03
 0.51380005E+02  0.10022E-04
 0.51430004E+02  0.52700E-03
 0.51480003E+02  0.98315E-03
 0.51530003E+02  0.88989E-03
 0.51580006E+02  0.28335E-03
 0.51630005E+02 -0.44151E-03
 0.51680004E+02 -0.73603E-03
 0.51730003E+02 -0.56867E-03
 0.51780003E+02 -0.32752E-03
 0.51830006E+02 -0.30172E-03
 0.51880005E+02 -0.36809E-03
 0.51930004E+02 -0.10336E-03
 0.51980003E+02  0.43495E-03
 0.52030003E+02  0.80797E-03
 0.52080006E+02  0.86948E-03
 0.52130005E+02  0.67467E-03
 0.52180004E+02  0.25448E-03
 0.52230003E+02 -0.20761E-03
 0.52280003E+02 -0.56408E-03
 0.52330006E+02 -0.74794E-03
 0.52380005E+02 -0.63765E-03
 0.52430004E+02 -0.27409E-03
 0.52480003E+02  0.21659E-03
 0.52530003E+02  0.62208E-03
 0.52580006E+02  0.65549E-03
 0.52630005E+02  0.35403E-03
 0.52680004E+02 -0.34950E-04
 0.52730003E+02 -0.45147E-03
 0.52780003E+02 -0.80559E-03
 0.52830006E+02 -0.86315E-03
 0.52880005E+02 -0.57763E-03
 0.52930004E+02 -0.13086E-03
 0.52980003E+02  0.21443E-03
 0.53030003E+02  0.38843E-03
 0.53080006E+02  0.51532E-03
 0.53130005E+02  0.50897E-03
 0.53180004E+02  0.22451E-03
 0.53230003E+02 -0.13766E-03
 0.53280003E+02 -0.30171E-03
 0.53330006E+02 -0.28715E-03
 0.53380005E+02 -0.14395E-03
 0.53430004E+02  0.19945E-03
 0.53480003E+02  0.64546E-03
 0.53530003E+02  0.88157E-03
 0.53580006E+02  0.70094E-03
 0.53630005E+02  0.22786E-03
 0.53680004E+02 -0.31901E-03
 0.53730003E+02 -0.74809E-03
 0.53780003E+02 -0.94532E-03
 0.53830006E+02 -0.97750E-03
 0.53880005E+02 -0.76636E-03
 0.53930004E+02 -0.25080E-03
 0.53980003E+02  0.32588E-03
 0.54030003E+02  0.80012E-03
 0.54080006E+02  0.98212E-03
 0.54130005E+02  0.63578E-03
 0.54180004E+02  0.97651E-04
 0.54230003E+02 -0.11336E-03
 0.54280003E+02 -0.85679E-04
 0.54330006E+02 -0.17373E-03
 0.54380005E+02 -0.47402E-03
 0.54430004E+02 -0.78255E-03
 0.54480003E+02 -0.74575E-03
 0.54530003E+02 -0.31492E-03
 0.54580006E+02  0.24862E-03
 0.54630005E+02  0.70774E-03
 0.54680004E+02  0.90926E-03
 0.54730003E+02  0.80177E-03
 0.54780003E+02  0.45690E-03
 0.54830006E+02  0.12379E-03
 0.54880005E+02 -0.10626E-03
 0.54930004E+02 -0.32689E-03
 0.54980003E+02 -0.41466E-03
 0.55030003E+02 -0.28320E-03
 0.55080006E+02 -0.79844E-04
 0.55130005E+02  0.13094E-03
 0.55180004E+02  0.23632E-03
 0.55230003E+02  0.99714E-04
 0.55280003E+02 -0.16229E-03
 0.55330006E+02 -0.44979E-03
 0.55380005E+02 -0.56681E-03
 0.55430004E+02 -0.30194E-03
 0.55480003E+02  0.12063E-03
 0.55530003E+02  0.36128E-03
 0.55580006E+02  0.38810E-03
 0.55630005E+02  0.27003E-03
 0.55680004E+02 -0.13338E-04
 0.55730003E+02 -0.37783E-03
 0.55780003E+02 -0.57991E-03
 0.55830006E+02 -0.49850E-03
 0.55880005E+02 -0.25262E-03
 0.55930004E+02  0.10165E-03
 0.55980003E+02  0.40352E-03
 0.56030003E+02  0.52988E-03
 0.56080006E+02  0.65376E-03
 0.56130005E+02  0.71733E-03
 0.56180004E+02  0.55316E-03
 0.56230003E+02  0.11980E-03
 0.56280003E+02 -0.47909E-03
 0.56330006E+02 -0.98856E-03
 0.56380005E+02 -0.11192E-02
 0.56430004E+02 -0.69614E-03
 0.56480003E+02  0.90334E-04
 0.56530003E+02  0.88692E-03
 0.56580006E+02  0.12482E-02
 0.56630005E+02  0.92225E-03
 0.56680004E+02  0.19698E-03
 0.56730003E+02 -0.44621E-03
 0.56780003E+02 -0.73895E-03
 0.56830006E+02 -0.79050E-03
 0.56880005E+02 -0.63188E-03
 0.56930004E+02 -0.23968E-03
 0.56980003E+02  0.74201E-04
 0.57030003E+02  0.16777E-03
 0.57080006E+02  0.18618E-03
 0.57130005E+02  0.15960E-03
 0.57180004E+02  0.10220E-03
 0.57230003E+02  0.11861E-04
 0.57280003E+02 -0.13270E-03
 0.57330006E+02 -0.11247E-03
 0.57380005E+02  0.14136E-03
 0.57430004E+02  0.34928E-03
 0.57480003E+02  0.37450E-03
 0.57530003E+02  0.36143E-03
 0.57580006E+02  0.34154E-03
 0.57630005E+02  0.21797E-03
 0.57680004E+02  0.13965E-03
 0.57730003E+02  0.11601E-03
 0.57780003E+02 -0.19111E-04
 0.57830006E+02 -0.16168E-03
 0.57880005E+02 -0.19629E-03
 0.57930004E+02 -0.19549E-03
 0.57980003E+02 -0.28755E-03
 0.58030003E+02 -0.44149E-03
 0.58080006E+02 -0.56518E-03
 0.58130005E+02 -0.58987E-03
 0.58180004E+02 -0.37185E-03
 0.58230003E+02  0.55003E-04
 0.58280003E+02  0.47453E-03
 0.58330006E+02  0.61329E-03
 0.58380005E+02  0.38397E-03
 0.58430004E+02  0.42704E-04
 0.58480003E+02 -0.14123E-03
 0.58530003E+02 -0.12498E-03
 0.58580006E+02 -0.38396E-04
 0.58630005E+02 -0.19934E-04
 0.58680004E+02 -0.10834E-03
 0.58730003E+02 -0.19679E-03
 0.58780003E+02 -0.15960E-03
 0.58830006E+02  0.66470E-04
 0.58880005E+02  0.35640E-03
 0.58930004E+02  0.51310E-03
 0.58980003E+02  0.52446E-03
 0.59030003E+02  0.39229E-03
 0.59080006E+02  0.14763E-03
 0.59130005E+02 -0.10262E-03
 0.59180004E+02 -0.25922E-03
 0.59230003E+02 -0.24003E-03
 0.59280003E+02 -0.86690E-04
 0.59330006E+02  0.47601E-04
 0.59380005E+02  0.42025E-04
 0.59430004E+02 -0.74909E-04
 0.59480003E+02 -0.20806E-03
 0.59530003E+02 -0.35893E-03
 0.59580006E+02 -0.53121E-03
 0.59630005E+02 -0.62297E-03
 0.59680004E+02 -0.53542E-03
 0.59730003E+02 -0.29905E-03
 0.59780003E+02 -0.38019E-04
 0.59830006E+02  0.15933E-03
 0.59880005E+02  0.33539E-03
 0.59930004E+02  0.51695E-03
 0.59980003E+02  0.59481E-03
 0.60030003E+02  0.54805E-03
 0.60080006E+02  0.37057E-03
 0.60130005E+02  0.47932E-04
 0.60180004E+02 -0.25968E-03
 0.60230003E+02 -0.43001E-03
 0.60280003E+02 -0.31640E-03
 0.60330006E+02  0.87565E-04
 0.60380005E+02  0.45748E-03
 0.60430004E+02  0.59973E-03
 0.60480003E+02  0.47486E-03
 0.60530003E+02  0.15884E-03
 0.60580006E+02 -0.14098E-03
 0.60630005E+02 -0.35287E-03
 0.60680004E+02 -0.45420E-03
 0.60730003E+02 -0.41214E-03
 0.60780003E+02 -0.26427E-03
 0.60830006E+02 -0.79377E-04
 0.60880005E+02  0.30859E-04
 0.60930004E+02  0.90209E-04
 0.60980003E+02  0.22042E-03
 0.61030003E+02  0.36557E-03
 0.61080006E+02  0.38565E-03
 0.61130005E+02  0.21722E-03
 0.61180004E+02 -0.84625E-04
 0.61230003E+02 -0.35598E-03
 0.61280003E+02 -0.48610E-03
 0.61330006E+02 -0.45874E-03
 0.61380005E+02 -0.35981E-03
 0.61430004E+02 -0.32976E-03
 0.61480003E+02 -0.28822E-03
 0.61530003E+02 -0.10274E-03
 0.61580006E+02  0.21872E-03
 0.61630005E+02  0.54771E-03
 0.61680004E+02  0.65713E-03
 0.61730003E+02  0.49996E-03
 0.61780003E+02  0.26066E-03
 0.61830006E+02  0.91598E-04
 0.61880005E+02 -0.38253E-04
 0.61930004E+02 -0.14272E-03
 0.61980003E+02 -0.22668E-03
 0.62030003E+02 -0.35592E-03
 0.62080006E+02 -0.43700E-03
 0.62130005E+02 -0.41503E-03
 0.62180004E+02 -0.31770E-03
 0.62230003E+02 -0.92430E-04
 0.62280003E+02  0.17208E-03
 0.62330006E+02  0.27135E-03
 0.62380005E+02  0.18891E-03
 0.62430004E+02  0.98936E-04
 0.62480003E+02  0.13218E-03
 0.62530003E+02  0.31313E-03
 0.62580006E+02  0.51309E-03
 0.62630005E+02  0.55244E-03
 0.62680004E+02  0.38275E-03
 0.62730003E+02  0.25361E-04
 0.62780003E+02 -0.39195E-03
 0.62830006E+02 -0.67086E-03
 0.62880005E+02 -0.75574E-03
 0.62930004E+02 -0.64025E-03
 0.62980003E+02 -0.26219E-03
 0.63030003E+02  0.27029E-03
 0.63080006E+02  0.70534E-03
 0.63130005E+02  0.83928E-03
 0.63180004E+02  0.65266E-03
 0.63230003E+02  0.28533E-03
 0.63280003E+02 -0.17810E-03
 0.63330006E+02 -0.56703E-03
 0.63380005E+02 -0.67509E-03
 0.63430004E+02 -0.56141E-03
 0.63480003E+02 -0.37008E-03
 0.63530003E+02 -0.17426E-03
 0.63580006E+02 -0.17478E-04
 0.63630005E+02  0.11572E-03
 0.63680004E+02  0.25277E-03
 0.63730003E+02  0.39705E-03
 0.63780003E+02  0.53352E-03
 0.63830006E+02  0.55325E-03
 0.63880005E+02  0.40816E-03
 0.63930004E+02  0.18099E-03
 0.63980003E+02 -0.64250E-04
 0.64030006E+02 -0.23015E-03
 0.64080002E+02 -0.31792E-03
 0.64130005E+02 -0.42127E-03
 0.64180008E+02 -0.52347E-03
 0.64230003E+02 -0.52870E-03
 0.64280006E+02 -0.40076E-03
 0.64330002E+02 -0.17317E-03
 0.64380005E+02  0.13847E-03
 0.64430008E+02  0.42395E-03
 0.64480003E+02  0.51592E-03
 0.64530006E+02  0.38798E-03
 0.64580002E+02  0.14578E-03
 0.64630005E+02 -0.47013E-04
 0.64680008E+02 -0.12257E-03
 0.64730003E+02 -0.20956E-03
 0.64780006E+02 -0.34805E-03
 0.64830002E+02 -0.44729E-03
 0.64880005E+02 -0.39934E-03
 0.64930008E+02 -0.95108E-04
 0.64980003E+02  0.30418E-03
 0.65030006E+02  0.56095E-03
 0.65080002E+02  0.62168E-03
 0.65130005E+02  0.49808E-03
 0.65180008E+02  0.26408E-03
 0.65230003E+02  0.39774E-04
 0.65280006E+02 -0.75330E-04
 0.65330002E+02 -0.10643E-03
 0.65380005E+02 -0.99554E-04
 0.65430008E+02 -0.48534E-04
 0.65480003E+02  0.10488E-04
 0.65530006E+02  0.22422E-05
 0.65580002E+02 -0.14620E-03
 0.65630005E+02 -0.33973E-03
 0.65680008E+02 -0.41001E-03
 0.65730003E+02 -0.30559E-03
 0.65780006E+02 -0.78770E-04
 0.65830002E+02  0.11865E-03
 0.65880005E+02  0.14614E-03
 0.65930008E+02  0.32543E-04
 0.65980003E+02 -0.12734E-04
 0.66030006E+02  0.12855E-03
 0.66080002E+02  0.32813E-03
 0.66130005E+02  0.40115E-03
 0.66180008E+02  0.25151E-03
 0.66230003E+02 -0.79979E-04
 0.66280006E+02 -0.41654E-03
 0.66330002E+02 -0.59394E-03
 0.66380005E+02 -0.58797E-03
 0.66430008E+02 -0.48414E-03
 0.66480003E+02 -0.32664E-03
 0.66530006E+02 -0.83186E-04
 0.66580002E+02  0.22206E-03
 0.66630005E+02  0.53088E-03
 0.66680008E+02  0.71720E-03
 0.66730003E+02  0.70059E-03
 0.66780006E+02  0.57692E-03
 0.66830002E+02  0.39500E-03
 0.66880005E+02  0.18437E-03
 0.66930008E+02  0.23565E-04
 0.66980003E+02 -0.71683E-04
 0.67030006E+02 -0.12611E-03
 0.67080002E+02 -0.17097E-03
 0.67130005E+02 -0.21172E-03
 0.67180008E+02 -0.20918E-03
 0.67230003E+02 -0.15792E-03
 0.67280006E+02 -0.98198E-04
 0.67330002E+02 -0.98740E-04
 0.67380005E+02 -0.14069E-03
 0.67430008E+02 -0.15574E-03
 0.67480003E+02 -0.15624E-03
 0.67530006E+02 -0.13747E-03
 0.67580002E+02 -0.13138E-03
 0.67630005E+02 -0.11947E-03
 0.67680008E+02 -0.29535E-04
 0.67730003E+02  0.10108E-03
 0.67780006E+02  0.16822E-03
 0.67830002E+02  0.10585E-03
 0.67880005E+02 -0.17444E-04
 0.67930008E+02 -0.11527E-03
 0.67980003E+02 -0.19159E-03
 0.68030006E+02 -0.25057E-03
 0.68080002E+02 -0.23472E-03
 0.68130005E+02 -0.13776E-03
 0.68180008E+02 -0.75962E-05
 0.68230003E+02  0.96537E-04
 0.68280006E+02  0.15691E-03
 0.68330002E+02  0.23603E-03
 0.68380005E+02  0.31679E-03
 0.68430008E+02  0.32801E-03
 0.68480003E+02  0.21031E-03
 0.68530006E+02  0.18645E-05
 0.68580002E+02 -0.14421E-03
 0.68630005E+02 -0.14177E-03
 0.68680008E+02  0.10328E-05
 0.68730003E+02  0.18587E-03
 0.68780006E+02  0.28748E-03
 0.68830002E+02  0.23882E-03
 0.68880005E+02  0.46215E-04
 0.68930008E+02 -0.20674E-03
 0.68980003E+02 -0.37192E-03
 0.69030006E+02 -0.36128E-03
 0.69080002E+02 -0.23629E-03
 0.69130005E+02 -0.64393E-04
 0.69180008E+02  0.77522E-04
 0.69230003E+02  0.14691E-03
 0.69280006E+02  0.14581E-03
 0.69330002E+02  0.78966E-04
 0.69380005E+02  0.48981E-04
 0.69430008E+02  0.86584E-04
 0.69480003E+02  0.17729E-03
 0.69530006E+02  0.30670E-03
 0.69580002E+02  0.34746E-03
 0.69630005E+02  0.24725E-03
 0.69680008E+02  0.79511E-04
 0.69730003E+02 -0.76000E-04
 0.69780006E+02 -0.19419E-03
 0.69830002E+02 -0.28159E-03
 0.69880005E+02 -0.31956E-03
 0.69930008E+02 -0.28604E-03
 0.69980003E+02 -0.19899E-03
 0.70030006E+02 -0.13717E-03
 0.70080002E+02 -0.12617E-03
 0.70130005E+02 -0.10344E-03
 0.70180008E+02 -0.86838E-04
 0.70230003E+02 -0.13628E-03
 0.70280006E+02 -0.19519E-03
 0.70330002E+02 -0.17917E-03
 0.70380005E+02 -0.73768E-04
 0.70430008E+02  0.84310E-04
 0.70480003E+02  0.23798E-03
 0.70530006E+02  0.35560E-03
 0.70580002E+02  0.41859E-03
 0.70630005E+02  0.40244E-03
 0.70680008E+02  0.32811E-03
 0.70730003E+02  0.21392E-03
 0.70780006E+02  0.33979E-04
 0.70830002E+02 -0.14719E-03
 0.70880005E+02 -0.22256E-03
 0.70930008E+02 -0.20855E-03
 0.70980003E+02 -0.18499E-03
 0.71030006E+02 -0.21766E-03
 0.71080002E+02 -0.27880E-03
 0.71130005E+02 -0.24605E-03
 0.71180008E+02 -0.13064E-03
 0.71230003E+02  0.15405E-04
 0.71280006E+02  0.17338E-03
 0.71330002E+02  0.25274E-03
 0.71380005E+02  0.24369E-03
 0.71430008E+02  0.15475E-03
 0.71480003E+02  0.11780E-04
 0.71530006E+02 -0.11027E-03
 0.71580002E+02 -0.22806E-03
 0.71630005E+02 -0.30636E-03
 0.71680008E+02 -0.24720E-03
 0.71730003E+02 -0.31604E-04
 0.71780006E+02  0.23072E-03
 0.71830002E+02  0.36552E-03
 0.71880005E+02  0.36809E-03
 0.71930008E+02  0.31615E-03
 0.71980003E+02  0.21440E-03
 0.72030006E+02  0.89519E-04
 0.72080002E+02 -0.28805E-04
 0.72130005E+02 -0.12572E-03
 0.72180008E+02 -0.19018E-03
 0.72230003E+02 -0.23915E-03
 0.72280006E+02 -0.26481E-03
 0.72330002E+02 -0.24248E-03
 0.72380005E+02 -0.16244E-03
 0.72430008E+02 -0.36101E-04
 0.72480003E+02  0.92707E-04
 0.72530006E+02  0.22633E-03
 0.72580002E+02  0.32023E-03
 0.72630005E+02  0.30320E-03
 0.72680008E+02  0.20897E-03
 0.72730003E+02  0.48645E-04
 0.72780006E+02 -0.13149E-03
 0.72830002E+02 -0.27643E-03
 0.72880005E+02 -0.36584E-03
 0.72930008E+02 -0.35806E-03
 0.72980003E+02 -0.29916E-03
 0.73030006E+02 -0.22509E-03
 0.73080002E+02 -0.92678E-04
 0.73130005E+02  0.10648E-03
 0.73180008E+02  0.29597E-03
 0.73230003E+02  0.39654E-03
 0.73280006E+02  0.38180E-03
 0.73330002E+02  0.26930E-03
 0.73380005E+02  0.14929E-03
 0.73430008E+02  0.87622E-04
 0.73480003E+02  0.44417E-04
 0.73530006E+02 -0.44756E-04
 0.73580002E+02 -0.16300E-03
 0.73630005E+02 -0.20794E-03
 0.73680008E+02 -0.10187E-03
 0.73730003E+02  0.89601E-04
 0.73780006E+02  0.23387E-03
 0.73830002E+02  0.26078E-03
 0.73880005E+02  0.14090E-03
 0.73930008E+02 -0.68898E-04
 0.73980003E+02 -0.25811E-03
 0.74030006E+02 -0.38623E-03
 0.74080002E+02 -0.43312E-03
 0.74130005E+02 -0.36715E-03
 0.74180008E+02 -0.21571E-03
 0.74230003E+02 -0.52540E-04
 0.74280006E+02  0.94265E-04
 0.74330002E+02  0.20005E-03
 0.74380005E+02  0.20557E-03
 0.74430008E+02  0.13548E-03
 0.74480003E+02  0.62778E-04
 0.74530006E+02 -0.75155E-06
 0.74580002E+02 -0.92743E-04
 0.74630005E+02 -0.19371E-03
 0.74680008E+02 -0.25568E-03
 0.74730003E+02 -0.26422E-03
 0.74780006E+02 -0.15464E-03
 0.74830002E+02  0.58174E-04
 0.74880005E+02  0.25481E-03
 0.74930008E+02  0.36125E-03
 0.74980003E+02  0.35317E-03
 0.75030006E+02  0.26219E-03
 0.75080002E+02  0.15490E-03
 0.75130005E+02  0.79443E-04
 0.75180008E+02  0.50806E-04
 0.75230003E+02  0.44330E-04
 0.75280006E+02  0.21330E-04
 0.75330002E+02 -0.50482E-05
 0.75380005E+02 -0.13272E-04
 0.75430008E+02 -0.37725E-04
 0.75480003E+02 -0.74561E-04
 0.75530006E+02 -0.81287E-04
 0.75580002E+02 -0.84159E-04
 0.75630005E+02 -0.12285E-03
 0.75680008E+02 -0.15812E-03
 0.75730003E+02 -0.11448E-03
 0.75780006E+02  0.30082E-04
 0.75830002E+02  0.21798E-03
 0.75880005E+02  0.35883E-03
 0.75930008E+02  0.36686E-03
 0.75980003E+02  0.19708E-03
 0.76030006E+02 -0.75208E-04
 0.76080002E+02 -0.30926E-03
 0.76130005E+02 -0.42057E-03
 0.76180008E+02 -0.39604E-03
 0.76230003E+02 -0.27060E-03
 0.76280006E+02 -0.10174E-03
 0.76330002E+02  0.28679E-04
 0.76380005E+02  0.78465E-04
 0.76430008E+02  0.64307E-04
 0.76480003E+02  0.10392E-04
 0.76530006E+02 -0.28459E-04
 0.76580002E+02  0.19849E-05
 0.76630005E+02  0.10246E-03
 0.76680008E+02  0.21382E-03
 0.76730003E+02  0.27296E-03
 0.76780006E+02  0.26407E-03
 0.76830002E+02  0.18217E-03
 0.76880005E+02  0.47123E-04
 0.76930008E+02 -0.80738E-04
 0.76980003E+02 -0.15010E-03
 0.77030006E+02 -0.13820E-03
 0.77080002E+02 -0.84964E-04
 0.77130005E+02 -0.41872E-04
 0.77180008E+02  0.29982E-05
 0.77230003E+02  0.32081E-04
 0.77280006E+02  0.13400E-04
 0.77330002E+02 -0.45808E-04
 0.77380005E+02 -0.12863E-03
 0.77430008E+02 -0.20590E-03
 0.77480003E+02 -0.26175E-03
 0.77530006E+02 -0.25937E-03
 0.77580002E+02 -0.18456E-03
 0.77630005E+02 -0.58556E-04
 0.77680008E+02  0.98676E-04
 0.77730003E+02  0.19764E-03
 0.77780006E+02  0.18852E-03
 0.77830002E+02  0.11552E-03
 0.77880005E+02  0.48740E-04
 0.77930008E+02  0.45714E-04
 0.77980003E+02  0.92848E-04
 0.78030006E+02  0.14330E-03
 0.78080002E+02  0.16158E-03
 0.78130005E+02  0.16236E-03
 0.78180008E+02  0.16928E-03
 0.78230003E+02  0.17262E-03
 0.78280006E+02  0.15412E-03
 0.78330002E+02  0.81557E-04
 0.78380005E+02 -0.56822E-04
 0.78430008E+02 -0.25083E-03
 0.78480003E+02 -0.42652E-03
 0.78530006E+02 -0.48384E-03
 0.78580002E+02 -0.37818E-03
 0.78630005E+02 -0.13324E-03
 0.78680008E+02  0.10966E-03
 0.78730003E+02  0.22947E-03
 0.78780006E+02  0.19826E-03
 0.78830002E+02  0.82980E-04
 0.78880005E+02  0.27860E-04
 0.78930008E+02  0.49787E-04
 0.78980003E+02  0.94338E-04
 0.79030006E+02  0.15178E-03
 0.79080002E+02  0.19240E-03
 0.79130005E+02  0.18353E-03
 0.79180008E+02  0.12358E-03
 0.79230003E+02  0.20003E-04
 0.79280006E+02 -0.87169E-04
 0.79330002E+02 -0.13377E-03
 0.79380005E+02 -0.11184E-03
 0.79430008E+02 -0.55472E-04
 0.79480003E+02 -0.16155E-04
 0.79530006E+02 -0.11785E-04
 0.79580002E+02 -0.19379E-04
 0.79630005E+02 -0.17088E-04
 0.79680008E+02  0.34634E-04
 0.79730003E+02  0.11516E-03
 0.79780006E+02  0.14154E-03
 0.79830002E+02  0.50957E-04
 0.79880005E+02 -0.13407E-03
 0.79930008E+02 -0.30277E-03
 0.79980003E+02 -0.37444E-03
 0.80030006E+02 -0.30432E-03
 0.80080002E+02 -0.10460E-03
 0.80130005E+02  0.11415E-03
 0.80180008E+02  0.22423E-03
 0.80230003E+02  0.17865E-03
 0.80280006E+02  0.54887E-04
 0.80330002E+02 -0.50190E-04
 0.80380005E+02 -0.97697E-04
 0.80430008E+02 -0.93147E-04
 0.80480003E+02 -0.53658E-04
 0.80530006E+02  0.46589E-05
 0.80580002E+02  0.32470E-04
 0.80630005E+02  0.26519E-04
 0.80680008E+02  0.20847E-04
 0.80730003E+02  0.13246E-04
 0.80780006E+02  0.15010E-04
 0.80830002E+02  0.40311E-04
 0.80880005E+02  0.10159E-03
 0.80930008E+02  0.17552E-03
 0.80980003E+02  0.23139E-03
 0.81030006E+02  0.27134E-03
 0.81080002E+02  0.25476E-03
 0.81130005E+02  0.15024E-03
 0.81180008E+02 -0.61301E-05
 0.81230003E+02 -0.15135E-03
 0.81280006E+02 -0.25022E-03
 0.81330002E+02 -0.26921E-03
 0.81380005E+02 -0.19047E-03
 0.81430008E+02 -0.54866E-04
 0.81480003E+02  0.66687E-04
 0.81530006E+02  0.86461E-04
 0.81580002E+02 -0.14925E-04
 0.81630005E+02 -0.14878E-03
 0.81680008E+02 -0.23287E-03
 0.81730003E+02 -0.23403E-03
 0.81780006E+02 -0.14473E-03
 0.81830002E+02 -0.27405E-04
 0.81880005E+02  0.46885E-04
 0.81930008E+02  0.74603E-04
 0.81980003E+02  0.11343E-03
 0.82030006E+02  0.19012E-03
 0.82080002E+02  0.25641E-03
 0.82130005E+02  0.26929E-03
 0.82180008E+02  0.18862E-03
 0.82230003E+02  0.39172E-04
 0.82280006E+02 -0.89533E-04
 0.82330002E+02 -0.15248E-03
 0.82380005E+02 -0.17276E-03
 0.82430008E+02 -0.19708E-03
 0.82480003E+02 -0.22802E-03
 0.82530006E+02 -0.22648E-03
 0.82580002E+02 -0.15873E-03
 0.82630005E+02 -0.39315E-04
 0.82680008E+02  0.85592E-04
 0.82730003E+02  0.18632E-03
 0.82780006E+02  0.25163E-03
 0.82830002E+02  0.27223E-03
 0.82880005E+02  0.24140E-03
 0.82930008E+02  0.15853E-03
 0.82980003E+02  0.40753E-04
 0.83030006E+02 -0.46482E-04
 0.83080002E+02 -0.36137E-04
 0.83130005E+02  0.34486E-04
 0.83180008E+02  0.68526E-04
 0.83230003E+02  0.58195E-05
 0.83280006E+02 -0.16554E-03
 0.83330002E+02 -0.34910E-03
 0.83380005E+02 -0.40757E-03
 0.83430008E+02 -0.27932E-03
 0.83480003E+02  0.18783E-04
 0.83530006E+02  0.32455E-03
 0.83580002E+02  0.46201E-03
 0.83630005E+02  0.41352E-03
 0.83680008E+02  0.25779E-03
 0.83730003E+02  0.85155E-04
 0.83780006E+02 -0.79903E-04
 0.83830002E+02 -0.24417E-03
 0.83880005E+02 -0.38821E-03
 0.83930008E+02 -0.47741E-03
 0.83980003E+02 -0.46001E-03
 0.84030006E+02 -0.30321E-03
 0.84080002E+02 -0.74957E-04
 0.84130005E+02  0.98080E-04
 0.84180008E+02  0.17260E-03
 0.84230003E+02  0.19978E-03
 0.84280006E+02  0.23904E-03
 0.84330002E+02  0.29326E-03
 0.84380005E+02  0.34629E-03
 0.84430008E+02  0.37078E-03
 0.84480003E+02  0.31628E-03
 0.84530006E+02  0.18598E-03
 0.84580002E+02  0.25227E-04
 0.84630005E+02 -0.12424E-03
 0.84680008E+02 -0.23434E-03
 0.84730003E+02 -0.30108E-03
 0.84780006E+02 -0.30362E-03
 0.84830002E+02 -0.22392E-03
 0.84880005E+02 -0.11533E-03
 0.84930008E+02 -0.49509E-04
 0.84980003E+02 -0.37152E-04
 0.85030006E+02 -0.30154E-04
 0.85080002E+02  0.13475E-05
 0.85130005E+02  0.61511E-04
 0.85180008E+02  0.16031E-03
 0.85230003E+02  0.25045E-03
 0.85280006E+02  0.27518E-03
 0.85330002E+02  0.23761E-03
 0.85380005E+02  0.16214E-03
 0.85430008E+02  0.53186E-04
 0.85480003E+02 -0.97816E-04
 0.85530006E+02 -0.27497E-03
 0.85580002E+02 -0.43837E-03
 0.85630005E+02 -0.52483E-03
 0.85680008E+02 -0.47198E-03
 0.85730003E+02 -0.28317E-03
 0.85780006E+02 -0.35487E-04
 0.85830002E+02  0.19032E-03
 0.85880005E+02  0.33683E-03
 0.85930008E+02  0.36915E-03
 0.85980003E+02  0.30173E-03
 0.86030006E+02  0.19493E-03
 0.86080002E+02  0.11608E-03
 0.86130005E+02  0.85845E-04
 0.86180008E+02  0.64419E-04
 0.86230003E+02  0.13433E-04
 0.86280006E+02 -0.44252E-04
 0.86330002E+02 -0.68807E-04
 0.86380005E+02 -0.75911E-04
 0.86430008E+02 -0.97359E-04
 0.86480003E+02 -0.12591E-03
 0.86530006E+02 -0.17082E-03
 0.86580002E+02 -0.22568E-03
 0.86630005E+02 -0.22034E-03
 0.86680008E+02 -0.13119E-03
 0.86730003E+02 -0.13198E-06
 0.86780006E+02  0.13302E-03
 0.86830002E+02  0.25324E-03
 0.86880005E+02  0.33614E-03
 0.86930008E+02  0.33679E-03
 0.86980003E+02  0.24281E-03
 0.87030006E+02  0.88033E-04
 0.87080002E+02 -0.46188E-04
 0.87130005E+02 -0.10250E-03
 0.87180008E+02 -0.10949E-03
 0.87230003E+02 -0.11173E-03
 0.87280006E+02 -0.14258E-03
 0.87330002E+02 -0.20691E-03
 0.87380005E+02 -0.26494E-03
 0.87430008E+02 -0.27792E-03
 0.87480003E+02 -0.21377E-03
 0.87530006E+02 -0.67054E-04
 0.87580002E+02  0.12213E-03
 0.87630005E+02  0.29816E-03
 0.87680008E+02  0.41160E-03
 0.87730003E+02  0.43407E-03
 0.87780006E+02  0.35754E-03
 0.87830002E+02  0.19529E-03
 0.87880005E+02  0.75031E-05
 0.87930008E+02 -0.13437E-03
 0.87980003E+02 -0.21199E-03
 0.88030006E+02 -0.24016E-03
 0.88080002E+02 -0.22876E-03
 0.88130005E+02 -0.17584E-03
 0.88180008E+02 -0.86839E-04
 0.88230003E+02  0.14913E-04
 0.88280006E+02  0.95258E-04
 0.88330002E+02  0.12573E-03
 0.88380005E+02  0.95120E-04
 0.88430008E+02  0.21817E-04
 0.88480003E+02 -0.53845E-04
 0.88530006E+02 -0.98775E-04
 0.88580002E+02 -0.10624E-03
 0.88630005E+02 -0.10323E-03
 0.88680008E+02 -0.93892E-04
 0.88730003E+02 -0.82634E-04
 0.88780006E+02 -0.76537E-04
 0.88830002E+02 -0.56838E-04
 0.88880005E+02 -0.20701E-04
 0.88930008E+02  0.27141E-04
 0.88980003E+02  0.57717E-04
 0.89030006E+02  0.59547E-04
 0.89080002E+02  0.46673E-04
 0.89130005E+02  0.27645E-04
 0.89180008E+02  0.29347E-04
 0.89230003E+02  0.36646E-04
 0.89280006E+02  0.18178E-04
 0.89330002E+02 -0.55512E-05
 0.89380005E+02 -0.13044E-04
 0.89430008E+02 -0.54616E-05
 0.89480003E+02  0.17937E-04
 0.89530006E+02  0.56760E-04
 0.89580002E+02  0.90337E-04
 0.89630005E+02  0.91077E-04
 0.89680008E+02  0.69014E-04
 0.89730003E+02  0.58949E-04
 0.89780006E+02  0.68048E-04
 0.89830002E+02  0.82897E-04
 0.89880005E+02  0.67947E-04
 0.89930008E+02  0.11368E-05
 0.89980003E+02 -0.70657E-04
 0.90030006E+02 -0.95617E-04
 0.90080002E+02 -0.63226E-04
 0.90130005E+02 -0.56362E-05
 0.90180008E+02  0.30098E-04
 0.90230003E+02  0.34406E-04
 0.90280006E+02  0.30479E-04
 0.90330002E+02  0.38606E-04
 0.90380005E+02  0.52492E-04
 0.90430008E+02  0.43258E-04
 0.90480003E+02 -0.14104E-04
 0.90530006E+02 -0.10609E-03
 0.90580002E+02 -0.19108E-03
 0.90630005E+02 -0.23012E-03
 0.90680008E+02 -0.20888E-03
 0.90730003E+02 -0.13825E-03
 0.90780006E+02 -0.39686E-04
 0.90830002E+02  0.51737E-04
 0.90880005E+02  0.98077E-04
 0.90930008E+02  0.90998E-04
 0.90980003E+02  0.66612E-04
 0.91030006E+02  0.68798E-04
 0.91080002E+02  0.11476E-03
 0.91130005E+02  0.17652E-03
 0.91180008E+02  0.20548E-03
 0.91230003E+02  0.16814E-03
 0.91280006E+02  0.54482E-04
 0.91330002E+02 -0.78926E-04
 0.91380005E+02 -0.16111E-03
 0.91430008E+02 -0.18734E-03
 0.91480003E+02 -0.18802E-03
 0.91530006E+02 -0.17206E-03
 0.91580002E+02 -0.11796E-03
 0.91630005E+02 -0.22008E-04
 0.91680008E+02  0.96067E-04
 0.91730003E+02  0.19088E-03
 0.91780006E+02  0.21204E-03
 0.91830002E+02  0.16025E-03
 0.91880005E+02  0.61738E-04
 0.91930008E+02 -0.47199E-04
 0.91980003E+02 -0.11672E-03
 0.92030006E+02 -0.13294E-03
 0.92080002E+02 -0.13752E-03
 0.92130005E+02 -0.15838E-03
 0.92180008E+02 -0.17115E-03
 0.92230003E+02 -0.14020E-03
 0.92280006E+02 -0.56137E-04
 0.92330002E+02  0.57641E-04
 0.92380005E+02  0.17342E-03
 0.92430008E+02  0.25033E-03
 0.92480003E+02  0.25526E-03
 0.92530006E+02  0.21724E-03
 0.92580002E+02  0.17306E-03
 0.92630005E+02  0.11120E-03
 0.92680008E+02  0.14222E-04
 0.92730003E+02 -0.96243E-04
 0.92780006E+02 -0.18359E-03
 0.92830002E+02 -0.22130E-03
 0.92880005E+02 -0.18441E-03
 0.92930008E+02 -0.92643E-04
 0.92980003E+02 -0.29822E-04
 0.93030006E+02 -0.50710E-04
 0.93080002E+02 -0.12336E-03
 0.93130005E+02 -0.16829E-03
 0.93180008E+02 -0.14925E-03
 0.93230003E+02 -0.85669E-04
 0.93280006E+02 -0.68325E-05
 0.93330002E+02  0.60383E-04
 0.93380005E+02  0.10527E-03
 0.93430008E+02  0.14069E-03
 0.93480003E+02  0.19744E-03
 0.93530006E+02  0.26074E-03
 0.93580002E+02  0.27953E-03
 0.93630005E+02  0.23030E-03
 0.93680008E+02  0.13791E-03
 0.93730003E+02  0.50170E-04
 0.93780006E+02 -0.16336E-04
 0.93830002E+02 -0.80834E-04
 0.93880005E+02 -0.16967E-03
 0.93930008E+02 -0.25545E-03
 0.93980003E+02 -0.29160E-03
 0.94030006E+02 -0.26097E-03
 0.94080002E+02 -0.16696E-03
 0.94130005E+02 -0.41711E-04
 0.94180008E+02  0.83674E-04
 0.94230003E+02  0.17399E-03
 0.94280006E+02  0.20569E-03
 0.94330002E+02  0.18728E-03
 0.94380005E+02  0.14032E-03
 0.94430008E+02  0.94141E-04
 0.94480003E+02  0.55477E-04
 0.94530006E+02  0.24296E-04
 0.94580002E+02  0.14294E-04
 0.94630005E+02  0.18069E-04
 0.94680008E+02  0.25615E-05
 0.94730003E+02 -0.55348E-04
 0.94780006E+02 -0.13946E-03
 0.94830002E+02 -0.20350E-03
 0.94880005E+02 -0.21036E-03
 0.94930008E+02 -0.15569E-03
 0.94980003E+02 -0.66463E-04
 0.95030006E+02  0.16288E-04
 0.95080002E+02  0.65207E-04
 0.95130005E+02  0.74204E-04
 0.95180008E+02  0.74399E-04
 0.95230003E+02  0.89131E-04
 0.95280006E+02  0.85057E-04
 0.95330002E+02  0.31902E-04
 0.95380005E+02 -0.56623E-04
 0.95430008E+02 -0.11401E-03
 0.95480003E+02 -0.10076E-03
 0.95530006E+02 -0.48405E-04
 0.95580002E+02  0.13335E-04
 0.95630005E+02  0.60776E-04
 0.95680008E+02  0.79573E-04
 0.95730003E+02  0.70115E-04
 0.95780006E+02  0.39971E-04
 0.95830002E+02  0.16793E-04
 0.95880005E+02  0.27009E-04
 0.95930008E+02  0.60843E-04
 0.95980003E+02  0.93320E-04
 0.96030006E+02  0.10386E-03
 0.96080002E+02  0.79537E-04
 0.96130005E+02  0.43306E-04
 0.96180008E+02  0.13034E-04
 0.96230003E+02 -0.86039E-05
 0.96280006E+02 -0.19635E-04
 0.96330002E+02 -0.33737E-04
 0.96380005E+02 -0.49182E-04
 0.96430008E+02 -0.52002E-04
 0.96480003E+02 -0.35274E-04
 0.96530006E+02 -0.66988E-05
 0.96580002E+02  0.81728E-05
 0.96630005E+02 -0.12795E-04
 0.96680008E+02 -0.72888E-04
 0.96730003E+02 -0.16310E-03
 0.96780006E+02 -0.24344E-03
 0.96830002E+02 -0.25831E-03
 0.96880005E+02 -0.19481E-03
 0.96930008E+02 -0.82057E-04
 0.96980003E+02  0.23508E-04
 0.97030006E+02  0.78582E-04
 0.97080002E+02  0.86565E-04
 0.97130005E+02  0.67345E-04
 0.97180008E+02  0.41356E-04
 0.97230003E+02  0.29387E-04
 0.97280006E+02  0.37667E-04
 0.97330002E+02  0.58654E-04
 0.97380005E+02  0.93424E-04
 0.97430008E+02  0.14604E-03
 0.97480003E+02  0.20407E-03
 0.97530006E+02  0.25644E-03
 0.97580002E+02  0.29699E-03
 0.97630005E+02  0.30802E-03
 0.97680008E+02  0.25288E-03
 0.97730003E+02  0.10436E-03
 0.97780006E+02 -0.10089E-03
 0.97830002E+02 -0.28984E-03
 0.97880005E+02 -0.40069E-03
 0.97930008E+02 -0.39766E-03
 0.97980003E+02 -0.30233E-03
 0.98030006E+02 -0.17438E-03
 0.98080002E+02 -0.66071E-04
 0.98130005E+02  0.10871E-04
 0.98180008E+02  0.81829E-04
 0.98230003E+02  0.14241E-03
 0.98280006E+02  0.15552E-03
 0.98330002E+02  0.10100E-03
 0.98380005E+02  0.20777E-06
 0.98430008E+02 -0.96447E-04
 0.98480003E+02 -0.15062E-03
 0.98530006E+02 -0.15570E-03
 0.98580002E+02 -0.11921E-03
 0.98630005E+02 -0.37561E-04
 0.98680008E+02  0.80964E-04
 0.98730003E+02  0.20177E-03
 0.98780006E+02  0.28507E-03
 0.98830002E+02  0.30160E-03
 0.98880005E+02  0.24101E-03
 0.98930008E+02  0.11998E-03
 0.98980003E+02 -0.33475E-04
 0.99030006E+02 -0.18604E-03
 0.99080002E+02 -0.28401E-03
 0.99130005E+02 -0.29435E-03
 0.99180008E+02 -0.22676E-03
 0.99230003E+02 -0.10836E-03
 0.99280006E+02  0.21239E-04
 0.99330002E+02  0.11710E-03
 0.99380005E+02  0.13829E-03
 0.99430008E+02  0.70138E-04
 0.99480003E+02 -0.43986E-04
 0.99530006E+02 -0.14209E-03
 0.99580002E+02 -0.18379E-03
 0.99630005E+02 -0.15352E-03
 0.99680008E+02 -0.70360E-04
 0.99730003E+02  0.28677E-04
 0.99780006E+02  0.11428E-03
 0.99830002E+02  0.17896E-03
 0.99880005E+02  0.22738E-03
 0.99930008E+02  0.25547E-03
 0.99980003E+02  0.24653E-03
