-0.19996643E-01 -0.23538E-06
 0.30003358E-01 -0.15535E-06
 0.80003358E-01 -0.92235E-07
 0.13000336E+00 -0.48541E-07
 0.18000336E+00 -0.17085E-07
 0.23000336E+00 -0.89660E-09
 0.28000337E+00  0.51316E-08
 0.33000335E+00  0.17904E-07
 0.38000336E+00  0.33511E-07
 0.43000337E+00  0.46419E-07
 0.48000336E+00  0.49571E-07
 0.53000337E+00  0.43184E-07
 0.58000338E+00  0.32590E-07
 0.63000339E+00  0.37156E-07
 0.68000335E+00  0.47583E-07
 0.73000336E+00  0.48817E-07
 0.78000337E+00  0.40096E-07
 0.83000338E+00  0.25457E-07
 0.88000339E+00  0.18682E-07
 0.93000335E+00  0.15167E-07
 0.98000336E+00  0.17052E-07
 0.10300034E+01  0.15260E-07
 0.10800034E+01  0.12419E-07
 0.11300033E+01 -0.18161E-08
 0.11800034E+01 -0.25477E-07
 0.12300034E+01 -0.28355E-07
 0.12800034E+01 -0.30485E-07
 0.13300034E+01 -0.26141E-07
 0.13800033E+01 -0.18925E-07
 0.14300034E+01 -0.23494E-07
 0.14800034E+01 -0.18013E-07
 0.15300034E+01 -0.13051E-07
 0.15800034E+01  0.11976E-08
 0.16300033E+01  0.13967E-07
 0.16800034E+01  0.12415E-07
 0.17300034E+01  0.20440E-07
 0.17800034E+01  0.25809E-07
 0.18300034E+01  0.25082E-07
 0.18800033E+01  0.39142E-07
 0.19300034E+01  0.53635E-07
 0.19800034E+01  0.54894E-07
 0.20300033E+01  0.62241E-07
 0.20800035E+01  0.58225E-07
 0.21300035E+01  0.54467E-07
 0.21800034E+01  0.57699E-07
 0.22300034E+01  0.46284E-07
 0.22800033E+01  0.44563E-07
 0.23300035E+01  0.44074E-07
 0.23800035E+01  0.40918E-07
 0.24300034E+01  0.36539E-07
 0.24800034E+01  0.29630E-07
 0.25300033E+01  0.11636E-07
 0.25800035E+01 -0.12022E-07
 0.26300035E+01 -0.18308E-07
 0.26800034E+01 -0.32518E-07
 0.27300034E+01 -0.45775E-07
 0.27800033E+01 -0.55027E-07
 0.28300035E+01 -0.63063E-07
 0.28800035E+01 -0.62685E-07
 0.29300034E+01 -0.62066E-07
 0.29800034E+01 -0.63440E-07
 0.30300033E+01 -0.69009E-07
 0.30800035E+01 -0.72396E-07
 0.31300035E+01 -0.72014E-07
 0.31800034E+01 -0.58761E-07
 0.32300034E+01 -0.51365E-07
 0.32800033E+01 -0.44360E-07
 0.33300035E+01 -0.37235E-07
 0.33800035E+01 -0.37129E-07
 0.34300034E+01 -0.21265E-07
 0.34800034E+01 -0.11246E-07
 0.35300033E+01 -0.90427E-08
 0.35800035E+01  0.45127E-08
 0.36300035E+01  0.22396E-07
 0.36800034E+01  0.30668E-07
 0.37300034E+01  0.26521E-07
 0.37800033E+01  0.22662E-07
 0.38300035E+01  0.27686E-07
 0.38800035E+01  0.40798E-07
 0.39300034E+01  0.51755E-07
 0.39800034E+01  0.50431E-07
 0.40300035E+01  0.50889E-07
 0.40800033E+01  0.55248E-07
 0.41300035E+01  0.58032E-07
 0.41800036E+01  0.60281E-07
 0.42300034E+01  0.51756E-07
 0.42800035E+01  0.37471E-07
 0.43300033E+01  0.25299E-07
 0.43800035E+01  0.18489E-07
 0.44300036E+01  0.11937E-07
 0.44800034E+01  0.46791E-08
 0.45300035E+01  0.43079E-08
 0.45800033E+01 -0.60611E-08
 0.46300035E+01 -0.19679E-07
 0.46800036E+01 -0.20542E-07
 0.47300034E+01 -0.22940E-07
 0.47800035E+01 -0.18675E-07
 0.48300033E+01 -0.22826E-07
 0.48800035E+01 -0.33439E-07
 0.49300036E+01 -0.29639E-07
 0.49800034E+01 -0.38799E-07
 0.50300035E+01 -0.43886E-07
 0.50800033E+01 -0.34538E-07
 0.51300035E+01 -0.22040E-07
 0.51800036E+01 -0.64298E-08
 0.52300034E+01  0.40985E-08
 0.52800035E+01  0.37653E-08
 0.53300033E+01 -0.58367E-08
 0.53800035E+01  0.36171E-08
 0.54300036E+01  0.14981E-07
 0.54800034E+01  0.73205E-08
 0.55300035E+01  0.62458E-08
 0.55800033E+01  0.66856E-08
 0.56300035E+01 -0.35873E-08
 0.56800036E+01 -0.61600E-08
 0.57300034E+01  0.45664E-08
 0.57800035E+01  0.12244E-07
 0.58300033E+01  0.15951E-07
 0.58800035E+01  0.12388E-07
 0.59300036E+01  0.88747E-08
 0.59800034E+01  0.15926E-07
 0.60300035E+01  0.13112E-07
 0.60800033E+01 -0.22986E-09
 0.61300035E+01 -0.19019E-07
 0.61800036E+01 -0.37230E-07
 0.62300034E+01 -0.40327E-07
 0.62800035E+01 -0.27658E-07
 0.63300033E+01 -0.15215E-07
 0.63800035E+01 -0.13932E-07
 0.64300036E+01 -0.12224E-07
 0.64800034E+01 -0.13175E-07
 0.65300035E+01 -0.12959E-07
 0.65800033E+01 -0.19952E-08
 0.66300035E+01  0.24013E-08
 0.66800036E+01  0.61930E-08
 0.67300034E+01  0.85932E-08
 0.67800035E+01  0.59476E-08
 0.68300033E+01  0.19382E-07
 0.68800035E+01  0.36692E-07
 0.69300036E+01  0.36693E-07
 0.69800034E+01  0.27455E-07
 0.70300035E+01  0.10705E-07
 0.70800033E+01 -0.20630E-08
 0.71300035E+01  0.31937E-08
 0.71800036E+01  0.11201E-07
 0.72300034E+01  0.18232E-07
 0.72800035E+01  0.25937E-07
 0.73300033E+01  0.24834E-07
 0.73800035E+01  0.24228E-07
 0.74300036E+01  0.30979E-07
 0.74800034E+01  0.34917E-07
 0.75300035E+01  0.41860E-07
 0.75800033E+01  0.43183E-07
 0.76300035E+01  0.24720E-07
 0.76800036E+01 -0.30850E-08
 0.77300034E+01 -0.25097E-07
 0.77800035E+01 -0.38363E-07
 0.78300033E+01 -0.43323E-07
 0.78800035E+01 -0.42092E-07
 0.79300036E+01 -0.53530E-07
 0.79800034E+01 -0.68681E-07
 0.80300035E+01 -0.79403E-07
 0.80800037E+01 -0.84561E-07
 0.81300039E+01 -0.76183E-07
 0.81800032E+01 -0.64457E-07
 0.82300034E+01 -0.50128E-07
 0.82800035E+01 -0.32484E-07
 0.83300037E+01 -0.14365E-07
 0.83800039E+01  0.60973E-08
 0.84300032E+01  0.26652E-07
 0.84800034E+01  0.38393E-07
 0.85300035E+01  0.47032E-07
 0.85800037E+01  0.56017E-07
 0.86300039E+01  0.64501E-07
 0.86800032E+01  0.60801E-07
 0.87300034E+01  0.49582E-07
 0.87800035E+01  0.43763E-07
 0.88300037E+01  0.38612E-07
 0.88800039E+01  0.39428E-07
 0.89300032E+01  0.35387E-07
 0.89800034E+01  0.26690E-07
 0.90300035E+01  0.23861E-07
 0.90800037E+01  0.16402E-07
 0.91300039E+01  0.93689E-08
 0.91800032E+01  0.52702E-08
 0.92300034E+01  0.36161E-08
 0.92800035E+01  0.17987E-08
 0.93300037E+01 -0.53356E-08
 0.93800039E+01 -0.17404E-07
 0.94300032E+01 -0.38190E-07
 0.94800034E+01 -0.51482E-07
 0.95300035E+01 -0.54706E-07
 0.95800037E+01 -0.59834E-07
 0.96300039E+01 -0.60180E-07
 0.96800032E+01 -0.51840E-07
 0.97300034E+01 -0.40696E-07
 0.97800035E+01 -0.30512E-07
 0.98300037E+01 -0.21297E-07
 0.98800039E+01 -0.17170E-07
 0.99300032E+01 -0.91838E-08
 0.99800034E+01  0.13356E-08
 0.10030004E+02  0.13333E-07
 0.10080004E+02  0.31140E-07
 0.10130004E+02  0.45882E-07
 0.10180003E+02  0.56777E-07
 0.10230003E+02  0.53845E-07
 0.10280004E+02  0.39485E-07
 0.10330004E+02  0.31064E-07
 0.10380004E+02  0.36913E-07
 0.10430003E+02  0.34204E-07
 0.10480003E+02  0.15974E-07
 0.10530004E+02  0.97546E-08
 0.10580004E+02 -0.17738E-08
 0.10630004E+02 -0.13685E-07
 0.10680003E+02 -0.13002E-07
 0.10730003E+02 -0.12918E-07
 0.10780004E+02 -0.83312E-08
 0.10830004E+02  0.13369E-08
 0.10880004E+02  0.16058E-08
 0.10930003E+02 -0.90675E-08
 0.10980003E+02 -0.14951E-07
 0.11030004E+02 -0.19854E-07
 0.11080004E+02 -0.14414E-07
 0.11130004E+02 -0.15591E-07
 0.11180003E+02 -0.25578E-07
 0.11230003E+02 -0.17580E-07
 0.11280004E+02 -0.22687E-07
 0.11330004E+02 -0.24373E-07
 0.11380004E+02 -0.13712E-07
 0.11430003E+02 -0.16023E-07
 0.11480003E+02 -0.62005E-08
 0.11530004E+02 -0.31303E-08
 0.11580004E+02 -0.71999E-08
 0.11630004E+02  0.75424E-08
 0.11680003E+02  0.25011E-07
 0.11730003E+02  0.31177E-07
 0.11780004E+02  0.31229E-07
 0.11830004E+02  0.29686E-07
 0.11880004E+02  0.16061E-07
 0.11930003E+02  0.37019E-08
 0.11980003E+02 -0.56119E-09
 0.12030004E+02  0.63016E-08
 0.12080004E+02  0.22078E-07
 0.12130004E+02  0.25065E-07
 0.12180003E+02  0.15881E-07
 0.12230003E+02  0.70840E-08
 0.12280004E+02  0.78622E-08
 0.12330004E+02  0.11457E-07
 0.12380004E+02  0.19133E-07
 0.12430003E+02  0.29508E-07
 0.12480003E+02  0.30530E-07
 0.12530004E+02  0.26869E-07
 0.12580004E+02  0.21197E-07
 0.12630004E+02  0.12363E-07
 0.12680003E+02  0.12926E-07
 0.12730003E+02  0.11316E-07
 0.12780004E+02  0.68124E-08
 0.12830004E+02  0.19787E-08
 0.12880004E+02 -0.11531E-07
 0.12930003E+02 -0.18803E-07
 0.12980003E+02 -0.30344E-07
 0.13030004E+02 -0.39734E-07
 0.13080004E+02 -0.40934E-07
 0.13130004E+02 -0.43540E-07
 0.13180003E+02 -0.42646E-07
 0.13230003E+02 -0.37482E-07
 0.13280004E+02 -0.29062E-07
 0.13330004E+02 -0.27850E-07
 0.13380004E+02 -0.24836E-07
 0.13430003E+02 -0.19277E-07
 0.13480003E+02 -0.18356E-07
 0.13530004E+02 -0.12797E-07
 0.13580004E+02 -0.12863E-07
 0.13630004E+02 -0.15366E-07
 0.13680003E+02 -0.10612E-07
 0.13730003E+02 -0.57784E-08
 0.13780004E+02  0.15134E-08
 0.13830004E+02  0.97959E-08
 0.13880004E+02  0.12224E-07
 0.13930003E+02  0.12800E-07
 0.13980003E+02  0.44523E-08
 0.14030004E+02  0.52643E-08
 0.14080004E+02  0.19806E-07
 0.14130004E+02  0.20087E-07
 0.14180003E+02  0.18420E-07
 0.14230003E+02  0.12144E-07
 0.14280004E+02  0.48132E-08
 0.14330004E+02  0.57823E-08
 0.14380004E+02  0.59394E-08
 0.14430003E+02  0.76597E-08
 0.14480003E+02  0.46531E-08
 0.14530004E+02 -0.32403E-08
 0.14580004E+02 -0.14566E-07
 0.14630004E+02 -0.26250E-07
 0.14680003E+02 -0.32801E-07
 0.14730003E+02 -0.36929E-07
 0.14780004E+02 -0.40338E-07
 0.14830004E+02 -0.39983E-07
 0.14880004E+02 -0.30951E-07
 0.14930003E+02 -0.15917E-07
 0.14980003E+02 -0.26658E-08
 0.15030004E+02  0.41831E-08
 0.15080004E+02  0.11734E-07
 0.15130004E+02  0.18430E-07
 0.15180003E+02  0.21943E-07
 0.15230003E+02  0.26627E-07
 0.15280004E+02  0.29588E-07
 0.15330004E+02  0.34236E-07
 0.15380004E+02  0.44252E-07
 0.15430003E+02  0.49450E-07
 0.15480003E+02  0.42987E-07
 0.15530004E+02  0.39116E-07
 0.15580004E+02  0.42344E-07
 0.15630004E+02  0.50332E-07
 0.15680003E+02  0.45820E-07
 0.15730003E+02  0.26665E-07
 0.15780004E+02  0.13869E-07
 0.15830004E+02  0.64114E-08
 0.15880004E+02  0.62389E-08
 0.15930003E+02  0.42293E-08
 0.15980003E+02 -0.32236E-08
 0.16030005E+02 -0.35511E-08
 0.16080004E+02 -0.79024E-08
 0.16130003E+02 -0.16115E-07
 0.16180004E+02 -0.27311E-07
 0.16230003E+02 -0.41615E-07
 0.16280005E+02 -0.48146E-07
 0.16330004E+02 -0.45438E-07
 0.16380003E+02 -0.32828E-07
 0.16430004E+02 -0.22570E-07
 0.16480003E+02 -0.24196E-07
 0.16530005E+02 -0.25857E-07
 0.16580004E+02 -0.26476E-07
 0.16630003E+02 -0.25213E-07
 0.16680004E+02 -0.18649E-07
 0.16730003E+02 -0.17601E-07
 0.16780005E+02 -0.17378E-07
 0.16830004E+02 -0.14908E-07
 0.16880003E+02 -0.97959E-08
 0.16930004E+02 -0.24688E-08
 0.16980003E+02  0.12639E-08
 0.17030005E+02  0.10778E-07
 0.17080004E+02  0.21373E-07
 0.17130003E+02  0.26218E-07
 0.17180004E+02  0.37237E-07
 0.17230003E+02  0.58087E-07
 0.17280005E+02  0.71452E-07
 0.17330004E+02  0.70090E-07
 0.17380003E+02  0.57762E-07
 0.17430004E+02  0.37527E-07
 0.17480003E+02  0.16875E-07
 0.17530005E+02 -0.98750E-09
 0.17580004E+02 -0.11665E-07
 0.17630003E+02 -0.16412E-07
 0.17680004E+02 -0.25359E-07
 0.17730003E+02 -0.33720E-07
 0.17780005E+02 -0.41499E-07
 0.17830004E+02 -0.52473E-07
 0.17880003E+02 -0.54131E-07
 0.17930004E+02 -0.40595E-07
 0.17980003E+02 -0.26789E-07
 0.18030005E+02 -0.25101E-07
 0.18080004E+02 -0.13848E-07
 0.18130003E+02 -0.45867E-08
 0.18180004E+02 -0.92281E-08
 0.18230003E+02 -0.10299E-07
 0.18280005E+02 -0.13653E-07
 0.18330004E+02 -0.10746E-07
 0.18380003E+02  0.10669E-08
 0.18430004E+02  0.10887E-07
 0.18480003E+02  0.13981E-07
 0.18530005E+02  0.17405E-07
 0.18580004E+02  0.22862E-07
 0.18630003E+02  0.25923E-07
 0.18680004E+02  0.21378E-07
 0.18730003E+02  0.23967E-07
 0.18780005E+02  0.40709E-07
 0.18830004E+02  0.46779E-07
 0.18880003E+02  0.48079E-07
 0.18930004E+02  0.41322E-07
 0.18980003E+02  0.27379E-07
 0.19030005E+02  0.23227E-07
 0.19080004E+02  0.14504E-07
 0.19130003E+02  0.14542E-08
 0.19180004E+02 -0.91289E-08
 0.19230003E+02 -0.17513E-07
 0.19280005E+02 -0.25676E-07
 0.19330004E+02 -0.27219E-07
 0.19380003E+02 -0.30448E-07
 0.19430004E+02 -0.42187E-07
 0.19480003E+02 -0.47259E-07
 0.19530005E+02 -0.53239E-07
 0.19580004E+02 -0.56059E-07
 0.19630003E+02 -0.55694E-07
 0.19680004E+02 -0.44229E-07
 0.19730003E+02 -0.26567E-07
 0.19780005E+02 -0.22890E-07
 0.19830004E+02 -0.17994E-07
 0.19880003E+02 -0.15272E-07
 0.19930004E+02 -0.11368E-07
 0.19980003E+02 -0.74847E-08
 0.20030005E+02 -0.88193E-08
 0.20080004E+02 -0.80349E-08
 0.20130003E+02 -0.10621E-08
 0.20180004E+02  0.10717E-07
 0.20230003E+02  0.12752E-07
 0.20280005E+02  0.12100E-07
 0.20330004E+02  0.14904E-07
 0.20380003E+02  0.24358E-07
 0.20430004E+02  0.33822E-07
 0.20480003E+02  0.39738E-07
 0.20530005E+02  0.46630E-07
 0.20580004E+02  0.57090E-07
 0.20630003E+02  0.66666E-07
 0.20680004E+02  0.61629E-07
 0.20730003E+02  0.51350E-07
 0.20780005E+02  0.38769E-07
 0.20830004E+02  0.31546E-07
 0.20880003E+02  0.16692E-07
 0.20930004E+02 -0.44271E-08
 0.20980003E+02 -0.11559E-07
 0.21030005E+02 -0.17301E-07
 0.21080004E+02 -0.15633E-07
 0.21130003E+02 -0.15870E-07
 0.21180004E+02 -0.21038E-07
 0.21230003E+02 -0.18934E-07
 0.21280005E+02 -0.97740E-08
 0.21330004E+02 -0.31814E-09
 0.21380003E+02  0.60049E-08
 0.21430004E+02  0.18431E-07
 0.21480003E+02  0.26783E-07
 0.21530005E+02  0.26028E-07
 0.21580004E+02  0.22987E-07
 0.21630003E+02  0.20820E-07
 0.21680004E+02  0.16827E-07
 0.21730003E+02  0.38275E-08
 0.21780005E+02 -0.15553E-08
 0.21830004E+02 -0.48827E-08
 0.21880003E+02 -0.13381E-07
 0.21930004E+02 -0.13097E-07
 0.21980003E+02 -0.14425E-07
 0.22030005E+02 -0.18777E-07
 0.22080004E+02 -0.23089E-07
 0.22130003E+02 -0.25398E-07
 0.22180004E+02 -0.20877E-07
 0.22230003E+02 -0.19329E-07
 0.22280005E+02 -0.22608E-07
 0.22330004E+02 -0.19634E-07
 0.22380003E+02 -0.16148E-07
 0.22430004E+02 -0.23799E-07
 0.22480003E+02 -0.27958E-07
 0.22530005E+02 -0.38631E-07
 0.22580004E+02 -0.54487E-07
 0.22630003E+02 -0.55386E-07
 0.22680004E+02 -0.57804E-07
 0.22730003E+02 -0.45393E-07
 0.22780005E+02 -0.24933E-07
 0.22830004E+02 -0.12371E-07
 0.22880003E+02 -0.75740E-09
 0.22930004E+02  0.60527E-08
 0.22980003E+02  0.18787E-07
 0.23030005E+02  0.34531E-07
 0.23080004E+02  0.46514E-07
 0.23130003E+02  0.50928E-07
 0.23180004E+02  0.52697E-07
 0.23230003E+02  0.57286E-07
 0.23280005E+02  0.64247E-07
 0.23330004E+02  0.63085E-07
 0.23380003E+02  0.49816E-07
 0.23430004E+02  0.34975E-07
 0.23480003E+02  0.10532E-07
 0.23530005E+02 -0.15076E-07
 0.23580004E+02 -0.35648E-07
 0.23630003E+02 -0.47608E-07
 0.23680004E+02 -0.51920E-07
 0.23730003E+02 -0.46322E-07
 0.23780005E+02 -0.32254E-07
 0.23830004E+02 -0.19009E-07
 0.23880003E+02 -0.19985E-08
 0.23930004E+02  0.72081E-08
 0.23980003E+02  0.12767E-07
 0.24030005E+02  0.16238E-07
 0.24080004E+02  0.15529E-07
 0.24130003E+02  0.87014E-08
 0.24180004E+02  0.17598E-08
 0.24230003E+02  0.13598E-08
 0.24280005E+02 -0.20345E-08
 0.24330004E+02 -0.52129E-08
 0.24380003E+02 -0.17083E-07
 0.24430004E+02 -0.40797E-07
 0.24480003E+02 -0.53893E-07
 0.24530005E+02 -0.51207E-07
 0.24580004E+02 -0.40478E-07
 0.24630003E+02 -0.18930E-07
 0.24680004E+02 -0.14922E-08
 0.24730003E+02  0.11675E-07
 0.24780005E+02  0.22677E-07
 0.24830004E+02  0.20456E-07
 0.24880003E+02  0.26474E-07
 0.24930004E+02  0.36361E-07
 0.24980003E+02  0.43276E-07
 0.25030005E+02  0.49359E-07
 0.25080004E+02  0.51859E-07
 0.25130003E+02  0.44403E-07
 0.25180004E+02  0.32793E-07
 0.25230003E+02  0.16422E-07
 0.25280005E+02  0.62340E-08
 0.25330004E+02  0.89840E-08
 0.25380003E+02 -0.90777E-08
 0.25430004E+02  0.19671E-08
 0.25480003E+02 -0.21860E-07
 0.25530005E+02 -0.90503E-09
 0.25580004E+02 -0.27692E-08
 0.25630003E+02 -0.58391E-08
 0.25680004E+02  0.50086E-08
 0.25730003E+02 -0.33167E-07
 0.25780005E+02  0.38202E-07
 0.25830004E+02 -0.21264E-06
 0.25880003E+02 -0.67165E-06
 0.25930004E+02 -0.19684E-05
 0.25980003E+02 -0.28346E-05
 0.26030005E+02 -0.27072E-05
 0.26080004E+02 -0.28313E-05
 0.26130003E+02 -0.24253E-05
 0.26180004E+02 -0.16495E-05
 0.26230003E+02  0.21378E-05
 0.26280005E+02  0.58574E-05
 0.26330004E+02  0.56447E-05
 0.26380003E+02  0.56000E-05
 0.26430004E+02  0.37739E-05
 0.26480003E+02  0.22828E-05
 0.26530005E+02  0.43672E-05
 0.26580004E+02  0.18111E-05
 0.26630003E+02 -0.52169E-06
 0.26680004E+02 -0.33025E-05
 0.26730003E+02 -0.89307E-05
 0.26780005E+02 -0.39348E-05
 0.26830004E+02 -0.36510E-05
 0.26880003E+02 -0.70386E-05
 0.26930004E+02 -0.52609E-05
 0.26980003E+02 -0.48889E-05
 0.27030005E+02  0.11956E-05
 0.27080004E+02  0.48499E-06
 0.27130003E+02 -0.12526E-05
 0.27180004E+02 -0.17287E-05
 0.27230003E+02 -0.88058E-05
 0.27280005E+02 -0.29345E-05
 0.27330004E+02  0.98957E-05
 0.27380003E+02  0.11579E-04
 0.27430004E+02  0.10794E-04
 0.27480003E+02  0.31847E-05
 0.27530005E+02 -0.50025E-05
 0.27580004E+02 -0.92893E-05
 0.27630003E+02 -0.12409E-04
 0.27680004E+02  0.75388E-05
 0.27730003E+02  0.66601E-05
 0.27780005E+02  0.33860E-05
 0.27830004E+02  0.17712E-04
 0.27880003E+02  0.13914E-04
 0.27930004E+02  0.17672E-04
 0.27980003E+02  0.21311E-04
 0.28030005E+02  0.30687E-04
 0.28080004E+02  0.18465E-04
 0.28130003E+02  0.18351E-04
 0.28180004E+02  0.24200E-04
 0.28230003E+02 -0.37278E-04
 0.28280005E+02 -0.30014E-04
 0.28330004E+02  0.11300E-04
 0.28380003E+02 -0.38534E-04
 0.28430004E+02 -0.90006E-04
 0.28480003E+02 -0.77517E-04
 0.28530005E+02 -0.44334E-04
 0.28580004E+02  0.11777E-04
 0.28630003E+02  0.63290E-04
 0.28680004E+02  0.17238E-04
 0.28730003E+02  0.17648E-04
 0.28780005E+02  0.46134E-04
 0.28830004E+02  0.20944E-04
 0.28880003E+02  0.19148E-04
 0.28930004E+02 -0.18199E-04
 0.28980003E+02 -0.76303E-04
 0.29030005E+02 -0.68358E-04
 0.29080004E+02  0.35876E-05
 0.29130003E+02  0.39509E-04
 0.29180004E+02  0.35639E-04
 0.29230003E+02  0.25975E-04
 0.29280005E+02  0.30338E-04
 0.29330004E+02  0.70163E-04
 0.29380003E+02  0.13564E-03
 0.29430004E+02  0.32892E-04
 0.29480003E+02 -0.12430E-03
 0.29530005E+02 -0.10851E-03
 0.29580004E+02 -0.70846E-04
 0.29630003E+02  0.16860E-04
 0.29680004E+02 -0.39120E-04
 0.29730003E+02 -0.14790E-03
 0.29780005E+02 -0.38029E-04
 0.29830004E+02  0.79908E-04
 0.29880003E+02  0.72672E-04
 0.29930004E+02  0.37808E-04
 0.29980003E+02  0.42512E-04
 0.30030005E+02  0.51008E-04
 0.30080004E+02  0.11276E-03
 0.30130003E+02  0.88202E-04
 0.30180004E+02  0.15347E-04
 0.30230003E+02  0.16625E-04
 0.30280005E+02 -0.43232E-04
 0.30330004E+02 -0.91315E-04
 0.30380003E+02 -0.87454E-04
 0.30430004E+02 -0.89422E-04
 0.30480003E+02 -0.59364E-04
 0.30530005E+02 -0.12973E-04
 0.30580004E+02 -0.12088E-04
 0.30630003E+02 -0.48976E-04
 0.30680004E+02 -0.13409E-04
 0.30730003E+02  0.31847E-04
 0.30780005E+02 -0.12808E-04
 0.30830004E+02 -0.19203E-04
 0.30880003E+02  0.41309E-04
 0.30930004E+02  0.70362E-04
 0.30980003E+02  0.47167E-04
 0.31030005E+02  0.57789E-04
 0.31080004E+02  0.13552E-03
 0.31130003E+02  0.13390E-03
 0.31180004E+02  0.10352E-05
 0.31230003E+02 -0.68362E-04
 0.31280005E+02 -0.14318E-04
 0.31330004E+02 -0.10383E-04
 0.31380003E+02 -0.10615E-03
 0.31430004E+02 -0.10922E-03
 0.31480003E+02 -0.17780E-04
 0.31530005E+02  0.53291E-05
 0.31580004E+02  0.30469E-04
 0.31630003E+02 -0.20634E-04
 0.31680004E+02 -0.98325E-04
 0.31730003E+02 -0.83953E-04
 0.31780005E+02 -0.31192E-04
 0.31830004E+02  0.56787E-04
 0.31880003E+02  0.49258E-04
 0.31930004E+02  0.40737E-04
 0.31980003E+02  0.69799E-04
 0.32030003E+02  0.10804E-03
 0.32080006E+02  0.15343E-03
 0.32130005E+02  0.31411E-04
 0.32180004E+02 -0.73693E-04
 0.32230003E+02 -0.27252E-04
 0.32280003E+02 -0.26135E-04
 0.32330006E+02 -0.65010E-04
 0.32380005E+02 -0.68858E-04
 0.32430004E+02 -0.95372E-05
 0.32480003E+02 -0.66782E-05
 0.32530003E+02 -0.25424E-04
 0.32580006E+02  0.28474E-06
 0.32630005E+02 -0.47412E-04
 0.32680004E+02 -0.46806E-04
 0.32730003E+02 -0.28104E-04
 0.32780003E+02 -0.15490E-05
 0.32830006E+02 -0.11171E-04
 0.32880005E+02 -0.32212E-04
 0.32930004E+02  0.13072E-04
 0.32980003E+02 -0.70922E-04
 0.33030003E+02 -0.11441E-03
 0.33080006E+02  0.26878E-04
 0.33130005E+02  0.15613E-03
 0.33180004E+02  0.15918E-03
 0.33230003E+02  0.65966E-04
 0.33280003E+02  0.80460E-04
 0.33330006E+02  0.22435E-03
 0.33380005E+02  0.20738E-03
 0.33430004E+02  0.40042E-04
 0.33480003E+02 -0.95142E-04
 0.33530003E+02 -0.17700E-03
 0.33580006E+02 -0.18184E-03
 0.33630005E+02 -0.17936E-03
 0.33680004E+02 -0.20689E-03
 0.33730003E+02 -0.15461E-03
 0.33780003E+02 -0.59916E-05
 0.33830006E+02  0.14716E-03
 0.33880005E+02  0.15739E-03
 0.33930004E+02  0.11528E-03
 0.33980003E+02  0.16291E-03
 0.34030003E+02  0.12404E-03
 0.34080006E+02 -0.25137E-04
 0.34130005E+02 -0.94425E-04
 0.34180004E+02 -0.15207E-04
 0.34230003E+02 -0.34277E-04
 0.34280003E+02 -0.15570E-03
 0.34330006E+02 -0.18116E-03
 0.34380005E+02 -0.13104E-03
 0.34430004E+02  0.27949E-04
 0.34480003E+02  0.12877E-03
 0.34530003E+02  0.36056E-04
 0.34580006E+02 -0.38498E-04
 0.34630005E+02  0.22682E-04
 0.34680004E+02  0.10317E-03
 0.34730003E+02  0.13224E-03
 0.34780003E+02  0.88021E-04
 0.34830006E+02  0.32662E-04
 0.34880005E+02 -0.15403E-04
 0.34930004E+02 -0.27463E-04
 0.34980003E+02 -0.47112E-04
 0.35030003E+02 -0.10516E-03
 0.35080006E+02 -0.54544E-04
 0.35130005E+02 -0.41244E-04
 0.35180004E+02 -0.62969E-05
 0.35230003E+02  0.12327E-03
 0.35280003E+02  0.15913E-03
 0.35330006E+02  0.33210E-04
 0.35380005E+02 -0.11915E-03
 0.35430004E+02 -0.99307E-04
 0.35480003E+02 -0.85173E-04
 0.35530003E+02 -0.38367E-04
 0.35580006E+02  0.97430E-04
 0.35630005E+02  0.10601E-03
 0.35680004E+02  0.48622E-04
 0.35730003E+02  0.53292E-05
 0.35780003E+02  0.29127E-04
 0.35830006E+02  0.31938E-04
 0.35880005E+02 -0.68818E-04
 0.35930004E+02 -0.10924E-03
 0.35980003E+02 -0.92575E-04
 0.36030003E+02 -0.44686E-04
 0.36080006E+02  0.25968E-04
 0.36130005E+02 -0.37268E-04
 0.36180004E+02 -0.71290E-04
 0.36230003E+02  0.43039E-04
 0.36280003E+02  0.10707E-03
 0.36330006E+02  0.71014E-04
 0.36380005E+02 -0.22415E-04
 0.36430004E+02 -0.22209E-04
 0.36480003E+02  0.13307E-04
 0.36530003E+02  0.67201E-05
 0.36580006E+02  0.35431E-04
 0.36630005E+02  0.31132E-05
 0.36680004E+02 -0.78644E-05
 0.36730003E+02 -0.22122E-04
 0.36780003E+02 -0.10946E-03
 0.36830006E+02 -0.14105E-03
 0.36880005E+02 -0.49353E-04
 0.36930004E+02  0.13587E-03
 0.36980003E+02  0.15077E-03
 0.37030003E+02  0.69982E-04
 0.37080006E+02  0.11641E-03
 0.37130005E+02  0.11606E-03
 0.37180004E+02 -0.86222E-05
 0.37230003E+02 -0.10232E-03
 0.37280003E+02 -0.82070E-04
 0.37330006E+02 -0.63150E-04
 0.37380005E+02 -0.40900E-04
 0.37430004E+02  0.47125E-05
 0.37480003E+02  0.37133E-04
 0.37530003E+02  0.67117E-04
 0.37580006E+02  0.38335E-04
 0.37630005E+02 -0.35785E-04
 0.37680004E+02 -0.10342E-03
 0.37730003E+02 -0.11265E-03
 0.37780003E+02 -0.56499E-04
 0.37830006E+02 -0.17427E-04
 0.37880005E+02 -0.25423E-04
 0.37930004E+02 -0.16990E-04
 0.37980003E+02  0.64622E-05
 0.38030003E+02  0.78340E-04
 0.38080006E+02  0.17635E-03
 0.38130005E+02  0.16189E-03
 0.38180004E+02  0.84813E-04
 0.38230003E+02 -0.42378E-04
 0.38280003E+02 -0.17218E-03
 0.38330006E+02 -0.14324E-03
 0.38380005E+02  0.14363E-05
 0.38430004E+02  0.75992E-04
 0.38480003E+02  0.11702E-04
 0.38530003E+02 -0.62005E-04
 0.38580006E+02 -0.66674E-04
 0.38630005E+02 -0.32077E-04
 0.38680004E+02 -0.24453E-04
 0.38730003E+02  0.18854E-04
 0.38780003E+02  0.12427E-03
 0.38830006E+02  0.11972E-03
 0.38880005E+02  0.84686E-04
 0.38930004E+02  0.59782E-04
 0.38980003E+02  0.20939E-04
 0.39030003E+02  0.55364E-05
 0.39080006E+02 -0.55330E-04
 0.39130005E+02 -0.91776E-04
 0.39180004E+02 -0.10806E-03
 0.39230003E+02 -0.57341E-04
 0.39280003E+02  0.26135E-04
 0.39330006E+02  0.14537E-04
 0.39380005E+02 -0.59332E-05
 0.39430004E+02 -0.24895E-04
 0.39480003E+02  0.24385E-04
 0.39530003E+02  0.52314E-04
 0.39580006E+02 -0.83732E-05
 0.39630005E+02  0.86573E-05
 0.39680004E+02 -0.26553E-05
 0.39730003E+02 -0.99477E-04
 0.39780003E+02 -0.10119E-03
 0.39830006E+02 -0.31999E-04
 0.39880005E+02 -0.20686E-04
 0.39930004E+02  0.54230E-05
 0.39980003E+02 -0.80238E-05
 0.40030003E+02  0.33139E-04
 0.40080006E+02  0.13810E-03
 0.40130005E+02  0.10649E-03
 0.40180004E+02  0.86787E-04
 0.40230003E+02  0.12759E-04
 0.40280003E+02 -0.54511E-04
 0.40330006E+02  0.15768E-04
 0.40380005E+02  0.52588E-04
 0.40430004E+02  0.11338E-04
 0.40480003E+02 -0.58597E-04
 0.40530003E+02 -0.64704E-04
 0.40580006E+02 -0.34035E-04
 0.40630005E+02 -0.42245E-05
 0.40680004E+02  0.26915E-04
 0.40730003E+02  0.11797E-04
 0.40780003E+02 -0.22418E-04
 0.40830006E+02 -0.36986E-05
 0.40880005E+02  0.32637E-04
 0.40930004E+02 -0.25449E-04
 0.40980003E+02 -0.12297E-03
 0.41030003E+02 -0.93932E-04
 0.41080006E+02  0.21955E-04
 0.41130005E+02  0.93451E-04
 0.41180004E+02  0.13129E-03
 0.41230003E+02  0.79415E-04
 0.41280003E+02 -0.15496E-04
 0.41330006E+02  0.26888E-06
 0.41380005E+02  0.20660E-04
 0.41430004E+02  0.76417E-05
 0.41480003E+02 -0.39699E-04
 0.41530003E+02 -0.11037E-03
 0.41580006E+02 -0.51524E-04
 0.41630005E+02 -0.15733E-05
 0.41680004E+02 -0.42670E-04
 0.41730003E+02 -0.68800E-04
 0.41780003E+02 -0.11278E-03
 0.41830006E+02 -0.89232E-04
 0.41880005E+02  0.31134E-04
 0.41930004E+02  0.11772E-03
 0.41980003E+02  0.13029E-03
 0.42030003E+02  0.10999E-03
 0.42080006E+02  0.86197E-04
 0.42130005E+02  0.92945E-04
 0.42180004E+02  0.67249E-04
 0.42230003E+02 -0.16069E-04
 0.42280003E+02 -0.17609E-04
 0.42330006E+02  0.71856E-05
 0.42380005E+02  0.48363E-05
 0.42430004E+02 -0.31677E-04
 0.42480003E+02 -0.97160E-04
 0.42530003E+02 -0.10685E-03
 0.42580006E+02 -0.10455E-03
 0.42630005E+02 -0.96943E-04
 0.42680004E+02 -0.64155E-04
 0.42730003E+02 -0.24620E-04
 0.42780003E+02  0.80656E-05
 0.42830006E+02  0.41283E-04
 0.42880005E+02  0.65858E-04
 0.42930004E+02  0.10799E-03
 0.42980003E+02  0.17016E-03
 0.43030003E+02  0.10142E-03
 0.43080006E+02 -0.30879E-04
 0.43130005E+02 -0.59957E-04
 0.43180004E+02 -0.64759E-04
 0.43230003E+02 -0.67460E-04
 0.43280003E+02 -0.66486E-05
 0.43330006E+02  0.10002E-04
 0.43380005E+02 -0.32575E-04
 0.43430004E+02 -0.26963E-04
 0.43480003E+02 -0.47694E-05
 0.43530003E+02  0.28257E-04
 0.43580006E+02  0.26041E-04
 0.43630005E+02 -0.32494E-04
 0.43680004E+02 -0.34305E-04
 0.43730003E+02  0.26086E-05
 0.43780003E+02 -0.36359E-04
 0.43830006E+02 -0.25078E-04
 0.43880005E+02  0.13595E-03
 0.43930004E+02  0.15376E-03
 0.43980003E+02  0.10175E-03
 0.44030003E+02  0.63864E-04
 0.44080006E+02 -0.10506E-03
 0.44130005E+02 -0.15784E-03
 0.44180004E+02 -0.14225E-03
 0.44230003E+02 -0.89800E-04
 0.44280003E+02  0.34570E-04
 0.44330006E+02  0.42464E-04
 0.44380005E+02  0.63777E-04
 0.44430004E+02  0.73852E-04
 0.44480003E+02 -0.34223E-05
 0.44530003E+02 -0.51958E-04
 0.44580006E+02 -0.49802E-04
 0.44630005E+02 -0.17933E-04
 0.44680004E+02  0.13183E-05
 0.44730003E+02  0.91690E-05
 0.44780003E+02 -0.15517E-04
 0.44830006E+02 -0.80487E-04
 0.44880005E+02 -0.80952E-04
 0.44930004E+02  0.65524E-04
 0.44980003E+02  0.17970E-03
 0.45030003E+02  0.16036E-03
 0.45080006E+02  0.96223E-04
 0.45130005E+02 -0.24512E-04
 0.45180004E+02 -0.84117E-05
 0.45230003E+02  0.56915E-04
 0.45280003E+02 -0.12018E-04
 0.45330006E+02 -0.48758E-04
 0.45380005E+02 -0.92911E-04
 0.45430004E+02 -0.89456E-04
 0.45480003E+02 -0.31971E-04
 0.45530003E+02 -0.11920E-05
 0.45580006E+02 -0.66995E-05
 0.45630005E+02 -0.46407E-04
 0.45680004E+02 -0.33111E-04
 0.45730003E+02 -0.37697E-04
 0.45780003E+02 -0.20718E-04
 0.45830006E+02  0.17271E-04
 0.45880005E+02  0.32682E-04
 0.45930004E+02  0.32684E-04
 0.45980003E+02 -0.24601E-04
 0.46030003E+02 -0.74187E-05
 0.46080006E+02  0.81469E-04
 0.46130005E+02  0.11864E-03
 0.46180004E+02  0.10961E-03
 0.46230003E+02  0.99057E-04
 0.46280003E+02  0.29267E-04
 0.46330006E+02 -0.49618E-04
 0.46380005E+02 -0.10192E-03
 0.46430004E+02 -0.19318E-03
 0.46480003E+02 -0.24673E-03
 0.46530003E+02 -0.27875E-03
 0.46580006E+02 -0.15297E-03
 0.46630005E+02  0.58589E-04
 0.46680004E+02  0.11204E-03
 0.46730003E+02  0.12288E-03
 0.46780003E+02  0.10361E-03
 0.46830006E+02  0.15233E-03
 0.46880005E+02  0.21342E-03
 0.46930004E+02  0.14438E-03
 0.46980003E+02  0.71626E-04
 0.47030003E+02  0.36042E-05
 0.47080006E+02  0.20925E-04
 0.47130005E+02  0.35448E-04
 0.47180004E+02 -0.62672E-04
 0.47230003E+02 -0.83294E-04
 0.47280003E+02 -0.57870E-05
 0.47330006E+02  0.77245E-04
 0.47380005E+02  0.13571E-03
 0.47430004E+02  0.45092E-04
 0.47480003E+02 -0.23748E-03
 0.47530003E+02 -0.45385E-03
 0.47580006E+02 -0.46100E-03
 0.47630005E+02 -0.18426E-03
 0.47680004E+02  0.22933E-03
 0.47730003E+02  0.43465E-03
 0.47780003E+02  0.49610E-03
 0.47830006E+02  0.40062E-03
 0.47880005E+02  0.15967E-03
 0.47930004E+02 -0.68611E-04
 0.47980003E+02 -0.29854E-03
 0.48030003E+02 -0.38402E-03
 0.48080006E+02 -0.15302E-03
 0.48130005E+02  0.14396E-03
 0.48180004E+02  0.17413E-03
 0.48230003E+02  0.12377E-04
 0.48280003E+02 -0.16900E-03
 0.48330006E+02 -0.35403E-03
 0.48380005E+02 -0.59599E-03
 0.48430004E+02 -0.70993E-03
 0.48480003E+02 -0.48222E-03
 0.48530003E+02 -0.69566E-04
 0.48580006E+02  0.34546E-03
 0.48630005E+02  0.63865E-03
 0.48680004E+02  0.62974E-03
 0.48730003E+02  0.32928E-03
 0.48780003E+02  0.13331E-03
 0.48830006E+02  0.22500E-03
 0.48880005E+02  0.28261E-03
 0.48930004E+02  0.36531E-03
 0.48980003E+02  0.62842E-03
 0.49030003E+02  0.74797E-03
 0.49080006E+02  0.52513E-03
 0.49130005E+02 -0.52131E-04
 0.49180004E+02 -0.74769E-03
 0.49230003E+02 -0.11201E-02
 0.49280003E+02 -0.10185E-02
 0.49330006E+02 -0.71646E-03
 0.49380005E+02 -0.47932E-03
 0.49430004E+02 -0.49634E-04
 0.49480003E+02  0.43177E-03
 0.49530003E+02  0.47214E-03
 0.49580006E+02  0.28594E-03
 0.49630005E+02  0.13418E-04
 0.49680004E+02 -0.23582E-03
 0.49730003E+02 -0.24379E-03
 0.49780003E+02 -0.11847E-03
 0.49830006E+02  0.28422E-04
 0.49880005E+02  0.11665E-03
 0.49930004E+02  0.29163E-03
 0.49980003E+02  0.58087E-03
 0.50030003E+02  0.60849E-03
 0.50080006E+02  0.30023E-03
 0.50130005E+02  0.45726E-04
 0.50180004E+02  0.10431E-03
 0.50230003E+02  0.19001E-03
 0.50280003E+02 -0.32619E-03
 0.50330006E+02 -0.10320E-02
 0.50380005E+02 -0.11273E-02
 0.50430004E+02 -0.85660E-03
 0.50480003E+02 -0.23733E-03
 0.50530003E+02  0.52091E-03
 0.50580006E+02  0.83783E-03
 0.50630005E+02  0.81739E-03
 0.50680004E+02  0.57971E-03
 0.50730003E+02  0.31988E-03
 0.50780003E+02  0.22080E-03
 0.50830006E+02  0.23968E-03
 0.50880005E+02  0.47519E-03
 0.50930004E+02  0.43654E-03
 0.50980003E+02 -0.96544E-04
 0.51030003E+02 -0.48304E-03
 0.51080006E+02 -0.70181E-03
 0.51130005E+02 -0.86136E-03
 0.51180004E+02 -0.90082E-03
 0.51230003E+02 -0.85703E-03
 0.51280003E+02 -0.65998E-03
 0.51330006E+02 -0.26924E-03
 0.51380005E+02  0.30861E-03
 0.51430004E+02  0.59321E-03
 0.51480003E+02  0.47726E-03
 0.51530003E+02  0.35851E-03
 0.51580006E+02  0.43483E-03
 0.51630005E+02  0.63793E-03
 0.51680004E+02  0.46485E-03
 0.51730003E+02  0.19449E-03
 0.51780003E+02  0.22441E-03
 0.51830006E+02  0.12065E-03
 0.51880005E+02 -0.12428E-03
 0.51930004E+02 -0.40647E-03
 0.51980003E+02 -0.56454E-03
 0.52030003E+02 -0.52541E-03
 0.52080006E+02 -0.46282E-03
 0.52130005E+02 -0.23335E-03
 0.52180004E+02  0.10812E-03
 0.52230003E+02  0.36147E-03
 0.52280003E+02  0.29640E-03
 0.52330006E+02  0.28410E-04
 0.52380005E+02 -0.12268E-03
 0.52430004E+02 -0.82379E-04
 0.52480003E+02  0.17224E-03
 0.52530003E+02  0.45255E-03
 0.52580006E+02  0.46766E-03
 0.52630005E+02  0.19251E-03
 0.52680004E+02 -0.14449E-04
 0.52730003E+02 -0.33125E-03
 0.52780003E+02 -0.70177E-03
 0.52830006E+02 -0.43698E-03
 0.52880005E+02  0.21833E-03
 0.52930004E+02  0.70110E-03
 0.52980003E+02  0.70641E-03
 0.53030003E+02  0.27241E-03
 0.53080006E+02 -0.16265E-03
 0.53130005E+02 -0.37059E-03
 0.53180004E+02 -0.34638E-03
 0.53230003E+02 -0.44490E-03
 0.53280003E+02 -0.58860E-03
 0.53330006E+02 -0.35593E-03
 0.53380005E+02 -0.11316E-03
 0.53430004E+02  0.30636E-04
 0.53480003E+02  0.37240E-04
 0.53530003E+02 -0.20402E-03
 0.53580006E+02 -0.23273E-03
 0.53630005E+02  0.11862E-03
 0.53680004E+02  0.64864E-03
 0.53730003E+02  0.89375E-03
 0.53780003E+02  0.73394E-03
 0.53830006E+02  0.51410E-03
 0.53880005E+02  0.26565E-03
 0.53930004E+02  0.96640E-04
 0.53980003E+02 -0.65907E-04
 0.54030003E+02 -0.34936E-03
 0.54080006E+02 -0.38809E-03
 0.54130005E+02 -0.35512E-03
 0.54180004E+02 -0.43726E-03
 0.54230003E+02 -0.38646E-03
 0.54280003E+02 -0.31744E-03
 0.54330006E+02 -0.25210E-03
 0.54380005E+02 -0.20896E-04
 0.54430004E+02  0.18991E-03
 0.54480003E+02  0.12265E-03
 0.54530003E+02  0.24063E-04
 0.54580006E+02 -0.38469E-04
 0.54630005E+02 -0.34767E-04
 0.54680004E+02  0.81764E-04
 0.54730003E+02  0.64296E-04
 0.54780003E+02  0.50728E-04
 0.54830006E+02  0.10361E-03
 0.54880005E+02  0.11133E-03
 0.54930004E+02  0.12625E-04
 0.54980003E+02 -0.11173E-03
 0.55030003E+02 -0.58952E-05
 0.55080006E+02  0.21294E-03
 0.55130005E+02  0.30429E-03
 0.55180004E+02  0.30638E-03
 0.55230003E+02  0.21872E-03
 0.55280003E+02  0.24604E-04
 0.55330006E+02 -0.15259E-03
 0.55380005E+02 -0.29152E-03
 0.55430004E+02 -0.38228E-03
 0.55480003E+02 -0.37162E-03
 0.55530003E+02 -0.24260E-03
 0.55580006E+02 -0.84217E-04
 0.55630005E+02  0.41426E-04
 0.55680004E+02  0.10318E-03
 0.55730003E+02  0.79761E-04
 0.55780003E+02  0.72191E-04
 0.55830006E+02  0.20465E-04
 0.55880005E+02  0.51412E-04
 0.55930004E+02  0.21394E-03
 0.55980003E+02  0.32326E-03
 0.56030003E+02  0.36828E-03
 0.56080006E+02  0.25080E-03
 0.56130005E+02  0.90483E-04
 0.56180004E+02 -0.88985E-04
 0.56230003E+02 -0.36240E-03
 0.56280003E+02 -0.44866E-03
 0.56330006E+02 -0.27816E-03
 0.56380005E+02 -0.23238E-04
 0.56430004E+02  0.10712E-03
 0.56480003E+02  0.81187E-04
 0.56530003E+02  0.86412E-04
 0.56580006E+02  0.14415E-03
 0.56630005E+02  0.15029E-03
 0.56680004E+02  0.33258E-04
 0.56730003E+02 -0.10150E-03
 0.56780003E+02 -0.12276E-03
 0.56830006E+02 -0.78277E-05
 0.56880005E+02  0.12775E-03
 0.56930004E+02  0.10177E-03
 0.56980003E+02 -0.16451E-04
 0.57030003E+02 -0.12852E-03
 0.57080006E+02 -0.16546E-03
 0.57130005E+02 -0.13271E-03
 0.57180004E+02 -0.16096E-03
 0.57230003E+02 -0.19517E-03
 0.57280003E+02 -0.15527E-03
 0.57330006E+02 -0.41040E-04
 0.57380005E+02  0.10470E-03
 0.57430004E+02  0.14231E-03
 0.57480003E+02  0.33627E-04
 0.57530003E+02 -0.93548E-04
 0.57580006E+02 -0.11340E-03
 0.57630005E+02  0.22800E-04
 0.57680004E+02  0.20708E-03
 0.57730003E+02  0.29896E-03
 0.57780003E+02  0.30810E-03
 0.57830006E+02  0.27416E-03
 0.57880005E+02  0.28230E-03
 0.57930004E+02  0.31107E-03
 0.57980003E+02  0.17956E-03
 0.58030003E+02 -0.11944E-03
 0.58080006E+02 -0.37813E-03
 0.58130005E+02 -0.47704E-03
 0.58180004E+02 -0.46402E-03
 0.58230003E+02 -0.30374E-03
 0.58280003E+02 -0.73926E-04
 0.58330006E+02  0.20857E-04
 0.58380005E+02 -0.58389E-04
 0.58430004E+02 -0.17367E-03
 0.58480003E+02 -0.85190E-04
 0.58530003E+02  0.19909E-03
 0.58580006E+02  0.38114E-03
 0.58630005E+02  0.34459E-03
 0.58680004E+02  0.25396E-03
 0.58730003E+02  0.18767E-03
 0.58780003E+02  0.10503E-03
 0.58830006E+02  0.21646E-04
 0.58880005E+02 -0.43417E-04
 0.58930004E+02 -0.13751E-03
 0.58980003E+02 -0.29803E-03
 0.59030003E+02 -0.43010E-03
 0.59080006E+02 -0.39117E-03
 0.59130005E+02 -0.18716E-03
 0.59180004E+02  0.78332E-05
 0.59230003E+02  0.12688E-03
 0.59280003E+02  0.21182E-03
 0.59330006E+02  0.25780E-03
 0.59380005E+02  0.27452E-03
 0.59430004E+02  0.19268E-03
 0.59480003E+02 -0.26644E-05
 0.59530003E+02 -0.14001E-03
 0.59580006E+02 -0.15538E-03
 0.59630005E+02 -0.13860E-03
 0.59680004E+02 -0.11157E-03
 0.59730003E+02 -0.30817E-04
 0.59780003E+02  0.10118E-03
 0.59830006E+02  0.23060E-03
 0.59880005E+02  0.30738E-03
 0.59930004E+02  0.28394E-03
 0.59980003E+02  0.15461E-03
 0.60030003E+02  0.12438E-04
 0.60080006E+02 -0.85140E-04
 0.60130005E+02 -0.12835E-03
 0.60180004E+02 -0.84934E-04
 0.60230003E+02 -0.14498E-04
 0.60280003E+02 -0.16538E-04
 0.60330006E+02 -0.93686E-04
 0.60380005E+02 -0.19601E-03
 0.60430004E+02 -0.23181E-03
 0.60480003E+02 -0.19319E-03
 0.60530003E+02 -0.16340E-03
 0.60580006E+02 -0.12803E-03
 0.60630005E+02 -0.10729E-03
 0.60680004E+02 -0.10599E-03
 0.60730003E+02 -0.51120E-04
 0.60780003E+02  0.43284E-04
 0.60830006E+02  0.15649E-03
 0.60880005E+02  0.26633E-03
 0.60930004E+02  0.29804E-03
 0.60980003E+02  0.25996E-03
 0.61030003E+02  0.19032E-03
 0.61080006E+02  0.76625E-04
 0.61130005E+02 -0.31373E-04
 0.61180004E+02 -0.10738E-03
 0.61230003E+02 -0.16562E-03
 0.61280003E+02 -0.21943E-03
 0.61330006E+02 -0.26322E-03
 0.61380005E+02 -0.21417E-03
 0.61430004E+02 -0.81933E-04
 0.61480003E+02  0.76335E-04
 0.61530003E+02  0.24943E-03
 0.61580006E+02  0.32931E-03
 0.61630005E+02  0.27154E-03
 0.61680004E+02  0.18010E-03
 0.61730003E+02  0.11555E-03
 0.61780003E+02  0.58099E-04
 0.61830006E+02 -0.36112E-04
 0.61880005E+02 -0.13472E-03
 0.61930004E+02 -0.16937E-03
 0.61980003E+02 -0.16021E-03
 0.62030003E+02 -0.14904E-03
 0.62080006E+02 -0.13214E-03
 0.62130005E+02 -0.98452E-04
 0.62180004E+02 -0.34318E-04
 0.62230003E+02  0.55124E-04
 0.62280003E+02  0.13305E-03
 0.62330006E+02  0.16535E-03
 0.62380005E+02  0.13550E-03
 0.62430004E+02  0.64921E-04
 0.62480003E+02 -0.23528E-04
 0.62530003E+02 -0.94496E-04
 0.62580006E+02 -0.12037E-03
 0.62630005E+02 -0.13785E-03
 0.62680004E+02 -0.12050E-03
 0.62730003E+02 -0.32091E-04
 0.62780003E+02  0.35223E-04
 0.62830006E+02  0.32083E-04
 0.62880005E+02  0.14778E-04
 0.62930004E+02  0.15321E-04
 0.62980003E+02  0.19333E-04
 0.63030003E+02 -0.25747E-04
 0.63080006E+02 -0.11904E-03
 0.63130005E+02 -0.15876E-03
 0.63180004E+02 -0.85908E-04
 0.63230003E+02  0.51169E-04
 0.63280003E+02  0.15898E-03
 0.63330006E+02  0.19118E-03
 0.63380005E+02  0.15493E-03
 0.63430004E+02  0.89782E-04
 0.63480003E+02  0.38355E-04
 0.63530003E+02  0.18124E-04
 0.63580006E+02  0.47187E-04
 0.63630005E+02  0.78768E-04
 0.63680004E+02  0.68232E-04
 0.63730003E+02  0.13496E-04
 0.63780003E+02 -0.79750E-04
 0.63830006E+02 -0.14864E-03
 0.63880005E+02 -0.17592E-03
 0.63930004E+02 -0.17225E-03
 0.63980003E+02 -0.13727E-03
 0.64030006E+02 -0.78084E-04
 0.64080002E+02  0.18379E-04
 0.64130005E+02  0.12555E-03
 0.64180008E+02  0.20254E-03
 0.64230003E+02  0.21730E-03
 0.64280006E+02  0.17103E-03
 0.64330002E+02  0.88299E-04
 0.64380005E+02 -0.56575E-05
 0.64430008E+02 -0.65878E-04
 0.64480003E+02 -0.96421E-04
 0.64530006E+02 -0.10827E-03
 0.64580002E+02 -0.11065E-03
 0.64630005E+02 -0.12541E-03
 0.64680008E+02 -0.11202E-03
 0.64730003E+02 -0.81472E-04
 0.64780006E+02 -0.58586E-04
 0.64830002E+02 -0.24405E-04
 0.64880005E+02 -0.30476E-04
 0.64930008E+02 -0.64201E-04
 0.64980003E+02 -0.61440E-04
 0.65030006E+02 -0.14482E-04
 0.65080002E+02  0.49597E-04
 0.65130005E+02  0.10718E-03
 0.65180008E+02  0.16391E-03
 0.65230003E+02  0.16617E-03
 0.65280006E+02  0.11186E-03
 0.65330002E+02  0.78686E-04
 0.65380005E+02  0.70111E-04
 0.65430008E+02  0.74901E-04
 0.65480003E+02  0.71611E-04
 0.65530006E+02  0.34126E-04
 0.65580002E+02  0.16952E-04
 0.65630005E+02  0.25882E-04
 0.65680008E+02  0.16372E-04
 0.65730003E+02  0.15164E-04
 0.65780006E+02  0.38401E-04
 0.65830002E+02  0.65607E-04
 0.65880005E+02  0.65804E-04
 0.65930008E+02 -0.67639E-05
 0.65980003E+02 -0.14215E-03
 0.66030006E+02 -0.25540E-03
 0.66080002E+02 -0.30970E-03
 0.66130005E+02 -0.32213E-03
 0.66180008E+02 -0.26748E-03
 0.66230003E+02 -0.14189E-03
 0.66280006E+02 -0.23966E-05
 0.66330002E+02  0.87470E-04
 0.66380005E+02  0.10154E-03
 0.66430008E+02  0.80154E-04
 0.66480003E+02  0.61475E-04
 0.66530006E+02  0.38734E-04
 0.66580002E+02  0.13443E-04
 0.66630005E+02 -0.20725E-05
 0.66680008E+02  0.84969E-05
 0.66730003E+02  0.76806E-04
 0.66780006E+02  0.19120E-03
 0.66830002E+02  0.26876E-03
 0.66880005E+02  0.25817E-03
 0.66930008E+02  0.18601E-03
 0.66980003E+02  0.10279E-03
 0.67030006E+02  0.53147E-04
 0.67080002E+02  0.29485E-04
 0.67130005E+02 -0.99667E-05
 0.67180008E+02 -0.59934E-04
 0.67230003E+02 -0.96808E-04
 0.67280006E+02 -0.11363E-03
 0.67330002E+02 -0.10078E-03
 0.67380005E+02 -0.75305E-04
 0.67430008E+02 -0.62594E-04
 0.67480003E+02 -0.72026E-04
 0.67530006E+02 -0.12881E-03
 0.67580002E+02 -0.20205E-03
 0.67630005E+02 -0.24837E-03
 0.67680008E+02 -0.24903E-03
 0.67730003E+02 -0.17273E-03
 0.67780006E+02 -0.51404E-04
 0.67830002E+02  0.94295E-04
 0.67880005E+02  0.24676E-03
 0.67930008E+02  0.34390E-03
 0.67980003E+02  0.33424E-03
 0.68030006E+02  0.21359E-03
 0.68080002E+02  0.60405E-04
 0.68130005E+02 -0.57827E-04
 0.68180008E+02 -0.12065E-03
 0.68230003E+02 -0.11622E-03
 0.68280006E+02 -0.61172E-04
 0.68330002E+02  0.97027E-05
 0.68380005E+02  0.52945E-04
 0.68430008E+02  0.30818E-04
 0.68480003E+02 -0.21352E-04
 0.68530006E+02 -0.61357E-04
 0.68580002E+02 -0.97525E-04
 0.68630005E+02 -0.10833E-03
 0.68680008E+02 -0.78383E-04
 0.68730003E+02 -0.30856E-04
 0.68780006E+02  0.18282E-04
 0.68830002E+02  0.59109E-04
 0.68880005E+02  0.58408E-04
 0.68930008E+02  0.13761E-04
 0.68980003E+02 -0.16980E-04
 0.69030006E+02 -0.16495E-04
 0.69080002E+02 -0.56229E-05
 0.69130005E+02 -0.63677E-06
 0.69180008E+02 -0.45975E-07
 0.69230003E+02  0.92921E-05
 0.69280006E+02  0.26208E-05
 0.69330002E+02  0.18728E-05
 0.69380005E+02  0.46076E-04
 0.69430008E+02  0.95406E-04
 0.69480003E+02  0.11477E-03
 0.69530006E+02  0.89063E-04
 0.69580002E+02  0.34994E-04
 0.69630005E+02  0.31667E-05
 0.69680008E+02  0.70973E-06
 0.69730003E+02 -0.69100E-06
 0.69780006E+02 -0.21671E-04
 0.69830002E+02 -0.64751E-04
 0.69880005E+02 -0.11110E-03
 0.69930008E+02 -0.12639E-03
 0.69980003E+02 -0.87593E-04
 0.70030006E+02 -0.28513E-04
 0.70080002E+02  0.11407E-04
 0.70130005E+02  0.23417E-04
 0.70180008E+02  0.87708E-05
 0.70230003E+02 -0.50846E-05
 0.70280006E+02 -0.58505E-06
 0.70330002E+02  0.31701E-04
 0.70380005E+02  0.71631E-04
 0.70430008E+02  0.89414E-04
 0.70480003E+02  0.81349E-04
 0.70530006E+02  0.47056E-04
 0.70580002E+02  0.18692E-04
 0.70630005E+02  0.57273E-05
 0.70680008E+02 -0.16427E-04
 0.70730003E+02 -0.57650E-04
 0.70780006E+02 -0.96363E-04
 0.70830002E+02 -0.86466E-04
 0.70880005E+02 -0.18969E-04
 0.70930008E+02  0.59121E-04
 0.70980003E+02  0.91133E-04
 0.71030006E+02  0.50468E-04
 0.71080002E+02 -0.39711E-04
 0.71130005E+02 -0.11746E-03
 0.71180008E+02 -0.15527E-03
 0.71230003E+02 -0.14469E-03
 0.71280006E+02 -0.73106E-04
 0.71330002E+02  0.11340E-04
 0.71380005E+02  0.63671E-04
 0.71430008E+02  0.11150E-03
 0.71480003E+02  0.16845E-03
 0.71530006E+02  0.18957E-03
 0.71580002E+02  0.14519E-03
 0.71630005E+02  0.40413E-04
 0.71680008E+02 -0.64914E-04
 0.71730003E+02 -0.10602E-03
 0.71780006E+02 -0.10534E-03
 0.71830002E+02 -0.86203E-04
 0.71880005E+02 -0.52498E-04
 0.71930008E+02 -0.95282E-05
 0.71980003E+02  0.34900E-04
 0.72030006E+02  0.54858E-04
 0.72080002E+02  0.55471E-04
 0.72130005E+02  0.61795E-04
 0.72180008E+02  0.75134E-04
 0.72230003E+02  0.73170E-04
 0.72280006E+02  0.37570E-04
 0.72330002E+02 -0.95272E-05
 0.72380005E+02 -0.44870E-04
 0.72430008E+02 -0.67722E-04
 0.72480003E+02 -0.67935E-04
 0.72530006E+02 -0.52594E-04
 0.72580002E+02 -0.36508E-04
 0.72630005E+02 -0.29679E-04
 0.72680008E+02 -0.31013E-04
 0.72730003E+02 -0.16297E-04
 0.72780006E+02  0.10057E-04
 0.72830002E+02  0.23908E-04
 0.72880005E+02  0.30664E-04
 0.72930008E+02  0.33268E-04
 0.72980003E+02  0.28567E-04
 0.73030006E+02  0.27877E-04
 0.73080002E+02  0.23182E-04
 0.73130005E+02 -0.26433E-06
 0.73180008E+02 -0.28512E-04
 0.73230003E+02 -0.39427E-04
 0.73280006E+02 -0.41006E-04
 0.73330002E+02 -0.53392E-04
 0.73380005E+02 -0.67402E-04
 0.73430008E+02 -0.65601E-04
 0.73480003E+02 -0.54916E-04
 0.73530006E+02 -0.43841E-04
 0.73580002E+02 -0.28680E-04
 0.73630005E+02 -0.53307E-05
 0.73680008E+02  0.16762E-04
 0.73730003E+02  0.28700E-04
 0.73780006E+02  0.30393E-04
 0.73830002E+02  0.22625E-04
 0.73880005E+02  0.33389E-04
 0.73930008E+02  0.72704E-04
 0.73980003E+02  0.98370E-04
 0.74030006E+02  0.87871E-04
 0.74080002E+02  0.58002E-04
 0.74130005E+02  0.38710E-04
 0.74180008E+02  0.46744E-04
 0.74230003E+02  0.55143E-04
 0.74280006E+02  0.45547E-04
 0.74330002E+02  0.21937E-04
 0.74380005E+02 -0.79376E-05
 0.74430008E+02 -0.45016E-04
 0.74480003E+02 -0.10446E-03
 0.74530006E+02 -0.15378E-03
 0.74580002E+02 -0.15851E-03
 0.74630005E+02 -0.11681E-03
 0.74680008E+02 -0.42496E-04
 0.74730003E+02  0.24748E-04
 0.74780006E+02  0.61189E-04
 0.74830002E+02  0.66250E-04
 0.74880005E+02  0.48102E-04
 0.74930008E+02  0.31950E-04
 0.74980003E+02  0.29243E-04
 0.75030006E+02  0.31075E-04
 0.75080002E+02  0.42358E-04
 0.75130005E+02  0.50224E-04
 0.75180008E+02  0.48709E-04
 0.75230003E+02  0.54685E-04
 0.75280006E+02  0.56304E-04
 0.75330002E+02  0.42737E-04
 0.75380005E+02 -0.86214E-06
 0.75430008E+02 -0.73826E-04
 0.75480003E+02 -0.12150E-03
 0.75530006E+02 -0.11110E-03
 0.75580002E+02 -0.77283E-04
 0.75630005E+02 -0.56854E-04
 0.75680008E+02 -0.40911E-04
 0.75730003E+02 -0.26852E-04
 0.75780006E+02 -0.22620E-04
 0.75830002E+02 -0.22231E-04
 0.75880005E+02 -0.29428E-04
 0.75930008E+02 -0.24826E-04
 0.75980003E+02  0.46906E-05
 0.76030006E+02  0.35311E-04
 0.76080002E+02  0.70792E-04
 0.76130005E+02  0.10786E-03
 0.76180008E+02  0.12377E-03
 0.76230003E+02  0.11099E-03
 0.76280006E+02  0.78448E-04
 0.76330002E+02  0.58039E-04
 0.76380005E+02  0.56585E-04
 0.76430008E+02  0.55808E-04
 0.76480003E+02  0.41255E-04
 0.76530006E+02  0.70665E-05
 0.76580002E+02 -0.29584E-04
 0.76630005E+02 -0.69433E-04
 0.76680008E+02 -0.11537E-03
 0.76730003E+02 -0.14844E-03
 0.76780006E+02 -0.16638E-03
 0.76830002E+02 -0.16022E-03
 0.76880005E+02 -0.11844E-03
 0.76930008E+02 -0.46168E-04
 0.76980003E+02  0.38534E-04
 0.77030006E+02  0.10346E-03
 0.77080002E+02  0.13294E-03
 0.77130005E+02  0.12674E-03
 0.77180008E+02  0.93004E-04
 0.77230003E+02  0.48849E-04
 0.77280006E+02  0.32253E-05
 0.77330002E+02 -0.33184E-04
 0.77380005E+02 -0.50440E-04
 0.77430008E+02 -0.49169E-04
 0.77480003E+02 -0.30329E-04
 0.77530006E+02 -0.45689E-05
 0.77580002E+02  0.70206E-05
 0.77630005E+02  0.19395E-05
 0.77680008E+02 -0.15687E-05
 0.77730003E+02  0.88286E-05
 0.77780006E+02  0.18838E-04
 0.77830002E+02  0.11547E-04
 0.77880005E+02 -0.18603E-05
 0.77930008E+02 -0.86795E-05
 0.77980003E+02 -0.61083E-05
 0.78030006E+02  0.34686E-05
 0.78080002E+02  0.24699E-05
 0.78130005E+02 -0.19447E-04
 0.78180008E+02 -0.37226E-04
 0.78230003E+02 -0.32099E-04
 0.78280006E+02 -0.10883E-04
 0.78330002E+02  0.23018E-04
 0.78380005E+02  0.48514E-04
 0.78430008E+02  0.45136E-04
 0.78480003E+02  0.18021E-04
 0.78530006E+02 -0.16157E-04
 0.78580002E+02 -0.40613E-04
 0.78630005E+02 -0.55392E-04
 0.78680008E+02 -0.68042E-04
 0.78730003E+02 -0.62910E-04
 0.78780006E+02 -0.18520E-04
 0.78830002E+02  0.28884E-04
 0.78880005E+02  0.37498E-04
 0.78930008E+02  0.26307E-04
 0.78980003E+02  0.19123E-04
 0.79030006E+02  0.18208E-04
 0.79080002E+02  0.26659E-04
 0.79130005E+02  0.39507E-04
 0.79180008E+02  0.47965E-04
 0.79230003E+02  0.46692E-04
 0.79280006E+02  0.39897E-04
 0.79330002E+02  0.48126E-04
 0.79380005E+02  0.67191E-04
 0.79430008E+02  0.83440E-04
 0.79480003E+02  0.86567E-04
 0.79530006E+02  0.62207E-04
 0.79580002E+02  0.25303E-04
 0.79630005E+02 -0.12933E-04
 0.79680008E+02 -0.53594E-04
 0.79730003E+02 -0.90532E-04
 0.79780006E+02 -0.11239E-03
 0.79830002E+02 -0.10420E-03
 0.79880005E+02 -0.82124E-04
 0.79930008E+02 -0.67868E-04
 0.79980003E+02 -0.58349E-04
 0.80030006E+02 -0.53512E-04
 0.80080002E+02 -0.59456E-04
 0.80130005E+02 -0.68667E-04
 0.80180008E+02 -0.65048E-04
 0.80230003E+02 -0.43753E-04
 0.80280006E+02 -0.72388E-05
 0.80330002E+02  0.34623E-04
 0.80380005E+02  0.71378E-04
 0.80430008E+02  0.88300E-04
 0.80480003E+02  0.74697E-04
 0.80530006E+02  0.49612E-04
 0.80580002E+02  0.26515E-04
 0.80630005E+02  0.68955E-05
 0.80680008E+02 -0.63190E-08
 0.80730003E+02  0.90859E-05
 0.80780006E+02  0.32030E-04
 0.80830002E+02  0.55507E-04
 0.80880005E+02  0.65485E-04
 0.80930008E+02  0.54952E-04
 0.80980003E+02  0.16666E-04
 0.81030006E+02 -0.32605E-04
 0.81080002E+02 -0.65160E-04
 0.81130005E+02 -0.70764E-04
 0.81180008E+02 -0.52424E-04
 0.81230003E+02 -0.25498E-04
 0.81280006E+02 -0.17894E-07
 0.81330002E+02  0.19342E-04
 0.81380005E+02  0.30817E-04
 0.81430008E+02  0.39551E-04
 0.81480003E+02  0.39722E-04
 0.81530006E+02  0.28091E-04
 0.81580002E+02  0.95246E-05
 0.81630005E+02 -0.14182E-04
 0.81680008E+02 -0.40002E-04
 0.81730003E+02 -0.53924E-04
 0.81780006E+02 -0.41215E-04
 0.81830002E+02 -0.91118E-05
 0.81880005E+02  0.20331E-04
 0.81930008E+02  0.35288E-04
 0.81980003E+02  0.35800E-04
 0.82030006E+02  0.19039E-04
 0.82080002E+02 -0.98159E-05
 0.82130005E+02 -0.34603E-04
 0.82180008E+02 -0.44783E-04
 0.82230003E+02 -0.40499E-04
 0.82280006E+02 -0.24563E-04
 0.82330002E+02 -0.67145E-05
 0.82380005E+02  0.45836E-05
 0.82430008E+02  0.11976E-04
 0.82480003E+02  0.99672E-05
 0.82530006E+02  0.47349E-05
 0.82580002E+02  0.69501E-05
 0.82630005E+02  0.11158E-04
 0.82680008E+02  0.14302E-04
 0.82730003E+02  0.13775E-04
 0.82780006E+02  0.15578E-04
 0.82830002E+02  0.16604E-04
 0.82880005E+02  0.10474E-04
 0.82930008E+02  0.36968E-05
 0.82980003E+02 -0.31466E-05
 0.83030006E+02  0.60234E-05
 0.83080002E+02  0.38658E-04
 0.83130005E+02  0.66528E-04
 0.83180008E+02  0.67022E-04
 0.83230003E+02  0.44230E-04
 0.83280006E+02  0.85478E-05
 0.83330002E+02 -0.29731E-04
 0.83380005E+02 -0.55252E-04
 0.83430008E+02 -0.69304E-04
 0.83480003E+02 -0.75911E-04
 0.83530006E+02 -0.63312E-04
 0.83580002E+02 -0.30940E-04
 0.83630005E+02  0.46441E-05
 0.83680008E+02  0.25756E-04
 0.83730003E+02  0.27235E-04
 0.83780006E+02  0.86430E-05
 0.83830002E+02 -0.29562E-04
 0.83880005E+02 -0.63451E-04
 0.83930008E+02 -0.66968E-04
 0.83980003E+02 -0.52120E-04
 0.84030006E+02 -0.29543E-04
 0.84080002E+02  0.12487E-04
 0.84130005E+02  0.62677E-04
 0.84180008E+02  0.10619E-03
 0.84230003E+02  0.13186E-03
 0.84280006E+02  0.11937E-03
 0.84330002E+02  0.80055E-04
 0.84380005E+02  0.33761E-04
 0.84430008E+02 -0.16393E-04
 0.84480003E+02 -0.55631E-04
 0.84530006E+02 -0.73626E-04
 0.84580002E+02 -0.74525E-04
 0.84630005E+02 -0.58126E-04
 0.84680008E+02 -0.29991E-04
 0.84730003E+02 -0.87949E-05
 0.84780006E+02 -0.72437E-05
 0.84830002E+02 -0.21566E-04
 0.84880005E+02 -0.31597E-04
 0.84930008E+02 -0.22833E-04
 0.84980003E+02 -0.37224E-05
 0.85030006E+02  0.16749E-04
 0.85080002E+02  0.35770E-04
 0.85130005E+02  0.51153E-04
 0.85180008E+02  0.56831E-04
 0.85230003E+02  0.44052E-04
 0.85280006E+02  0.14873E-04
 0.85330002E+02 -0.18473E-04
 0.85380005E+02 -0.44393E-04
 0.85430008E+02 -0.55230E-04
 0.85480003E+02 -0.47555E-04
 0.85530006E+02 -0.28817E-04
 0.85580002E+02 -0.97027E-05
 0.85630005E+02  0.11656E-05
 0.85680008E+02  0.12040E-05
 0.85730003E+02 -0.51113E-05
 0.85780006E+02 -0.16891E-04
 0.85830002E+02 -0.31581E-04
 0.85880005E+02 -0.38050E-04
 0.85930008E+02 -0.23461E-04
 0.85980003E+02  0.70066E-05
 0.86030006E+02  0.35863E-04
 0.86080002E+02  0.53302E-04
 0.86130005E+02  0.54930E-04
 0.86180008E+02  0.43657E-04
 0.86230003E+02  0.30153E-04
 0.86280006E+02  0.22182E-04
 0.86330002E+02  0.17606E-04
 0.86380005E+02  0.10798E-04
 0.86430008E+02  0.27372E-05
 0.86480003E+02 -0.55501E-05
 0.86530006E+02 -0.18113E-04
 0.86580002E+02 -0.29642E-04
 0.86630005E+02 -0.29836E-04
 0.86680008E+02 -0.19441E-04
 0.86730003E+02 -0.28593E-05
 0.86780006E+02  0.17262E-04
 0.86830002E+02  0.37810E-04
 0.86880005E+02  0.48798E-04
 0.86930008E+02  0.41142E-04
 0.86980003E+02  0.20272E-04
 0.87030006E+02 -0.71186E-05
 0.87080002E+02 -0.27256E-04
 0.87130005E+02 -0.24892E-04
 0.87180008E+02 -0.10651E-04
 0.87230003E+02  0.21148E-05
 0.87280006E+02  0.83065E-05
 0.87330002E+02  0.73486E-06
 0.87380005E+02 -0.15781E-04
 0.87430008E+02 -0.29323E-04
 0.87480003E+02 -0.34530E-04
 0.87530006E+02 -0.25420E-04
 0.87580002E+02 -0.24043E-05
 0.87630005E+02  0.18692E-04
 0.87680008E+02  0.27706E-04
 0.87730003E+02  0.26854E-04
 0.87780006E+02  0.23361E-04
 0.87830002E+02  0.25255E-04
 0.87880005E+02  0.27714E-04
 0.87930008E+02  0.14244E-04
 0.87980003E+02 -0.14036E-04
 0.88030006E+02 -0.38913E-04
 0.88080002E+02 -0.56192E-04
 0.88130005E+02 -0.58104E-04
 0.88180008E+02 -0.37198E-04
 0.88230003E+02 -0.72182E-05
 0.88280006E+02  0.24101E-04
 0.88330002E+02  0.44264E-04
 0.88380005E+02  0.44317E-04
 0.88430008E+02  0.30943E-04
 0.88480003E+02  0.67635E-05
 0.88530006E+02 -0.19501E-04
 0.88580002E+02 -0.38450E-04
 0.88630005E+02 -0.45879E-04
 0.88680008E+02 -0.47738E-04
 0.88730003E+02 -0.47673E-04
 0.88780006E+02 -0.37001E-04
 0.88830002E+02 -0.15275E-04
 0.88880005E+02  0.11165E-04
 0.88930008E+02  0.31222E-04
 0.88980003E+02  0.33527E-04
 0.89030006E+02  0.23215E-04
 0.89080002E+02  0.13623E-04
 0.89130005E+02  0.76396E-05
 0.89180008E+02  0.62515E-05
 0.89230003E+02  0.11412E-04
 0.89280006E+02  0.14174E-04
 0.89330002E+02  0.11353E-04
 0.89380005E+02  0.96956E-05
 0.89430008E+02  0.95378E-05
 0.89480003E+02  0.70950E-05
 0.89530006E+02 -0.79351E-06
 0.89580002E+02 -0.54042E-05
 0.89630005E+02  0.40782E-05
 0.89680008E+02  0.22988E-04
 0.89730003E+02  0.40857E-04
 0.89780006E+02  0.46755E-04
 0.89830002E+02  0.39911E-04
 0.89880005E+02  0.29820E-04
 0.89930008E+02  0.17657E-04
 0.89980003E+02  0.72155E-06
 0.90030006E+02 -0.18829E-04
 0.90080002E+02 -0.37244E-04
 0.90130005E+02 -0.50668E-04
 0.90180008E+02 -0.60974E-04
 0.90230003E+02 -0.67491E-04
 0.90280006E+02 -0.61139E-04
 0.90330002E+02 -0.43851E-04
 0.90380005E+02 -0.28781E-04
 0.90430008E+02 -0.24780E-04
 0.90480003E+02 -0.26718E-04
 0.90530006E+02 -0.21982E-04
 0.90580002E+02 -0.10684E-04
 0.90630005E+02  0.11717E-05
 0.90680008E+02  0.16886E-04
 0.90730003E+02  0.39797E-04
 0.90780006E+02  0.64829E-04
 0.90830002E+02  0.82654E-04
 0.90880005E+02  0.85849E-04
 0.90930008E+02  0.74486E-04
 0.90980003E+02  0.54801E-04
 0.91030006E+02  0.34540E-04
 0.91080002E+02  0.17179E-04
 0.91130005E+02  0.22613E-05
 0.91180008E+02 -0.76740E-05
 0.91230003E+02 -0.80771E-05
 0.91280006E+02  0.11712E-05
 0.91330002E+02  0.93369E-05
 0.91380005E+02  0.71173E-05
 0.91430008E+02 -0.29695E-05
 0.91480003E+02 -0.13994E-04
 0.91530006E+02 -0.20871E-04
 0.91580002E+02 -0.27420E-04
 0.91630005E+02 -0.38669E-04
 0.91680008E+02 -0.52698E-04
 0.91730003E+02 -0.64167E-04
 0.91780006E+02 -0.70249E-04
 0.91830002E+02 -0.70250E-04
 0.91880005E+02 -0.60246E-04
 0.91930008E+02 -0.40443E-04
 0.91980003E+02 -0.16494E-04
 0.92030006E+02  0.50982E-05
 0.92080002E+02  0.17439E-04
 0.92130005E+02  0.16969E-04
 0.92180008E+02  0.95567E-05
 0.92230003E+02  0.26961E-05
 0.92280006E+02 -0.63609E-05
 0.92330002E+02 -0.13621E-04
 0.92380005E+02 -0.62634E-05
 0.92430008E+02  0.14492E-04
 0.92480003E+02  0.37258E-04
 0.92530006E+02  0.51380E-04
 0.92580002E+02  0.54793E-04
 0.92630005E+02  0.51676E-04
 0.92680008E+02  0.43884E-04
 0.92730003E+02  0.34237E-04
 0.92780006E+02  0.27034E-04
 0.92830002E+02  0.28742E-04
 0.92880005E+02  0.32912E-04
 0.92930008E+02  0.27180E-04
 0.92980003E+02  0.11952E-04
 0.93030006E+02 -0.75259E-05
 0.93080002E+02 -0.20296E-04
 0.93130005E+02 -0.19531E-04
 0.93180008E+02 -0.14296E-04
 0.93230003E+02 -0.17250E-04
 0.93280006E+02 -0.26922E-04
 0.93330002E+02 -0.32844E-04
 0.93380005E+02 -0.32529E-04
 0.93430008E+02 -0.28570E-04
 0.93480003E+02 -0.25441E-04
 0.93530006E+02 -0.24863E-04
 0.93580002E+02 -0.21890E-04
 0.93630005E+02 -0.14696E-04
 0.93680008E+02 -0.16272E-05
 0.93730003E+02  0.12257E-04
 0.93780006E+02  0.16995E-04
 0.93830002E+02  0.14356E-04
 0.93880005E+02  0.88226E-05
 0.93930008E+02  0.63795E-05
 0.93980003E+02  0.13187E-04
 0.94030006E+02  0.23169E-04
 0.94080002E+02  0.27416E-04
 0.94130005E+02  0.27155E-04
 0.94180008E+02  0.21958E-04
 0.94230003E+02  0.90505E-05
 0.94280006E+02 -0.45011E-05
 0.94330002E+02 -0.11276E-04
 0.94380005E+02 -0.94203E-05
 0.94430008E+02  0.19708E-06
 0.94480003E+02  0.10189E-04
 0.94530006E+02  0.13875E-04
 0.94580002E+02  0.13370E-04
 0.94630005E+02  0.10034E-04
 0.94680008E+02  0.39069E-05
 0.94730003E+02 -0.17399E-05
 0.94780006E+02 -0.80178E-05
 0.94830002E+02 -0.16613E-04
 0.94880005E+02 -0.23327E-04
 0.94930008E+02 -0.22750E-04
 0.94980003E+02 -0.16964E-04
 0.95030006E+02 -0.11888E-04
 0.95080002E+02 -0.84670E-05
 0.95130005E+02 -0.60398E-05
 0.95180008E+02 -0.14029E-05
 0.95230003E+02  0.94662E-06
 0.95280006E+02 -0.70402E-05
 0.95330002E+02 -0.21543E-04
 0.95380005E+02 -0.34553E-04
 0.95430008E+02 -0.36192E-04
 0.95480003E+02 -0.28144E-04
 0.95530006E+02 -0.20122E-04
 0.95580002E+02 -0.11998E-04
 0.95630005E+02 -0.50515E-06
 0.95680008E+02  0.15020E-04
 0.95730003E+02  0.29647E-04
 0.95780006E+02  0.38168E-04
 0.95830002E+02  0.37027E-04
 0.95880005E+02  0.30013E-04
 0.95930008E+02  0.29239E-04
 0.95980003E+02  0.35456E-04
 0.96030006E+02  0.38673E-04
 0.96080002E+02  0.34905E-04
 0.96130005E+02  0.28585E-04
 0.96180008E+02  0.24543E-04
 0.96230003E+02  0.23468E-04
 0.96280006E+02  0.20840E-04
 0.96330002E+02  0.10274E-04
 0.96380005E+02 -0.11411E-04
 0.96430008E+02 -0.44111E-04
 0.96480003E+02 -0.78089E-04
 0.96530006E+02 -0.97157E-04
 0.96580002E+02 -0.97718E-04
 0.96630005E+02 -0.87018E-04
 0.96680008E+02 -0.72705E-04
 0.96730003E+02 -0.56375E-04
 0.96780006E+02 -0.35473E-04
 0.96830002E+02 -0.12008E-04
 0.96880005E+02  0.12039E-04
 0.96930008E+02  0.34561E-04
 0.96980003E+02  0.53967E-04
 0.97030006E+02  0.70227E-04
 0.97080002E+02  0.81516E-04
 0.97130005E+02  0.88541E-04
 0.97180008E+02  0.87181E-04
 0.97230003E+02  0.74047E-04
 0.97280006E+02  0.57648E-04
 0.97330002E+02  0.42153E-04
 0.97380005E+02  0.26542E-04
 0.97430008E+02  0.10982E-04
 0.97480003E+02 -0.45405E-05
 0.97530006E+02 -0.18591E-04
 0.97580002E+02 -0.30936E-04
 0.97630005E+02 -0.36856E-04
 0.97680008E+02 -0.32545E-04
 0.97730003E+02 -0.25490E-04
 0.97780006E+02 -0.21914E-04
 0.97830002E+02 -0.22226E-04
 0.97880005E+02 -0.27832E-04
 0.97930008E+02 -0.38483E-04
 0.97980003E+02 -0.48574E-04
 0.98030006E+02 -0.48309E-04
 0.98080002E+02 -0.32961E-04
 0.98130005E+02 -0.10908E-04
 0.98180008E+02  0.65282E-05
 0.98230003E+02  0.15751E-04
 0.98280006E+02  0.19818E-04
 0.98330002E+02  0.22719E-04
 0.98380005E+02  0.23291E-04
 0.98430008E+02  0.20770E-04
 0.98480003E+02  0.12226E-04
 0.98530006E+02 -0.54869E-05
 0.98580002E+02 -0.26152E-04
 0.98630005E+02 -0.44836E-04
 0.98680008E+02 -0.55611E-04
 0.98730003E+02 -0.55199E-04
 0.98780006E+02 -0.47369E-04
 0.98830002E+02 -0.31918E-04
 0.98880005E+02 -0.95026E-05
 0.98930008E+02  0.17665E-04
 0.98980003E+02  0.42938E-04
 0.99030006E+02  0.60690E-04
 0.99080002E+02  0.69625E-04
 0.99130005E+02  0.68698E-04
 0.99180008E+02  0.60543E-04
 0.99230003E+02  0.44085E-04
 0.99280006E+02  0.26319E-04
 0.99330002E+02  0.16362E-04
 0.99380005E+02  0.14528E-04
 0.99430008E+02  0.21015E-04
 0.99480003E+02  0.28168E-04
 0.99530006E+02  0.29342E-04
 0.99580002E+02  0.24227E-04
 0.99630005E+02  0.14281E-04
 0.99680008E+02 -0.55866E-06
 0.99730003E+02 -0.18957E-04
 0.99780006E+02 -0.31916E-04
 0.99830002E+02 -0.38766E-04
 0.99880005E+02 -0.43285E-04
 0.99930008E+02 -0.44090E-04
 0.99980003E+02 -0.42135E-04
