 0.00000000E+00  0.10188E-06
 0.50000001E-01  0.10203E-06
 0.10000000E+00  0.11143E-06
 0.15000001E+00  0.54005E-07
 0.20000000E+00 -0.62650E-08
 0.25000000E+00  0.29990E-07
 0.30000001E+00  0.26164E-07
 0.34999999E+00  0.17133E-08
 0.40000001E+00 -0.77394E-08
 0.45000002E+00  0.10295E-07
 0.50000000E+00  0.29391E-07
 0.55000001E+00  0.34104E-07
 0.60000002E+00  0.80941E-07
 0.65000004E+00  0.11164E-06
 0.69999999E+00  0.75010E-07
 0.75000000E+00  0.66979E-07
 0.80000001E+00  0.10260E-06
 0.85000002E+00  0.91344E-07
 0.90000004E+00  0.50923E-07
 0.94999999E+00  0.24887E-07
 0.10000000E+01 -0.49521E-08
 0.10500001E+01 -0.14540E-07
 0.11000000E+01  0.24645E-07
 0.11500000E+01 -0.91018E-08
 0.12000000E+01 -0.30412E-07
 0.12500000E+01  0.15262E-07
 0.13000001E+01 -0.23915E-07
 0.13500000E+01  0.24899E-07
 0.14000000E+01  0.78079E-07
 0.14500000E+01  0.51801E-07
 0.15000000E+01  0.97632E-07
 0.15500001E+01  0.53132E-07
 0.16000000E+01 -0.56072E-07
 0.16500000E+01 -0.82214E-07
 0.17000000E+01 -0.43833E-07
 0.17500000E+01 -0.83736E-07
 0.18000001E+01 -0.99815E-07
 0.18500000E+01 -0.48394E-07
 0.19000000E+01 -0.70017E-07
 0.19500000E+01  0.30364E-07
 0.20000000E+01  0.10941E-06
 0.20500000E+01  0.67766E-07
 0.21000001E+01  0.10365E-06
 0.21500001E+01  0.11118E-06
 0.22000000E+01  0.43011E-07
 0.22500000E+01  0.16926E-07
 0.23000000E+01 -0.13100E-07
 0.23500001E+01 -0.94570E-07
 0.24000001E+01 -0.11217E-06
 0.24500000E+01 -0.12479E-06
 0.25000000E+01 -0.16861E-06
 0.25500000E+01 -0.10877E-06
 0.26000001E+01 -0.99271E-08
 0.26500001E+01  0.22433E-07
 0.27000000E+01  0.88735E-07
 0.27500000E+01  0.11816E-06
 0.28000000E+01  0.57511E-07
 0.28500001E+01  0.45029E-07
 0.29000001E+01 -0.23492E-07
 0.29500000E+01 -0.47248E-07
 0.30000000E+01  0.23675E-07
 0.30500000E+01  0.51891E-08
 0.31000001E+01  0.43846E-07
 0.31500001E+01  0.87399E-07
 0.32000000E+01  0.65736E-07
 0.32500000E+01  0.77597E-07
 0.33000000E+01  0.86133E-07
 0.33500001E+01  0.75934E-07
 0.34000001E+01  0.18729E-07
 0.34500000E+01 -0.31003E-07
 0.35000000E+01 -0.87863E-07
 0.35500000E+01 -0.18531E-06
 0.36000001E+01 -0.20428E-06
 0.36500001E+01 -0.20122E-06
 0.37000000E+01 -0.20458E-06
 0.37500000E+01 -0.12545E-06
 0.38000000E+01 -0.41938E-07
 0.38500001E+01  0.42446E-07
 0.39000001E+01  0.11225E-06
 0.39500000E+01  0.10145E-06
 0.40000000E+01  0.91551E-07
 0.40500002E+01  0.90577E-07
 0.40999999E+01  0.59996E-07
 0.41500001E+01  0.54872E-09
 0.42000003E+01  0.11717E-07
 0.42500000E+01 -0.27524E-08
 0.43000002E+01 -0.71495E-07
 0.43499999E+01 -0.33444E-07
 0.44000001E+01 -0.30625E-07
 0.44500003E+01  0.15422E-07
 0.45000000E+01  0.88280E-07
 0.45500002E+01  0.70618E-07
 0.45999999E+01  0.90623E-07
 0.46500001E+01  0.83042E-07
 0.47000003E+01  0.40473E-07
 0.47500000E+01 -0.32106E-08
 0.48000002E+01 -0.33356E-07
 0.48499999E+01 -0.54786E-07
 0.49000001E+01 -0.44233E-07
 0.49500003E+01 -0.32745E-08
 0.50000000E+01 -0.61594E-09
 0.50500002E+01  0.70372E-07
 0.50999999E+01  0.14049E-06
 0.51500001E+01  0.11926E-06
 0.52000003E+01  0.11715E-06
 0.52500000E+01  0.94455E-07
 0.53000002E+01  0.35305E-07
 0.53499999E+01  0.96529E-08
 0.54000001E+01  0.43622E-08
 0.54500003E+01  0.43193E-07
 0.55000000E+01  0.77758E-07
 0.55500002E+01  0.76571E-07
 0.55999999E+01  0.74830E-07
 0.56500001E+01  0.40646E-07
 0.57000003E+01  0.15456E-07
 0.57500000E+01 -0.74674E-09
 0.58000002E+01 -0.94872E-08
 0.58499999E+01 -0.11943E-07
 0.59000001E+01 -0.18161E-08
 0.59500003E+01  0.92019E-08
 0.60000000E+01 -0.22669E-07
 0.60500002E+01 -0.45267E-07
 0.60999999E+01 -0.97505E-07
 0.61500001E+01 -0.16615E-06
 0.62000003E+01 -0.17971E-06
 0.62500000E+01 -0.17000E-06
 0.63000002E+01 -0.16006E-06
 0.63499999E+01 -0.13725E-06
 0.64000001E+01 -0.10880E-06
 0.64500003E+01 -0.87392E-07
 0.65000000E+01 -0.47540E-07
 0.65500002E+01 -0.26120E-07
 0.65999999E+01 -0.25801E-07
 0.66500001E+01  0.15429E-08
 0.67000003E+01 -0.11284E-07
 0.67500000E+01 -0.10248E-07
 0.68000002E+01  0.14716E-07
 0.68499999E+01 -0.54711E-08
 0.69000001E+01  0.43298E-07
 0.69500003E+01  0.58762E-07
 0.70000000E+01 -0.11242E-07
 0.70500002E+01 -0.36933E-07
 0.70999999E+01 -0.40098E-07
 0.71500001E+01 -0.46466E-07
 0.72000003E+01 -0.34085E-07
 0.72500000E+01 -0.72666E-09
 0.73000002E+01  0.34653E-07
 0.73499999E+01  0.57345E-07
 0.74000001E+01  0.58936E-07
 0.74500003E+01  0.75912E-07
 0.75000000E+01  0.90251E-07
 0.75500002E+01  0.75884E-07
 0.75999999E+01  0.58186E-07
 0.76500001E+01  0.53700E-07
 0.77000003E+01  0.20248E-07
 0.77500000E+01  0.19847E-07
 0.78000002E+01  0.71711E-07
 0.78499999E+01  0.58230E-07
 0.79000001E+01  0.90959E-08
 0.79500003E+01 -0.88230E-08
 0.80000000E+01 -0.28360E-07
 0.80500002E+01 -0.44183E-07
 0.81000004E+01 -0.39242E-07
 0.81500006E+01 -0.61569E-07
 0.81999998E+01 -0.27572E-07
 0.82500000E+01 -0.20663E-07
 0.83000002E+01 -0.26111E-07
 0.83500004E+01  0.44114E-07
 0.84000006E+01  0.72081E-07
 0.84499998E+01  0.10134E-06
 0.85000000E+01  0.64211E-07
 0.85500002E+01 -0.65365E-08
 0.86000004E+01 -0.32684E-07
 0.86500006E+01 -0.23353E-07
 0.86999998E+01  0.82152E-09
 0.87500000E+01 -0.45170E-09
 0.88000002E+01  0.42138E-07
 0.88500004E+01  0.58907E-07
 0.89000006E+01  0.61348E-07
 0.89499998E+01  0.89021E-07
 0.90000000E+01  0.70571E-07
 0.90500002E+01  0.45111E-07
 0.91000004E+01  0.17201E-07
 0.91500006E+01 -0.70519E-07
 0.91999998E+01 -0.11276E-06
 0.92500000E+01 -0.10572E-06
 0.93000002E+01 -0.12415E-06
 0.93500004E+01 -0.12043E-06
 0.94000006E+01 -0.11035E-06
 0.94499998E+01 -0.48472E-07
 0.95000000E+01  0.70451E-08
 0.95500002E+01  0.21793E-07
 0.96000004E+01  0.53772E-07
 0.96500006E+01  0.71156E-07
 0.96999998E+01  0.88128E-07
 0.97500000E+01  0.52939E-07
 0.98000002E+01  0.70196E-08
 0.98500004E+01 -0.24985E-07
 0.99000006E+01 -0.61806E-07
 0.99499998E+01 -0.21171E-07
 0.10000000E+02  0.50000E-08
 0.10050000E+02 -0.96527E-08
 0.10100000E+02  0.48030E-08
 0.10150001E+02  0.19259E-07
 0.10200000E+02  0.61600E-07
 0.10250000E+02  0.85398E-07
 0.10300000E+02  0.24170E-07
 0.10350000E+02  0.16601E-08
 0.10400001E+02 -0.14104E-07
 0.10450000E+02 -0.58095E-07
 0.10500000E+02 -0.49015E-07
 0.10550000E+02 -0.52783E-07
 0.10600000E+02 -0.29870E-07
 0.10650001E+02 -0.14765E-07
 0.10700000E+02  0.48576E-09
 0.10750000E+02  0.26939E-07
 0.10800000E+02  0.59305E-08
 0.10850000E+02  0.34555E-07
 0.10900001E+02  0.91542E-08
 0.10950000E+02 -0.24584E-07
 0.11000000E+02 -0.12017E-07
 0.11050000E+02 -0.60687E-07
 0.11100000E+02 -0.11249E-06
 0.11150001E+02 -0.15578E-06
 0.11200000E+02 -0.12169E-06
 0.11250000E+02 -0.64980E-07
 0.11300000E+02 -0.93022E-07
 0.11350000E+02 -0.10831E-06
 0.11400001E+02 -0.71613E-07
 0.11450000E+02 -0.46303E-07
 0.11500000E+02 -0.51021E-07
 0.11550000E+02 -0.38011E-07
 0.11600000E+02 -0.25022E-07
 0.11650001E+02 -0.46513E-07
 0.11700000E+02 -0.10630E-06
 0.11750000E+02 -0.10825E-06
 0.11800000E+02 -0.71358E-07
 0.11850000E+02 -0.95284E-07
 0.11900001E+02 -0.61594E-07
 0.11950000E+02 -0.24296E-07
 0.12000000E+02 -0.15930E-07
 0.12050000E+02  0.56766E-07
 0.12100000E+02  0.58244E-07
 0.12150001E+02  0.37403E-07
 0.12200000E+02  0.48885E-07
 0.12250000E+02  0.33621E-07
 0.12300000E+02  0.60920E-07
 0.12350000E+02  0.33347E-07
 0.12400001E+02  0.86068E-08
 0.12450000E+02  0.25472E-07
 0.12500000E+02  0.51954E-08
 0.12550000E+02 -0.66346E-08
 0.12600000E+02 -0.73224E-08
 0.12650001E+02  0.67629E-07
 0.12700000E+02  0.10828E-06
 0.12750000E+02  0.13361E-06
 0.12800000E+02  0.18726E-06
 0.12850000E+02  0.18912E-06
 0.12900001E+02  0.18905E-06
 0.12950000E+02  0.16626E-06
 0.13000000E+02  0.12714E-06
 0.13050000E+02  0.61602E-07
 0.13100000E+02  0.46450E-07
 0.13150001E+02  0.11912E-07
 0.13200000E+02 -0.48597E-07
 0.13250000E+02  0.17564E-07
 0.13300000E+02  0.80470E-07
 0.13350000E+02  0.10958E-06
 0.13400001E+02  0.15485E-06
 0.13450000E+02  0.19453E-06
 0.13500000E+02  0.18724E-06
 0.13550000E+02  0.11540E-06
 0.13600000E+02  0.60450E-07
 0.13650001E+02  0.27515E-07
 0.13700000E+02 -0.25661E-07
 0.13750000E+02 -0.66059E-07
 0.13800000E+02 -0.25386E-07
 0.13850000E+02  0.32581E-07
 0.13900001E+02  0.39288E-07
 0.13950000E+02  0.42025E-07
 0.14000000E+02  0.45943E-08
 0.14050000E+02 -0.42063E-07
 0.14100000E+02 -0.12107E-07
 0.14150001E+02 -0.10225E-07
 0.14200000E+02 -0.10926E-06
 0.14250000E+02 -0.19703E-06
 0.14300000E+02 -0.22436E-06
 0.14350000E+02 -0.22824E-06
 0.14400001E+02 -0.17061E-06
 0.14450000E+02 -0.98464E-07
 0.14500000E+02 -0.64573E-07
 0.14550000E+02 -0.32875E-07
 0.14600000E+02  0.13969E-07
 0.14650001E+02  0.58806E-07
 0.14700000E+02  0.69708E-07
 0.14750000E+02  0.14599E-07
 0.14800000E+02 -0.80806E-07
 0.14850000E+02 -0.14187E-06
 0.14900001E+02 -0.20704E-06
 0.14950000E+02 -0.19520E-06
 0.15000000E+02 -0.15004E-06
 0.15050000E+02 -0.18701E-06
 0.15100000E+02 -0.13204E-06
 0.15150001E+02 -0.35638E-07
 0.15200000E+02 -0.22278E-07
 0.15250000E+02  0.14340E-07
 0.15300000E+02  0.70097E-07
 0.15350000E+02  0.64415E-07
 0.15400001E+02  0.55596E-07
 0.15450000E+02  0.20406E-07
 0.15500000E+02  0.15297E-07
 0.15550000E+02  0.17953E-07
 0.15600000E+02  0.19013E-08
 0.15650001E+02  0.70236E-07
 0.15700000E+02  0.11877E-06
 0.15750000E+02  0.16263E-06
 0.15800000E+02  0.14428E-06
 0.15850000E+02  0.69587E-07
 0.15900001E+02  0.44743E-07
 0.15950000E+02  0.21633E-07
 0.16000000E+02  0.22979E-07
 0.16050001E+02  0.24384E-07
 0.16100000E+02 -0.15270E-07
 0.16150000E+02 -0.36646E-08
 0.16200001E+02  0.21182E-07
 0.16250000E+02  0.79614E-08
 0.16300001E+02  0.75238E-07
 0.16350000E+02  0.11274E-06
 0.16400000E+02  0.10824E-06
 0.16450001E+02  0.10382E-06
 0.16500000E+02  0.10737E-06
 0.16550001E+02  0.17343E-06
 0.16600000E+02  0.20744E-06
 0.16650000E+02  0.17598E-06
 0.16700001E+02  0.79599E-07
 0.16750000E+02  0.24689E-09
 0.16800001E+02 -0.59817E-07
 0.16850000E+02 -0.10905E-06
 0.16900000E+02 -0.12749E-06
 0.16950001E+02 -0.12947E-06
 0.17000000E+02 -0.81350E-07
 0.17050001E+02 -0.82944E-07
 0.17100000E+02 -0.10595E-06
 0.17150000E+02 -0.10145E-06
 0.17200001E+02 -0.12901E-06
 0.17250000E+02 -0.12956E-06
 0.17300001E+02 -0.11672E-06
 0.17350000E+02 -0.12218E-06
 0.17400000E+02 -0.76084E-07
 0.17450001E+02 -0.48762E-07
 0.17500000E+02 -0.26923E-07
 0.17550001E+02  0.54898E-07
 0.17600000E+02  0.56411E-07
 0.17650000E+02  0.32955E-07
 0.17700001E+02  0.35556E-07
 0.17750000E+02 -0.24862E-09
 0.17800001E+02 -0.33537E-07
 0.17850000E+02 -0.71292E-07
 0.17900000E+02 -0.58743E-07
 0.17950001E+02  0.17290E-07
 0.18000000E+02  0.41587E-07
 0.18050001E+02  0.63378E-07
 0.18100000E+02  0.75446E-07
 0.18150000E+02  0.76329E-07
 0.18200001E+02  0.11533E-06
 0.18250000E+02  0.90887E-07
 0.18300001E+02  0.80644E-07
 0.18350000E+02  0.17461E-07
 0.18400000E+02 -0.50327E-07
 0.18450001E+02 -0.93853E-08
 0.18500000E+02 -0.22163E-07
 0.18550001E+02 -0.38127E-07
 0.18600000E+02 -0.44905E-07
 0.18650000E+02 -0.70484E-08
 0.18700001E+02  0.33315E-07
 0.18750000E+02  0.65677E-07
 0.18800001E+02  0.13249E-06
 0.18850000E+02  0.10699E-06
 0.18900000E+02  0.56188E-07
 0.18950001E+02  0.30230E-07
 0.19000000E+02  0.15929E-07
 0.19050001E+02 -0.48687E-08
 0.19100000E+02 -0.10256E-07
 0.19150000E+02 -0.30792E-07
 0.19200001E+02 -0.72924E-07
 0.19250000E+02 -0.26444E-07
 0.19300001E+02  0.16631E-07
 0.19350000E+02  0.23822E-07
 0.19400000E+02  0.34478E-07
 0.19450001E+02 -0.20421E-08
 0.19500000E+02 -0.58724E-07
 0.19550001E+02 -0.49376E-07
 0.19600000E+02 -0.23101E-07
 0.19650000E+02 -0.75761E-08
 0.19700001E+02 -0.41730E-08
 0.19750000E+02  0.12669E-07
 0.19800001E+02  0.76566E-07
 0.19850000E+02  0.23735E-08
 0.19900000E+02  0.63224E-07
 0.19950001E+02  0.15205E-07
 0.20000000E+02  0.10415E-06
 0.20050001E+02  0.15919E-06
 0.20100000E+02 -0.23489E-06
 0.20150000E+02 -0.76520E-06
 0.20200001E+02 -0.20720E-05
 0.20250000E+02 -0.30588E-05
 0.20300001E+02 -0.30262E-05
 0.20350000E+02 -0.14642E-05
 0.20400000E+02 -0.14542E-05
 0.20450001E+02 -0.13562E-06
 0.20500000E+02  0.95369E-06
 0.20550001E+02 -0.86975E-06
 0.20600000E+02  0.71496E-05
 0.20650000E+02  0.12911E-04
 0.20700001E+02  0.90082E-05
 0.20750000E+02  0.82991E-05
 0.20800001E+02  0.65000E-05
 0.20850000E+02  0.56929E-06
 0.20900000E+02 -0.13402E-04
 0.20950001E+02 -0.25061E-04
 0.21000000E+02 -0.91460E-05
 0.21050001E+02  0.11916E-04
 0.21100000E+02  0.92428E-06
 0.21150000E+02 -0.23513E-04
 0.21200001E+02 -0.11645E-04
 0.21250000E+02  0.21382E-04
 0.21300001E+02  0.35980E-04
 0.21350000E+02  0.28079E-04
 0.21400000E+02 -0.12314E-04
 0.21450001E+02 -0.42941E-04
 0.21500000E+02 -0.20833E-04
 0.21550001E+02  0.15242E-04
 0.21600000E+02  0.14837E-04
 0.21650000E+02 -0.11205E-04
 0.21700001E+02 -0.29250E-04
 0.21750000E+02 -0.23120E-04
 0.21800001E+02  0.98997E-05
 0.21850000E+02  0.45239E-04
 0.21900000E+02  0.44691E-04
 0.21950001E+02  0.15677E-04
 0.22000000E+02 -0.78799E-05
 0.22050001E+02 -0.23560E-04
 0.22100000E+02 -0.22630E-04
 0.22150000E+02 -0.87362E-05
 0.22200001E+02  0.60250E-05
 0.22250000E+02 -0.17908E-07
 0.22300001E+02 -0.27598E-04
 0.22350000E+02 -0.23850E-04
 0.22400000E+02  0.19763E-04
 0.22450001E+02  0.33661E-04
 0.22500000E+02  0.21555E-04
 0.22550001E+02  0.45199E-04
 0.22600000E+02  0.26995E-04
 0.22650000E+02 -0.51652E-04
 0.22700001E+02 -0.83217E-04
 0.22750000E+02 -0.64336E-04
 0.22800001E+02  0.92014E-05
 0.22850000E+02  0.85260E-04
 0.22900000E+02  0.66821E-04
 0.22950001E+02  0.29293E-04
 0.23000000E+02  0.92185E-06
 0.23050001E+02 -0.29608E-04
 0.23100000E+02 -0.29764E-04
 0.23150000E+02 -0.27278E-04
 0.23200001E+02 -0.36615E-04
 0.23250000E+02 -0.45086E-04
 0.23300001E+02 -0.23801E-04
 0.23350000E+02  0.40308E-04
 0.23400000E+02  0.78146E-04
 0.23450001E+02  0.54662E-04
 0.23500000E+02 -0.45263E-06
 0.23550001E+02 -0.64170E-04
 0.23600000E+02 -0.60196E-04
 0.23650000E+02  0.18176E-04
 0.23700001E+02  0.66724E-04
 0.23750000E+02  0.32144E-04
 0.23800001E+02 -0.32132E-04
 0.23850000E+02 -0.43877E-04
 0.23900000E+02  0.17997E-04
 0.23950001E+02  0.34088E-04
 0.24000000E+02 -0.22767E-04
 0.24050001E+02 -0.25334E-04
 0.24100000E+02 -0.15317E-04
 0.24150000E+02 -0.66364E-05
 0.24200001E+02  0.21188E-04
 0.24250000E+02  0.65754E-05
 0.24300001E+02 -0.85971E-05
 0.24350000E+02  0.10123E-05
 0.24400000E+02  0.68684E-05
 0.24450001E+02  0.29470E-04
 0.24500000E+02  0.36103E-04
 0.24550001E+02 -0.18854E-04
 0.24600000E+02 -0.42146E-04
 0.24650000E+02 -0.47130E-05
 0.24700001E+02 -0.71080E-05
 0.24750000E+02 -0.34144E-05
 0.24800001E+02  0.27933E-04
 0.24850000E+02  0.53503E-06
 0.24900000E+02 -0.27696E-04
 0.24950001E+02 -0.12589E-04
 0.25000000E+02  0.61978E-05
 0.25050001E+02  0.17782E-04
 0.25100000E+02  0.12696E-04
 0.25150000E+02 -0.43540E-05
 0.25200001E+02  0.34324E-05
 0.25250000E+02  0.10786E-04
 0.25300001E+02 -0.87609E-05
 0.25350000E+02 -0.30638E-05
 0.25400000E+02  0.69801E-05
 0.25450001E+02  0.58616E-05
 0.25500000E+02  0.83921E-05
 0.25550001E+02  0.10261E-06
 0.25600000E+02 -0.15105E-04
 0.25650000E+02 -0.23390E-04
 0.25700001E+02 -0.83253E-05
 0.25750000E+02 -0.36054E-05
 0.25800001E+02 -0.11931E-05
 0.25850000E+02  0.13214E-04
 0.25900000E+02  0.13223E-04
 0.25950001E+02  0.14462E-04
 0.26000000E+02  0.12597E-05
 0.26050001E+02 -0.19746E-04
 0.26100000E+02 -0.29314E-05
 0.26150000E+02  0.12532E-04
 0.26200001E+02 -0.11022E-04
 0.26250000E+02 -0.17465E-04
 0.26300001E+02 -0.27084E-05
 0.26350000E+02  0.20021E-04
 0.26400000E+02  0.39507E-04
 0.26450001E+02  0.22744E-05
 0.26500000E+02 -0.41561E-04
 0.26550001E+02 -0.28428E-04
 0.26600000E+02  0.12218E-04
 0.26650000E+02  0.32424E-04
 0.26700001E+02  0.13787E-04
 0.26750000E+02 -0.79111E-05
 0.26800001E+02 -0.12482E-04
 0.26850000E+02 -0.11552E-04
 0.26900000E+02  0.71737E-05
 0.26950001E+02  0.13007E-04
 0.27000000E+02 -0.76650E-05
 0.27050001E+02 -0.14971E-04
 0.27100000E+02 -0.14018E-04
 0.27150000E+02 -0.17267E-04
 0.27200001E+02 -0.60638E-05
 0.27250000E+02  0.10704E-04
 0.27300001E+02  0.20047E-04
 0.27350000E+02  0.34218E-04
 0.27400000E+02  0.27334E-04
 0.27450001E+02 -0.24078E-05
 0.27500000E+02 -0.26487E-04
 0.27550001E+02 -0.29419E-04
 0.27600000E+02 -0.83930E-05
 0.27650000E+02  0.96162E-05
 0.27700001E+02  0.34862E-05
 0.27750000E+02  0.76487E-05
 0.27800001E+02  0.23432E-04
 0.27850000E+02  0.74042E-05
 0.27900000E+02  0.33596E-05
 0.27950001E+02  0.40509E-05
 0.28000000E+02 -0.13630E-04
 0.28050001E+02 -0.34245E-05
 0.28100000E+02  0.53888E-05
 0.28150000E+02 -0.73754E-05
 0.28200001E+02 -0.15806E-04
 0.28250000E+02 -0.20821E-04
 0.28300001E+02 -0.11195E-04
 0.28350000E+02  0.52695E-05
 0.28400000E+02 -0.29230E-05
 0.28450001E+02 -0.18529E-04
 0.28500000E+02 -0.14538E-04
 0.28550001E+02  0.13891E-04
 0.28600000E+02  0.46807E-04
 0.28650000E+02  0.45881E-04
 0.28700001E+02  0.15523E-04
 0.28750000E+02 -0.18520E-04
 0.28800001E+02 -0.39132E-04
 0.28850000E+02 -0.31283E-04
 0.28900000E+02 -0.83225E-05
 0.28950001E+02  0.21916E-05
 0.29000000E+02 -0.18296E-05
 0.29050001E+02  0.15879E-04
 0.29100000E+02  0.38599E-04
 0.29150000E+02  0.32502E-04
 0.29200001E+02 -0.15682E-05
 0.29250000E+02 -0.44171E-04
 0.29300001E+02 -0.45132E-04
 0.29350000E+02 -0.10503E-04
 0.29400000E+02  0.35369E-04
 0.29450001E+02  0.40548E-04
 0.29500000E+02  0.88382E-05
 0.29550001E+02  0.91665E-06
 0.29600000E+02 -0.24277E-04
 0.29650000E+02 -0.47736E-04
 0.29700001E+02 -0.27928E-04
 0.29750000E+02  0.16855E-04
 0.29800001E+02  0.63842E-04
 0.29850000E+02  0.48875E-04
 0.29900000E+02  0.60843E-05
 0.29950001E+02 -0.27366E-04
 0.30000000E+02 -0.45718E-04
 0.30050001E+02 -0.18225E-04
 0.30100000E+02 -0.63816E-05
 0.30150000E+02 -0.24701E-05
 0.30200001E+02  0.73184E-05
 0.30250000E+02  0.57001E-05
 0.30300001E+02  0.11900E-04
 0.30350000E+02  0.78329E-05
 0.30400000E+02 -0.12200E-04
 0.30450001E+02 -0.12854E-04
 0.30500000E+02  0.23223E-04
 0.30550001E+02  0.29763E-04
 0.30600000E+02  0.26050E-05
 0.30650000E+02 -0.13368E-04
 0.30700001E+02 -0.18746E-04
 0.30750000E+02 -0.60534E-05
 0.30800001E+02  0.49447E-05
 0.30850000E+02  0.39285E-05
 0.30900000E+02 -0.76786E-07
 0.30950001E+02 -0.15579E-04
 0.31000000E+02 -0.33553E-04
 0.31050001E+02 -0.16530E-04
 0.31100000E+02  0.23552E-04
 0.31150000E+02  0.27672E-04
 0.31200001E+02  0.17899E-04
 0.31250000E+02  0.12727E-04
 0.31300001E+02  0.73718E-06
 0.31350000E+02 -0.83751E-07
 0.31400000E+02 -0.84739E-05
 0.31450001E+02 -0.17080E-04
 0.31500000E+02 -0.90893E-05
 0.31550001E+02 -0.30213E-05
 0.31600000E+02  0.56225E-05
 0.31650000E+02  0.25331E-04
 0.31700001E+02  0.16770E-04
 0.31750000E+02 -0.19960E-04
 0.31800001E+02 -0.24621E-04
 0.31850000E+02  0.15023E-05
 0.31900000E+02  0.20283E-04
 0.31950001E+02  0.10026E-04
 0.32000000E+02 -0.73330E-05
 0.32049999E+02 -0.97102E-05
 0.32100002E+02 -0.80029E-05
 0.32150002E+02 -0.14797E-04
 0.32200001E+02 -0.26119E-04
 0.32250000E+02 -0.19145E-04
 0.32299999E+02  0.12425E-04
 0.32350002E+02  0.45296E-04
 0.32400002E+02  0.46183E-04
 0.32450001E+02  0.21174E-04
 0.32500000E+02 -0.14429E-04
 0.32549999E+02 -0.29755E-04
 0.32600002E+02 -0.12801E-04
 0.32650002E+02 -0.16096E-04
 0.32700001E+02 -0.25757E-04
 0.32750000E+02 -0.11357E-04
 0.32799999E+02  0.93234E-05
 0.32850002E+02  0.31816E-04
 0.32900002E+02  0.31983E-04
 0.32950001E+02  0.24614E-05
 0.33000000E+02 -0.12694E-04
 0.33049999E+02  0.79231E-05
 0.33100002E+02  0.25852E-04
 0.33150002E+02  0.27510E-04
 0.33200001E+02  0.46167E-05
 0.33250000E+02 -0.44109E-04
 0.33299999E+02 -0.61736E-04
 0.33350002E+02 -0.42044E-04
 0.33400002E+02 -0.78566E-05
 0.33450001E+02  0.14274E-04
 0.33500000E+02  0.18494E-04
 0.33549999E+02  0.16052E-04
 0.33600002E+02  0.70584E-05
 0.33650002E+02  0.12676E-04
 0.33700001E+02  0.24895E-04
 0.33750000E+02  0.15392E-04
 0.33799999E+02 -0.11117E-04
 0.33850002E+02 -0.15904E-04
 0.33900002E+02  0.28798E-06
 0.33950001E+02  0.14516E-04
 0.34000000E+02  0.11903E-04
 0.34049999E+02 -0.89666E-05
 0.34100002E+02 -0.27622E-04
 0.34150002E+02 -0.31212E-04
 0.34200001E+02 -0.11543E-04
 0.34250000E+02  0.15881E-04
 0.34299999E+02  0.48632E-04
 0.34350002E+02  0.56639E-04
 0.34400002E+02 -0.25574E-05
 0.34450001E+02 -0.57332E-04
 0.34500000E+02 -0.52899E-04
 0.34549999E+02 -0.34165E-04
 0.34600002E+02 -0.28077E-04
 0.34650002E+02 -0.40438E-05
 0.34700001E+02  0.58748E-04
 0.34750000E+02  0.10157E-03
 0.34799999E+02  0.98038E-04
 0.34850002E+02  0.63634E-04
 0.34900002E+02 -0.25861E-04
 0.34950001E+02 -0.11404E-03
 0.35000000E+02 -0.14078E-03
 0.35049999E+02 -0.10668E-03
 0.35100002E+02 -0.83597E-05
 0.35150002E+02  0.98080E-04
 0.35200001E+02  0.16234E-03
 0.35250000E+02  0.13552E-03
 0.35299999E+02  0.58608E-04
 0.35350002E+02  0.51246E-05
 0.35400002E+02 -0.52327E-04
 0.35450001E+02 -0.10320E-03
 0.35500000E+02 -0.15388E-03
 0.35549999E+02 -0.15002E-03
 0.35600002E+02 -0.67050E-04
 0.35650002E+02  0.44515E-04
 0.35700001E+02  0.11133E-03
 0.35750000E+02  0.37114E-04
 0.35799999E+02 -0.68349E-04
 0.35850002E+02 -0.76657E-04
 0.35900002E+02 -0.24935E-04
 0.35950001E+02  0.31731E-04
 0.36000000E+02  0.10990E-03
 0.36049999E+02  0.12262E-03
 0.36100002E+02  0.31857E-04
 0.36150002E+02 -0.85514E-05
 0.36200001E+02 -0.12376E-04
 0.36250000E+02 -0.69029E-04
 0.36299999E+02 -0.15851E-03
 0.36350002E+02 -0.14670E-03
 0.36400002E+02  0.32766E-04
 0.36450001E+02  0.17113E-03
 0.36500000E+02  0.16718E-03
 0.36549999E+02  0.13122E-03
 0.36600002E+02  0.93518E-04
 0.36650002E+02  0.59010E-04
 0.36700001E+02 -0.14642E-04
 0.36750000E+02 -0.72318E-04
 0.36799999E+02 -0.45987E-04
 0.36850002E+02 -0.55314E-04
 0.36900002E+02 -0.10668E-03
 0.36950001E+02 -0.16713E-03
 0.37000000E+02 -0.14168E-03
 0.37049999E+02  0.20430E-04
 0.37100002E+02  0.12892E-03
 0.37150002E+02  0.77869E-04
 0.37200001E+02  0.35601E-04
 0.37250000E+02  0.83978E-04
 0.37299999E+02  0.99585E-04
 0.37350002E+02  0.10120E-03
 0.37400002E+02  0.46487E-04
 0.37450001E+02 -0.49745E-04
 0.37500000E+02 -0.98848E-04
 0.37549999E+02 -0.16446E-03
 0.37600002E+02 -0.17686E-03
 0.37650002E+02 -0.12051E-03
 0.37700001E+02 -0.37749E-04
 0.37750000E+02  0.47318E-04
 0.37799999E+02  0.83065E-04
 0.37850002E+02  0.11400E-03
 0.37900002E+02  0.48415E-04
 0.37950001E+02 -0.10338E-03
 0.38000000E+02 -0.96230E-04
 0.38049999E+02  0.45931E-04
 0.38100002E+02  0.99791E-04
 0.38150002E+02  0.76123E-04
 0.38200001E+02  0.83256E-04
 0.38250000E+02  0.90463E-04
 0.38299999E+02  0.49548E-04
 0.38350002E+02  0.16711E-05
 0.38400002E+02 -0.35572E-04
 0.38450001E+02 -0.77973E-04
 0.38500000E+02 -0.42083E-04
 0.38549999E+02 -0.93150E-05
 0.38600002E+02 -0.24165E-04
 0.38650002E+02 -0.33022E-04
 0.38700001E+02 -0.30592E-04
 0.38750000E+02  0.32103E-04
 0.38799999E+02  0.88001E-05
 0.38850002E+02 -0.70018E-04
 0.38900002E+02 -0.91325E-04
 0.38950001E+02 -0.76537E-04
 0.39000000E+02  0.38765E-04
 0.39049999E+02  0.19905E-03
 0.39100002E+02  0.26131E-03
 0.39150002E+02  0.15225E-03
 0.39200001E+02 -0.45591E-05
 0.39250000E+02 -0.14177E-03
 0.39299999E+02 -0.27257E-03
 0.39350002E+02 -0.25013E-03
 0.39400002E+02 -0.79048E-04
 0.39450001E+02  0.70819E-04
 0.39500000E+02  0.91886E-04
 0.39549999E+02  0.11828E-03
 0.39600002E+02  0.18443E-03
 0.39650002E+02  0.10211E-03
 0.39700001E+02 -0.53927E-04
 0.39750000E+02 -0.15046E-03
 0.39799999E+02 -0.13529E-03
 0.39850002E+02 -0.42586E-04
 0.39900002E+02  0.16320E-04
 0.39950001E+02  0.16397E-04
 0.40000000E+02  0.14690E-04
 0.40049999E+02  0.92444E-04
 0.40100002E+02  0.15496E-03
 0.40150002E+02  0.85855E-04
 0.40200001E+02 -0.29398E-04
 0.40250000E+02 -0.11049E-03
 0.40299999E+02 -0.11609E-03
 0.40350002E+02 -0.60811E-04
 0.40400002E+02 -0.13827E-04
 0.40450001E+02 -0.19575E-04
 0.40500000E+02 -0.38062E-04
 0.40549999E+02  0.37746E-04
 0.40600002E+02  0.76621E-04
 0.40650002E+02 -0.13570E-05
 0.40700001E+02 -0.64121E-04
 0.40750000E+02 -0.43930E-04
 0.40799999E+02  0.37169E-04
 0.40850002E+02  0.10710E-03
 0.40900002E+02  0.13684E-03
 0.40950001E+02  0.10328E-03
 0.41000000E+02  0.22540E-06
 0.41049999E+02 -0.10525E-03
 0.41100002E+02 -0.14875E-03
 0.41150002E+02 -0.17025E-03
 0.41200001E+02 -0.12517E-03
 0.41250000E+02  0.12164E-04
 0.41299999E+02  0.12465E-03
 0.41350002E+02  0.17871E-03
 0.41400002E+02  0.16267E-03
 0.41450001E+02  0.10808E-03
 0.41500000E+02  0.58754E-04
 0.41549999E+02 -0.15421E-04
 0.41600002E+02 -0.94083E-04
 0.41650002E+02 -0.12688E-03
 0.41700001E+02 -0.93894E-04
 0.41750000E+02 -0.13726E-04
 0.41799999E+02  0.10801E-04
 0.41850002E+02  0.61430E-05
 0.41900002E+02  0.60816E-04
 0.41950001E+02  0.66297E-04
 0.42000000E+02  0.10440E-04
 0.42049999E+02 -0.52302E-04
 0.42100002E+02 -0.10113E-03
 0.42150002E+02 -0.57648E-04
 0.42200001E+02  0.67413E-05
 0.42250000E+02  0.22714E-04
 0.42299999E+02  0.19163E-05
 0.42350002E+02 -0.38053E-04
 0.42400002E+02 -0.19559E-04
 0.42450001E+02  0.41319E-04
 0.42500000E+02  0.55603E-04
 0.42549999E+02  0.11274E-04
 0.42600002E+02 -0.26802E-04
 0.42650002E+02 -0.42839E-04
 0.42700001E+02 -0.57715E-04
 0.42750000E+02 -0.79842E-04
 0.42799999E+02 -0.80045E-04
 0.42850002E+02  0.12241E-04
 0.42900002E+02  0.10615E-03
 0.42950001E+02  0.10402E-03
 0.43000000E+02  0.67647E-04
 0.43049999E+02  0.33980E-04
 0.43100002E+02  0.18079E-04
 0.43150002E+02  0.80491E-05
 0.43200001E+02 -0.15840E-04
 0.43250000E+02 -0.31752E-04
 0.43299999E+02 -0.35901E-04
 0.43350002E+02 -0.77944E-05
 0.43400002E+02  0.55647E-04
 0.43450001E+02  0.99320E-04
 0.43500000E+02  0.76608E-04
 0.43549999E+02  0.16456E-04
 0.43600002E+02 -0.52411E-04
 0.43650002E+02 -0.11446E-03
 0.43700001E+02 -0.11533E-03
 0.43750000E+02 -0.68279E-04
 0.43799999E+02 -0.31344E-04
 0.43850002E+02 -0.21197E-04
 0.43900002E+02  0.45895E-05
 0.43950001E+02  0.38694E-04
 0.44000000E+02  0.69954E-04
 0.44049999E+02  0.10343E-03
 0.44100002E+02  0.66320E-04
 0.44150002E+02 -0.42963E-05
 0.44200001E+02 -0.51557E-04
 0.44250000E+02 -0.75428E-04
 0.44299999E+02 -0.54448E-04
 0.44350002E+02 -0.12909E-04
 0.44400002E+02  0.34754E-04
 0.44450001E+02  0.71235E-04
 0.44500000E+02  0.81433E-04
 0.44549999E+02  0.74004E-04
 0.44600002E+02  0.32198E-04
 0.44650002E+02 -0.40026E-04
 0.44700001E+02 -0.10762E-03
 0.44750000E+02 -0.13423E-03
 0.44799999E+02 -0.10939E-03
 0.44850002E+02 -0.44696E-04
 0.44900002E+02  0.52558E-04
 0.44950001E+02  0.12381E-03
 0.45000000E+02  0.12059E-03
 0.45049999E+02  0.69998E-04
 0.45100002E+02 -0.23507E-05
 0.45150002E+02 -0.58093E-04
 0.45200001E+02 -0.78320E-04
 0.45250000E+02 -0.68132E-04
 0.45299999E+02 -0.28162E-04
 0.45350002E+02  0.67304E-05
 0.45400002E+02  0.34767E-04
 0.45450001E+02  0.46597E-04
 0.45500000E+02  0.22296E-04
 0.45549999E+02 -0.15112E-04
 0.45600002E+02 -0.17379E-04
 0.45650002E+02  0.27035E-04
 0.45700001E+02  0.40996E-04
 0.45750000E+02  0.64282E-05
 0.45799999E+02 -0.30407E-04
 0.45850002E+02 -0.44684E-04
 0.45900002E+02 -0.23773E-04
 0.45950001E+02  0.17649E-04
 0.46000000E+02  0.49959E-04
 0.46049999E+02  0.38828E-04
 0.46100002E+02 -0.37919E-05
 0.46150002E+02 -0.20366E-04
 0.46200001E+02 -0.82173E-05
 0.46250000E+02 -0.11959E-04
 0.46299999E+02 -0.40796E-04
 0.46350002E+02 -0.47073E-04
 0.46400002E+02 -0.11809E-04
 0.46450001E+02  0.20968E-04
 0.46500000E+02  0.19893E-04
 0.46549999E+02  0.14098E-04
 0.46600002E+02  0.23999E-04
 0.46650002E+02  0.20500E-04
 0.46700001E+02  0.16564E-04
 0.46750000E+02  0.19755E-04
 0.46799999E+02  0.12864E-06
 0.46850002E+02 -0.27774E-04
 0.46900002E+02 -0.33851E-04
 0.46950001E+02 -0.23139E-04
 0.47000000E+02 -0.14120E-04
 0.47049999E+02 -0.81096E-05
 0.47100002E+02 -0.31180E-05
 0.47150002E+02  0.14864E-04
 0.47200001E+02  0.46770E-04
 0.47250000E+02  0.58723E-04
 0.47299999E+02  0.49227E-04
 0.47350002E+02  0.15889E-04
 0.47400002E+02 -0.29153E-04
 0.47450001E+02 -0.51472E-04
 0.47500000E+02 -0.66421E-04
 0.47549999E+02 -0.61939E-04
 0.47600002E+02 -0.18869E-04
 0.47650002E+02  0.28273E-04
 0.47700001E+02  0.58143E-04
 0.47750000E+02  0.54113E-04
 0.47799999E+02  0.10044E-04
 0.47850002E+02 -0.40718E-04
 0.47900002E+02 -0.60179E-04
 0.47950001E+02 -0.43092E-04
 0.48000000E+02 -0.12037E-04
 0.48049999E+02  0.31052E-04
 0.48100002E+02  0.54115E-04
 0.48150002E+02  0.47667E-04
 0.48200001E+02  0.40018E-04
 0.48250000E+02  0.24143E-04
 0.48299999E+02  0.96434E-05
 0.48350002E+02 -0.10899E-04
 0.48400002E+02 -0.35967E-04
 0.48450001E+02 -0.53412E-04
 0.48500000E+02 -0.58072E-04
 0.48549999E+02 -0.36753E-04
 0.48600002E+02 -0.18219E-05
 0.48650002E+02  0.17848E-04
 0.48700001E+02  0.22936E-04
 0.48750000E+02  0.43891E-04
 0.48799999E+02  0.55134E-04
 0.48850002E+02  0.40575E-04
 0.48900002E+02  0.10960E-04
 0.48950001E+02 -0.26273E-04
 0.49000000E+02 -0.38437E-04
 0.49049999E+02 -0.37535E-04
 0.49100002E+02 -0.36664E-04
 0.49150002E+02 -0.22226E-04
 0.49200001E+02 -0.58042E-07
 0.49250000E+02  0.20143E-04
 0.49299999E+02  0.28664E-04
 0.49350002E+02  0.28835E-04
 0.49400002E+02  0.21197E-04
 0.49450001E+02 -0.35869E-05
 0.49500000E+02 -0.17213E-04
 0.49549999E+02 -0.35368E-05
 0.49600002E+02  0.21271E-04
 0.49650002E+02  0.48941E-04
 0.49700001E+02  0.51520E-04
 0.49750000E+02  0.17659E-04
 0.49799999E+02 -0.32324E-04
 0.49850002E+02 -0.74639E-04
 0.49900002E+02 -0.97448E-04
 0.49950001E+02 -0.94676E-04
 0.50000000E+02 -0.51637E-04
 0.50049999E+02  0.10857E-04
 0.50100002E+02  0.45264E-04
 0.50150002E+02  0.49337E-04
 0.50200001E+02  0.43678E-04
 0.50250000E+02  0.30070E-04
 0.50299999E+02  0.22226E-04
 0.50350002E+02  0.16502E-04
 0.50400002E+02  0.20302E-05
 0.50450001E+02 -0.61337E-05
 0.50500000E+02  0.69886E-05
 0.50549999E+02  0.20743E-04
 0.50600002E+02  0.10900E-04
 0.50650002E+02 -0.10095E-05
 0.50700001E+02 -0.93510E-05
 0.50750000E+02 -0.13461E-04
 0.50799999E+02 -0.24844E-04
 0.50850002E+02 -0.43035E-04
 0.50900002E+02 -0.33636E-04
 0.50950001E+02 -0.10300E-04
 0.51000000E+02  0.96130E-05
 0.51049999E+02  0.32630E-04
 0.51100002E+02  0.64186E-04
 0.51150002E+02  0.78770E-04
 0.51200001E+02  0.55421E-04
 0.51250000E+02  0.93096E-05
 0.51299999E+02 -0.30715E-04
 0.51350002E+02 -0.54593E-04
 0.51400002E+02 -0.75570E-04
 0.51450001E+02 -0.77514E-04
 0.51500000E+02 -0.55628E-04
 0.51549999E+02 -0.12494E-04
 0.51600002E+02  0.36583E-04
 0.51650002E+02  0.57985E-04
 0.51700001E+02  0.46044E-04
 0.51750000E+02  0.93450E-05
 0.51799999E+02 -0.33090E-04
 0.51850002E+02 -0.46835E-04
 0.51900002E+02 -0.21805E-04
 0.51950001E+02  0.10404E-04
 0.52000000E+02  0.32105E-04
 0.52049999E+02  0.44186E-04
 0.52100002E+02  0.45064E-04
 0.52150002E+02  0.36458E-04
 0.52200001E+02  0.23282E-04
 0.52250000E+02  0.75732E-07
 0.52299999E+02 -0.17462E-04
 0.52350002E+02 -0.15370E-04
 0.52400002E+02 -0.17259E-04
 0.52450001E+02 -0.18866E-04
 0.52500000E+02 -0.17275E-04
 0.52549999E+02 -0.27191E-04
 0.52600002E+02 -0.31293E-04
 0.52650002E+02 -0.17780E-04
 0.52700001E+02 -0.67476E-05
 0.52750000E+02 -0.72602E-07
 0.52799999E+02  0.65264E-05
 0.52850002E+02  0.11597E-04
 0.52900002E+02  0.22587E-04
 0.52950001E+02  0.21331E-04
 0.53000000E+02  0.10083E-04
 0.53049999E+02  0.14551E-04
 0.53100002E+02  0.23480E-04
 0.53150002E+02  0.30201E-04
 0.53200001E+02  0.32738E-04
 0.53250000E+02  0.13914E-04
 0.53299999E+02 -0.16357E-04
 0.53350002E+02 -0.42586E-04
 0.53400002E+02 -0.46395E-04
 0.53450001E+02 -0.22700E-04
 0.53500000E+02 -0.20398E-05
 0.53549999E+02  0.36799E-05
 0.53600002E+02 -0.51369E-05
 0.53650002E+02 -0.14468E-04
 0.53700001E+02 -0.77341E-05
 0.53750000E+02  0.34125E-05
 0.53799999E+02  0.12799E-04
 0.53850002E+02  0.19434E-04
 0.53900002E+02  0.17636E-04
 0.53950001E+02  0.16459E-04
 0.54000000E+02  0.15613E-04
 0.54049999E+02  0.63057E-06
 0.54100002E+02 -0.19201E-04
 0.54150002E+02 -0.32917E-04
 0.54200001E+02 -0.40599E-04
 0.54250000E+02 -0.31593E-04
 0.54299999E+02 -0.13035E-04
 0.54350002E+02 -0.74826E-06
 0.54400002E+02  0.64942E-05
 0.54450001E+02  0.70301E-05
 0.54500000E+02  0.99384E-05
 0.54549999E+02  0.18737E-04
 0.54600002E+02  0.27722E-04
 0.54650002E+02  0.30275E-04
 0.54700001E+02  0.20456E-04
 0.54750000E+02  0.67063E-05
 0.54799999E+02  0.58525E-06
 0.54850002E+02  0.15497E-04
 0.54900002E+02  0.25904E-04
 0.54950001E+02  0.16078E-04
 0.55000000E+02  0.25546E-05
 0.55049999E+02 -0.12462E-04
 0.55100002E+02 -0.26794E-04
 0.55150002E+02 -0.44549E-04
 0.55200001E+02 -0.56286E-04
 0.55250000E+02 -0.53843E-04
 0.55299999E+02 -0.37568E-04
 0.55350002E+02 -0.10577E-04
 0.55400002E+02  0.18974E-04
 0.55450001E+02  0.40925E-04
 0.55500000E+02  0.46940E-04
 0.55549999E+02  0.46039E-04
 0.55600002E+02  0.42181E-04
 0.55650002E+02  0.28834E-04
 0.55700001E+02  0.34589E-05
 0.55750000E+02 -0.19019E-04
 0.55799999E+02 -0.28257E-04
 0.55850002E+02 -0.23387E-04
 0.55900002E+02 -0.15605E-04
 0.55950001E+02 -0.10077E-04
 0.56000000E+02  0.32402E-05
 0.56049999E+02  0.10724E-04
 0.56100002E+02  0.56621E-05
 0.56150002E+02 -0.32220E-05
 0.56200001E+02 -0.63823E-05
 0.56250000E+02 -0.72129E-05
 0.56299999E+02 -0.12681E-04
 0.56350002E+02 -0.16565E-04
 0.56400002E+02 -0.55233E-05
 0.56450001E+02  0.16831E-04
 0.56500000E+02  0.22034E-04
 0.56549999E+02  0.11862E-04
 0.56600002E+02  0.70627E-06
 0.56650002E+02 -0.24199E-05
 0.56700001E+02  0.85853E-05
 0.56750000E+02  0.16991E-04
 0.56799999E+02  0.19900E-04
 0.56850002E+02  0.21320E-04
 0.56900002E+02  0.79389E-05
 0.56950001E+02 -0.10672E-04
 0.57000000E+02 -0.20011E-04
 0.57049999E+02 -0.28534E-04
 0.57100002E+02 -0.36297E-04
 0.57150002E+02 -0.33400E-04
 0.57200001E+02 -0.21332E-04
 0.57250000E+02 -0.91088E-05
 0.57299999E+02  0.28766E-05
 0.57350002E+02  0.11038E-04
 0.57400002E+02  0.16478E-04
 0.57450001E+02  0.22922E-04
 0.57500000E+02  0.24847E-04
 0.57549999E+02  0.21238E-04
 0.57600002E+02  0.13488E-04
 0.57650002E+02  0.37502E-05
 0.57700001E+02 -0.56176E-05
 0.57750000E+02 -0.69953E-05
 0.57799999E+02  0.67910E-06
 0.57850002E+02  0.70259E-05
 0.57900002E+02  0.30684E-05
 0.57950001E+02 -0.60389E-05
 0.58000000E+02 -0.13140E-04
 0.58049999E+02 -0.26373E-04
 0.58100002E+02 -0.34339E-04
 0.58150002E+02 -0.24251E-04
 0.58200001E+02 -0.20212E-05
 0.58250000E+02  0.20793E-04
 0.58299999E+02  0.24888E-04
 0.58350002E+02  0.15269E-04
 0.58400002E+02  0.76609E-05
 0.58450001E+02  0.80850E-05
 0.58500000E+02  0.13691E-04
 0.58549999E+02  0.12609E-04
 0.58600002E+02  0.63511E-05
 0.58650002E+02  0.27724E-05
 0.58700001E+02  0.19834E-06
 0.58750000E+02 -0.50296E-05
 0.58799999E+02 -0.92940E-05
 0.58850002E+02 -0.90609E-05
 0.58900002E+02 -0.68792E-05
 0.58950001E+02 -0.10032E-04
 0.59000000E+02 -0.15321E-04
 0.59049999E+02 -0.17465E-04
 0.59100002E+02 -0.20080E-04
 0.59150002E+02 -0.18077E-04
 0.59200001E+02 -0.10373E-04
 0.59250000E+02 -0.46649E-06
 0.59299999E+02  0.12555E-04
 0.59350002E+02  0.23811E-04
 0.59400002E+02  0.24324E-04
 0.59450001E+02  0.15535E-04
 0.59500000E+02  0.11040E-04
 0.59549999E+02  0.13784E-04
 0.59600002E+02  0.16517E-04
 0.59650002E+02  0.15344E-04
 0.59700001E+02  0.10975E-04
 0.59750000E+02  0.66198E-05
 0.59799999E+02 -0.32795E-05
 0.59850002E+02 -0.17756E-04
 0.59900002E+02 -0.25268E-04
 0.59950001E+02 -0.26605E-04
 0.60000000E+02 -0.19561E-04
 0.60049999E+02 -0.35066E-05
 0.60100002E+02  0.53417E-05
 0.60150002E+02  0.16937E-05
 0.60200001E+02 -0.78431E-05
 0.60250000E+02 -0.16706E-04
 0.60299999E+02 -0.16144E-04
 0.60350002E+02 -0.68590E-05
 0.60400002E+02  0.46225E-05
 0.60450001E+02  0.14377E-04
 0.60500000E+02  0.21639E-04
 0.60549999E+02  0.31233E-04
 0.60600002E+02  0.39922E-04
 0.60650002E+02  0.37516E-04
 0.60700001E+02  0.20460E-04
 0.60750000E+02 -0.49511E-05
 0.60799999E+02 -0.26543E-04
 0.60850002E+02 -0.35469E-04
 0.60900002E+02 -0.30553E-04
 0.60950001E+02 -0.17783E-04
 0.61000000E+02 -0.56109E-05
 0.61049999E+02  0.97346E-06
 0.61100002E+02  0.53847E-05
 0.61150002E+02  0.76608E-05
 0.61200001E+02  0.38800E-05
 0.61250000E+02 -0.60875E-05
 0.61299999E+02 -0.16538E-04
 0.61350002E+02 -0.18594E-04
 0.61400002E+02 -0.16836E-04
 0.61450001E+02 -0.78492E-05
 0.61500000E+02  0.16674E-04
 0.61549999E+02  0.43350E-04
 0.61600002E+02  0.55012E-04
 0.61650002E+02  0.43913E-04
 0.61700001E+02  0.15788E-04
 0.61750000E+02 -0.11848E-04
 0.61799999E+02 -0.29446E-04
 0.61850002E+02 -0.41743E-04
 0.61900002E+02 -0.45650E-04
 0.61950001E+02 -0.37336E-04
 0.62000000E+02 -0.23327E-04
 0.62049999E+02 -0.90422E-05
 0.62100002E+02  0.51527E-05
 0.62150002E+02  0.20164E-04
 0.62200001E+02  0.30537E-04
 0.62250000E+02  0.34976E-04
 0.62299999E+02  0.33664E-04
 0.62350002E+02  0.23970E-04
 0.62400002E+02  0.63057E-05
 0.62450001E+02 -0.13447E-04
 0.62500000E+02 -0.24870E-04
 0.62549999E+02 -0.28032E-04
 0.62600002E+02 -0.27323E-04
 0.62650002E+02 -0.21724E-04
 0.62700001E+02 -0.85090E-05
 0.62750000E+02  0.55665E-05
 0.62799999E+02  0.14178E-04
 0.62850002E+02  0.19574E-04
 0.62900002E+02  0.18939E-04
 0.62950001E+02  0.16762E-04
 0.63000000E+02  0.13630E-04
 0.63049999E+02  0.75144E-05
 0.63100002E+02  0.29470E-05
 0.63150002E+02 -0.36609E-05
 0.63200001E+02 -0.83914E-05
 0.63250000E+02 -0.69601E-05
 0.63299999E+02 -0.87266E-05
 0.63350002E+02 -0.16155E-04
 0.63400002E+02 -0.18089E-04
 0.63450001E+02 -0.11618E-04
 0.63500000E+02 -0.28840E-05
 0.63549999E+02  0.34719E-05
 0.63600002E+02  0.37775E-05
 0.63650002E+02  0.46253E-05
 0.63700001E+02  0.68510E-05
 0.63750000E+02  0.77281E-05
 0.63799999E+02  0.96263E-05
 0.63850002E+02  0.51233E-05
 0.63900002E+02 -0.55798E-05
 0.63950001E+02 -0.15087E-04
 0.64000000E+02 -0.14728E-04
 0.64050003E+02 -0.22153E-05
 0.64099998E+02  0.12757E-04
 0.64150002E+02  0.28085E-04
 0.64200005E+02  0.34677E-04
 0.64250000E+02  0.26808E-04
 0.64300003E+02  0.11299E-04
 0.64349998E+02 -0.55849E-05
 0.64400002E+02 -0.14867E-04
 0.64450005E+02 -0.21672E-04
 0.64500000E+02 -0.26354E-04
 0.64550003E+02 -0.27925E-04
 0.64599998E+02 -0.27432E-04
 0.64650002E+02 -0.15382E-04
 0.64700005E+02  0.14075E-06
 0.64750000E+02  0.10986E-04
 0.64800003E+02  0.13208E-04
 0.64849998E+02  0.71166E-05
 0.64900002E+02  0.29424E-05
 0.64950005E+02  0.34679E-05
 0.65000000E+02  0.98942E-05
 0.65050003E+02  0.14896E-04
 0.65099998E+02  0.87608E-05
 0.65150002E+02 -0.20002E-05
 0.65200005E+02 -0.92926E-05
 0.65250000E+02 -0.12703E-04
 0.65300003E+02 -0.11205E-04
 0.65349998E+02 -0.75574E-05
 0.65400002E+02 -0.16831E-05
 0.65450005E+02  0.11503E-04
 0.65500000E+02  0.25428E-04
 0.65550003E+02  0.29759E-04
 0.65599998E+02  0.24391E-04
 0.65650002E+02  0.13060E-04
 0.65700005E+02 -0.15095E-05
 0.65750000E+02 -0.14043E-04
 0.65800003E+02 -0.21131E-04
 0.65849998E+02 -0.23582E-04
 0.65900002E+02 -0.21836E-04
 0.65950005E+02 -0.18681E-04
 0.66000000E+02 -0.17219E-04
 0.66050003E+02 -0.11842E-04
 0.66099998E+02 -0.28294E-05
 0.66150002E+02  0.32803E-05
 0.66200005E+02  0.81698E-05
 0.66250000E+02  0.13879E-04
 0.66300003E+02  0.20153E-04
 0.66349998E+02  0.22700E-04
 0.66400002E+02  0.18049E-04
 0.66450005E+02  0.87763E-05
 0.66500000E+02  0.27885E-05
 0.66550003E+02  0.25429E-05
 0.66599998E+02 -0.81787E-07
 0.66650002E+02 -0.41606E-05
 0.66700005E+02 -0.51277E-05
 0.66750000E+02 -0.30251E-05
 0.66800003E+02  0.24400E-06
 0.66849998E+02 -0.30104E-05
 0.66900002E+02 -0.13794E-04
 0.66950005E+02 -0.23350E-04
 0.67000000E+02 -0.23681E-04
 0.67050003E+02 -0.14567E-04
 0.67099998E+02 -0.44477E-05
 0.67150002E+02  0.11165E-05
 0.67200005E+02  0.38414E-05
 0.67250000E+02  0.80252E-05
 0.67300003E+02  0.14685E-04
 0.67349998E+02  0.18105E-04
 0.67400002E+02  0.16074E-04
 0.67450005E+02  0.13748E-04
 0.67500000E+02  0.10554E-04
 0.67550003E+02  0.26432E-05
 0.67599998E+02 -0.63831E-05
 0.67650002E+02 -0.10519E-04
 0.67700005E+02 -0.79211E-05
 0.67750000E+02 -0.42216E-05
 0.67800003E+02 -0.66306E-05
 0.67849998E+02 -0.97618E-05
 0.67900002E+02 -0.51630E-05
 0.67950005E+02  0.31741E-05
 0.68000000E+02  0.10328E-04
 0.68050003E+02  0.13642E-04
 0.68099998E+02  0.84141E-05
 0.68150002E+02 -0.15293E-05
 0.68200005E+02 -0.10796E-04
 0.68250000E+02 -0.18487E-04
 0.68300003E+02 -0.19689E-04
 0.68349998E+02 -0.12616E-04
 0.68400002E+02 -0.24108E-05
 0.68450005E+02  0.52440E-05
 0.68500000E+02  0.10818E-04
 0.68550003E+02  0.17009E-04
 0.68599998E+02  0.19974E-04
 0.68650002E+02  0.17473E-04
 0.68700005E+02  0.96614E-05
 0.68750000E+02 -0.14404E-05
 0.68800003E+02 -0.81893E-05
 0.68849998E+02 -0.90822E-05
 0.68900002E+02 -0.67488E-05
 0.68950005E+02 -0.34209E-05
 0.69000000E+02 -0.11092E-05
 0.69050003E+02  0.64910E-06
 0.69099998E+02 -0.88552E-07
 0.69150002E+02 -0.24179E-06
 0.69200005E+02  0.11818E-05
 0.69250000E+02  0.22886E-06
 0.69300003E+02 -0.73930E-06
 0.69349998E+02 -0.24535E-05
 0.69400002E+02 -0.43375E-05
 0.69450005E+02 -0.36503E-05
 0.69500000E+02 -0.42966E-05
 0.69550003E+02 -0.66706E-05
 0.69599998E+02 -0.82720E-05
 0.69650002E+02 -0.75523E-05
 0.69700005E+02 -0.23117E-05
 0.69750000E+02  0.41588E-05
 0.69800003E+02  0.87103E-05
 0.69849998E+02  0.11086E-04
 0.69900002E+02  0.11508E-04
 0.69950005E+02  0.11304E-04
 0.70000000E+02  0.94867E-05
 0.70050003E+02  0.55562E-05
 0.70099998E+02 -0.10438E-05
 0.70150002E+02 -0.98203E-05
 0.70200005E+02 -0.15291E-04
 0.70250000E+02 -0.14230E-04
 0.70300003E+02 -0.75289E-05
 0.70349998E+02  0.25342E-05
 0.70400002E+02  0.95045E-05
 0.70450005E+02  0.11833E-04
 0.70500000E+02  0.11283E-04
 0.70550003E+02  0.85070E-05
 0.70599998E+02  0.51920E-05
 0.70650002E+02 -0.35889E-06
 0.70700005E+02 -0.62345E-05
 0.70750000E+02 -0.87750E-05
 0.70800003E+02 -0.64185E-05
 0.70849998E+02 -0.34357E-05
 0.70900002E+02 -0.30786E-05
 0.70950005E+02 -0.14333E-05
 0.71000000E+02 -0.33409E-06
 0.71050003E+02 -0.11151E-05
 0.71099998E+02 -0.29851E-05
 0.71150002E+02 -0.55796E-05
 0.71200005E+02 -0.71132E-05
 0.71250000E+02 -0.42989E-05
 0.71300003E+02  0.26373E-05
 0.71349998E+02  0.72444E-05
 0.71400002E+02  0.83631E-05
 0.71450005E+02  0.52892E-05
 0.71500000E+02  0.48600E-06
 0.71550003E+02 -0.18227E-05
 0.71599998E+02 -0.29317E-05
 0.71650002E+02 -0.16874E-05
 0.71700005E+02  0.85013E-06
 0.71750000E+02  0.23699E-05
 0.71800003E+02  0.17146E-05
 0.71849998E+02 -0.15833E-05
 0.71900002E+02 -0.41744E-05
 0.71950005E+02 -0.38532E-05
 0.72000000E+02 -0.15448E-05
 0.72050003E+02  0.74386E-06
 0.72099998E+02  0.13816E-05
 0.72150002E+02  0.19291E-05
 0.72200005E+02  0.46726E-05
 0.72250000E+02  0.81497E-05
 0.72300003E+02  0.10767E-04
 0.72349998E+02  0.11566E-04
 0.72400002E+02  0.80708E-05
 0.72450005E+02  0.13508E-05
 0.72500000E+02 -0.54069E-05
 0.72550003E+02 -0.11006E-04
 0.72599998E+02 -0.14744E-04
 0.72650002E+02 -0.16902E-04
 0.72700005E+02 -0.16644E-04
 0.72750000E+02 -0.11626E-04
 0.72800003E+02 -0.36876E-05
 0.72849998E+02  0.37093E-05
 0.72900002E+02  0.93378E-05
 0.72950005E+02  0.87518E-05
 0.73000000E+02  0.35662E-05
 0.73050003E+02  0.16201E-06
 0.73099998E+02 -0.18672E-05
 0.73150002E+02 -0.12933E-05
 0.73200005E+02  0.16301E-05
 0.73250000E+02  0.58744E-05
 0.73300003E+02  0.98125E-05
 0.73349998E+02  0.10141E-04
 0.73400002E+02  0.94193E-05
 0.73450005E+02  0.85311E-05
 0.73500000E+02  0.74349E-05
 0.73550003E+02  0.61211E-05
 0.73599998E+02  0.10206E-05
 0.73650002E+02 -0.48850E-05
 0.73700005E+02 -0.76424E-05
 0.73750000E+02 -0.10835E-04
 0.73800003E+02 -0.14306E-04
 0.73849998E+02 -0.13610E-04
 0.73900002E+02 -0.64676E-05
 0.73950005E+02  0.18651E-05
 0.74000000E+02  0.49538E-05
 0.74050003E+02  0.59165E-05
 0.74099998E+02  0.70004E-05
 0.74150002E+02  0.51234E-05
 0.74200005E+02  0.34123E-06
 0.74250000E+02 -0.34643E-05
 0.74300003E+02 -0.45138E-05
 0.74349998E+02 -0.19658E-05
 0.74400002E+02  0.28817E-05
 0.74450005E+02  0.58949E-05
 0.74500000E+02  0.74286E-05
 0.74550003E+02  0.91186E-05
 0.74599998E+02  0.97656E-05
 0.74650002E+02  0.56256E-05
 0.74700005E+02 -0.59857E-05
 0.74750000E+02 -0.19620E-04
 0.74800003E+02 -0.26409E-04
 0.74849998E+02 -0.24149E-04
 0.74900002E+02 -0.17344E-04
 0.74950005E+02 -0.94966E-05
 0.75000000E+02 -0.74294E-06
 0.75050003E+02  0.79016E-05
 0.75099998E+02  0.14763E-04
 0.75150002E+02  0.16468E-04
 0.75200005E+02  0.11706E-04
 0.75250000E+02  0.62989E-05
 0.75300003E+02  0.44369E-05
 0.75349998E+02  0.62476E-05
 0.75400002E+02  0.88281E-05
 0.75450005E+02  0.69604E-05
 0.75500000E+02  0.17524E-05
 0.75550003E+02 -0.11802E-05
 0.75599998E+02 -0.19261E-05
 0.75650002E+02  0.29515E-06
 0.75700005E+02  0.49130E-05
 0.75750000E+02  0.54579E-05
 0.75800003E+02  0.31081E-05
 0.75849998E+02 -0.26534E-05
 0.75900002E+02 -0.10713E-04
 0.75950005E+02 -0.12964E-04
 0.76000000E+02 -0.89391E-05
 0.76050003E+02 -0.38925E-06
 0.76099998E+02  0.80031E-05
 0.76150002E+02  0.11040E-04
 0.76200005E+02  0.92680E-05
 0.76250000E+02  0.48594E-05
 0.76300003E+02 -0.56949E-06
 0.76349998E+02 -0.61228E-05
 0.76400002E+02 -0.10514E-04
 0.76450005E+02 -0.12252E-04
 0.76500000E+02 -0.10718E-04
 0.76550003E+02 -0.77996E-05
 0.76599998E+02 -0.28790E-05
 0.76650002E+02  0.22381E-05
 0.76700005E+02  0.48516E-05
 0.76750000E+02  0.51254E-05
 0.76800003E+02  0.15863E-05
 0.76849998E+02 -0.14635E-05
 0.76900002E+02 -0.31893E-05
 0.76950005E+02 -0.34498E-05
 0.77000000E+02  0.69722E-06
 0.77050003E+02  0.49948E-05
 0.77099998E+02  0.97908E-05
 0.77150002E+02  0.14940E-04
 0.77200005E+02  0.14332E-04
 0.77250000E+02  0.64356E-05
 0.77300003E+02 -0.64467E-05
 0.77349998E+02 -0.18072E-04
 0.77400002E+02 -0.21988E-04
 0.77450005E+02 -0.18942E-04
 0.77500000E+02 -0.11406E-04
 0.77550003E+02 -0.70026E-06
 0.77599998E+02  0.91830E-05
 0.77650002E+02  0.14275E-04
 0.77700005E+02  0.14118E-04
 0.77750000E+02  0.10807E-04
 0.77800003E+02  0.54853E-05
 0.77849998E+02 -0.36273E-06
 0.77900002E+02 -0.49381E-05
 0.77950005E+02 -0.78320E-05
 0.78000000E+02 -0.82920E-05
 0.78050003E+02 -0.70432E-05
 0.78099998E+02 -0.37877E-05
 0.78150002E+02  0.15565E-05
 0.78200005E+02  0.52517E-05
 0.78250000E+02  0.60896E-05
 0.78300003E+02  0.57753E-05
 0.78349998E+02  0.50231E-05
 0.78400002E+02  0.49082E-05
 0.78450005E+02  0.58711E-05
 0.78500000E+02  0.52315E-05
 0.78550003E+02  0.33912E-05
 0.78599998E+02  0.17272E-05
 0.78650002E+02 -0.16632E-05
 0.78700005E+02 -0.51074E-05
 0.78750000E+02 -0.57350E-05
 0.78800003E+02 -0.43885E-05
 0.78849998E+02 -0.37333E-05
 0.78900002E+02 -0.36698E-05
 0.78950005E+02 -0.46401E-05
 0.79000000E+02 -0.45753E-05
 0.79050003E+02 -0.42166E-06
 0.79099998E+02  0.39700E-05
 0.79150002E+02  0.72408E-05
 0.79200005E+02  0.74156E-05
 0.79250000E+02  0.42374E-05
 0.79300003E+02  0.12873E-05
 0.79349998E+02 -0.68792E-06
 0.79400002E+02 -0.22470E-06
 0.79450005E+02 -0.54421E-06
 0.79500000E+02 -0.40111E-05
 0.79550003E+02 -0.73894E-05
 0.79599998E+02 -0.91618E-05
 0.79650002E+02 -0.80807E-05
 0.79700005E+02 -0.38627E-05
 0.79750000E+02  0.17484E-05
 0.79800003E+02  0.76058E-05
 0.79849998E+02  0.11118E-04
 0.79900002E+02  0.10129E-04
 0.79950005E+02  0.66786E-05
 0.80000000E+02  0.22961E-05
 0.80050003E+02 -0.16461E-05
 0.80099998E+02 -0.32886E-05
 0.80150002E+02 -0.31587E-05
 0.80200005E+02 -0.29227E-05
 0.80250000E+02 -0.25393E-05
 0.80300003E+02 -0.15869E-05
 0.80349998E+02 -0.19110E-05
 0.80400002E+02 -0.33619E-05
 0.80450005E+02 -0.56784E-05
 0.80500000E+02 -0.72841E-05
 0.80550003E+02 -0.50048E-05
 0.80599998E+02 -0.30390E-06
 0.80650002E+02  0.59150E-05
 0.80700005E+02  0.11077E-04
 0.80750000E+02  0.10728E-04
 0.80800003E+02  0.60578E-05
 0.80849998E+02 -0.14506E-05
 0.80900002E+02 -0.86631E-05
 0.80950005E+02 -0.11185E-04
 0.81000000E+02 -0.10486E-04
 0.81050003E+02 -0.76572E-05
 0.81099998E+02 -0.28347E-05
 0.81150002E+02  0.23150E-05
 0.81200005E+02  0.61938E-05
 0.81250000E+02  0.83371E-05
 0.81300003E+02  0.99579E-05
 0.81349998E+02  0.10765E-04
 0.81400002E+02  0.10704E-04
 0.81450005E+02  0.82273E-05
 0.81500000E+02  0.11604E-05
 0.81550003E+02 -0.71600E-05
 0.81599998E+02 -0.11832E-04
 0.81650002E+02 -0.11313E-04
 0.81700005E+02 -0.70795E-05
 0.81750000E+02 -0.15616E-05
 0.81800003E+02  0.10750E-05
 0.81849998E+02 -0.14270E-05
 0.81900002E+02 -0.43316E-05
 0.81950005E+02 -0.40030E-05
 0.82000000E+02 -0.13981E-05
 0.82050003E+02  0.29808E-05
 0.82099998E+02  0.81969E-05
 0.82150002E+02  0.12533E-04
 0.82200005E+02  0.14078E-04
 0.82250000E+02  0.10384E-04
 0.82300003E+02  0.26295E-05
 0.82349998E+02 -0.45382E-05
 0.82400002E+02 -0.83548E-05
 0.82450005E+02 -0.88216E-05
 0.82500000E+02 -0.69926E-05
 0.82550003E+02 -0.37363E-05
 0.82599998E+02 -0.60800E-06
 0.82650002E+02  0.18216E-05
 0.82700005E+02  0.23617E-05
 0.82750000E+02 -0.10846E-05
 0.82800003E+02 -0.60777E-05
 0.82849998E+02 -0.92108E-05
 0.82900002E+02 -0.93419E-05
 0.82950005E+02 -0.66089E-05
 0.83000000E+02 -0.29671E-05
 0.83050003E+02  0.43213E-06
 0.83099998E+02  0.57460E-05
 0.83150002E+02  0.12912E-04
 0.83200005E+02  0.17415E-04
 0.83250000E+02  0.16006E-04
 0.83300003E+02  0.93658E-05
 0.83349998E+02  0.19840E-05
 0.83400002E+02 -0.20375E-05
 0.83450005E+02 -0.36982E-05
 0.83500000E+02 -0.44841E-05
 0.83550003E+02 -0.36714E-05
 0.83599998E+02 -0.23965E-05
 0.83650002E+02 -0.13843E-05
 0.83700005E+02 -0.22736E-05
 0.83750000E+02 -0.43504E-05
 0.83800003E+02 -0.40369E-05
 0.83849998E+02 -0.43129E-05
 0.83900002E+02 -0.61401E-05
 0.83950005E+02 -0.70686E-05
 0.84000000E+02 -0.69796E-05
 0.84050003E+02 -0.52148E-05
 0.84099998E+02 -0.26238E-05
 0.84150002E+02  0.33687E-06
 0.84200005E+02  0.35006E-05
 0.84250000E+02  0.47881E-05
 0.84300003E+02  0.34180E-05
 0.84349998E+02  0.14641E-05
 0.84400002E+02  0.23841E-05
 0.84450005E+02  0.63815E-05
 0.84500000E+02  0.96506E-05
 0.84550003E+02  0.10324E-04
 0.84599998E+02  0.91952E-05
 0.84650002E+02  0.59800E-05
 0.84700005E+02  0.81028E-06
 0.84750000E+02 -0.42169E-05
 0.84800003E+02 -0.69981E-05
 0.84849998E+02 -0.65159E-05
 0.84900002E+02 -0.38473E-05
 0.84950005E+02 -0.25104E-06
 0.85000000E+02  0.39807E-05
 0.85050003E+02  0.62182E-05
 0.85099998E+02  0.41734E-05
 0.85150002E+02 -0.90268E-06
 0.85200005E+02 -0.64353E-05
 0.85250000E+02 -0.93939E-05
 0.85300003E+02 -0.86408E-05
 0.85349998E+02 -0.58076E-05
 0.85400002E+02 -0.32713E-05
 0.85450005E+02 -0.22063E-05
 0.85500000E+02 -0.25751E-05
 0.85550003E+02 -0.39381E-05
 0.85599998E+02 -0.47152E-05
 0.85650002E+02 -0.48634E-05
 0.85700005E+02 -0.38225E-05
 0.85750000E+02 -0.10239E-06
 0.85800003E+02  0.59018E-05
 0.85849998E+02  0.12642E-04
 0.85900002E+02  0.17208E-04
 0.85950005E+02  0.18535E-04
 0.86000000E+02  0.15475E-04
 0.86050003E+02  0.79509E-05
 0.86099998E+02 -0.10331E-05
 0.86150002E+02 -0.87532E-05
 0.86200005E+02 -0.12908E-04
 0.86250000E+02 -0.13582E-04
 0.86300003E+02 -0.11758E-04
 0.86349998E+02 -0.88129E-05
 0.86400002E+02 -0.62331E-05
 0.86450005E+02 -0.40555E-05
 0.86500000E+02 -0.13038E-05
 0.86550003E+02  0.40203E-05
 0.86599998E+02  0.10824E-04
 0.86650002E+02  0.15025E-04
 0.86700005E+02  0.13958E-04
 0.86750000E+02  0.89404E-05
 0.86800003E+02  0.32698E-05
 0.86849998E+02 -0.27689E-05
 0.86900002E+02 -0.84231E-05
 0.86950005E+02 -0.11388E-04
 0.87000000E+02 -0.11345E-04
 0.87050003E+02 -0.95489E-05
 0.87099998E+02 -0.69315E-05
 0.87150002E+02 -0.35198E-05
 0.87200005E+02 -0.61485E-06
 0.87250000E+02  0.18057E-05
 0.87300003E+02  0.46814E-05
 0.87349998E+02  0.75609E-05
 0.87400002E+02  0.93128E-05
 0.87450005E+02  0.88308E-05
 0.87500000E+02  0.67630E-05
 0.87550003E+02  0.40639E-05
 0.87599998E+02  0.20342E-05
 0.87650002E+02 -0.21796E-06
 0.87700005E+02 -0.40673E-05
 0.87750000E+02 -0.74854E-05
 0.87800003E+02 -0.85562E-05
 0.87849998E+02 -0.57488E-05
 0.87900002E+02 -0.27637E-07
 0.87950005E+02  0.48638E-05
 0.88000000E+02  0.71873E-05
 0.88050003E+02  0.72872E-05
 0.88099998E+02  0.55121E-05
 0.88150002E+02  0.27801E-05
 0.88200005E+02 -0.77560E-07
 0.88250000E+02 -0.28511E-05
 0.88300003E+02 -0.51564E-05
 0.88349998E+02 -0.70659E-05
 0.88400002E+02 -0.82146E-05
 0.88450005E+02 -0.82672E-05
 0.88500000E+02 -0.82962E-05
 0.88550003E+02 -0.89657E-05
 0.88599998E+02 -0.80163E-05
 0.88650002E+02 -0.41294E-05
 0.88700005E+02  0.83988E-06
 0.88750000E+02  0.46522E-05
 0.88800003E+02  0.63045E-05
 0.88849998E+02  0.69349E-05
 0.88900002E+02  0.68347E-05
 0.88950005E+02  0.62862E-05
 0.89000000E+02  0.61074E-05
 0.89050003E+02  0.58189E-05
 0.89099998E+02  0.43833E-05
 0.89150002E+02  0.23406E-05
 0.89200005E+02  0.22549E-05
 0.89250000E+02  0.30972E-05
 0.89300003E+02  0.19792E-05
 0.89349998E+02 -0.15369E-05
 0.89400002E+02 -0.56635E-05
 0.89450005E+02 -0.80592E-05
 0.89500000E+02 -0.77435E-05
 0.89550003E+02 -0.33916E-05
 0.89599998E+02  0.35395E-05
 0.89650002E+02  0.90807E-05
 0.89700005E+02  0.10905E-04
 0.89750000E+02  0.80525E-05
 0.89800003E+02  0.12436E-05
 0.89849998E+02 -0.67831E-05
 0.89900002E+02 -0.12094E-04
 0.89950005E+02 -0.12758E-04
 0.90000000E+02 -0.92521E-05
 0.90050003E+02 -0.40288E-05
 0.90099998E+02  0.66941E-06
 0.90150002E+02  0.44095E-05
 0.90200005E+02  0.60804E-05
 0.90250000E+02  0.60082E-05
 0.90300003E+02  0.47387E-05
 0.90349998E+02  0.23753E-05
 0.90400002E+02  0.57636E-06
 0.90450005E+02 -0.68814E-06
 0.90500000E+02 -0.17888E-05
 0.90550003E+02 -0.21020E-05
 0.90599998E+02 -0.21574E-05
 0.90650002E+02 -0.16186E-05
 0.90700005E+02  0.41079E-06
 0.90750000E+02  0.36330E-05
 0.90800003E+02  0.61717E-05
 0.90849998E+02  0.57937E-05
 0.90900002E+02  0.33008E-05
 0.90950005E+02 -0.32931E-07
 0.91000000E+02 -0.25277E-05
 0.91050003E+02 -0.21329E-05
 0.91099998E+02 -0.10041E-05
 0.91150002E+02 -0.11115E-05
 0.91200005E+02 -0.18399E-05
 0.91250000E+02 -0.26375E-05
 0.91300003E+02 -0.36518E-05
 0.91349998E+02 -0.57128E-05
 0.91400002E+02 -0.75385E-05
 0.91450005E+02 -0.67339E-05
 0.91500000E+02 -0.39019E-05
 0.91550003E+02 -0.25262E-06
 0.91599998E+02  0.40901E-05
 0.91650002E+02  0.67365E-05
 0.91700005E+02  0.62712E-05
 0.91750000E+02  0.41532E-05
 0.91800003E+02  0.19196E-05
 0.91849998E+02  0.82943E-06
 0.91900002E+02  0.46749E-06
 0.91950005E+02  0.10470E-06
 0.92000000E+02 -0.30549E-06
 0.92050003E+02 -0.69045E-06
 0.92099998E+02 -0.74302E-06
 0.92150002E+02 -0.88216E-06
 0.92200005E+02 -0.13772E-05
 0.92250000E+02 -0.17540E-05
 0.92300003E+02 -0.11465E-05
 0.92349998E+02  0.89222E-06
 0.92400002E+02  0.25797E-05
 0.92450005E+02  0.14807E-05
 0.92500000E+02 -0.12633E-05
 0.92550003E+02 -0.18585E-05
 0.92599998E+02  0.10905E-06
 0.92650002E+02  0.29907E-05
 0.92700005E+02  0.55059E-05
 0.92750000E+02  0.56895E-05
 0.92800003E+02  0.37828E-05
 0.92849998E+02  0.70117E-06
 0.92900002E+02 -0.20764E-05
 0.92950005E+02 -0.31881E-05
 0.93000000E+02 -0.38897E-05
 0.93050003E+02 -0.47601E-05
 0.93099998E+02 -0.44935E-05
 0.93150002E+02 -0.18248E-05
 0.93200005E+02  0.15123E-05
 0.93250000E+02  0.27663E-05
 0.93300003E+02  0.18276E-05
 0.93349998E+02  0.27621E-06
 0.93400002E+02 -0.62042E-06
 0.93450005E+02 -0.14409E-05
 0.93500000E+02 -0.27724E-05
 0.93550003E+02 -0.32119E-05
 0.93599998E+02 -0.14839E-05
 0.93650002E+02  0.12274E-05
 0.93700005E+02  0.20985E-05
 0.93750000E+02  0.73912E-06
 0.93800003E+02 -0.70342E-06
 0.93849998E+02 -0.91436E-06
 0.93900002E+02 -0.70987E-07
 0.93950005E+02  0.85003E-06
 0.94000000E+02  0.14663E-05
 0.94050003E+02  0.14406E-05
 0.94099998E+02  0.75851E-06
 0.94150002E+02  0.94581E-07
 0.94200005E+02 -0.53940E-07
 0.94250000E+02  0.15993E-06
 0.94300003E+02  0.45653E-06
 0.94349998E+02  0.19024E-05
 0.94400002E+02  0.39602E-05
 0.94450005E+02  0.42893E-05
 0.94500000E+02  0.26080E-05
 0.94550003E+02  0.12574E-06
 0.94599998E+02 -0.21317E-05
 0.94650002E+02 -0.34664E-05
 0.94700005E+02 -0.34833E-05
 0.94750000E+02 -0.20329E-05
 0.94800003E+02 -0.58014E-06
 0.94849998E+02 -0.58856E-06
 0.94900002E+02 -0.71022E-06
 0.94950005E+02 -0.11400E-07
 0.95000000E+02  0.37603E-06
 0.95050003E+02  0.26206E-06
 0.95099998E+02  0.77152E-06
 0.95150002E+02  0.18054E-05
 0.95200005E+02  0.25328E-05
 0.95250000E+02  0.23350E-05
 0.95300003E+02  0.12002E-05
 0.95349998E+02 -0.41432E-06
 0.95400002E+02 -0.29929E-05
 0.95450005E+02 -0.62708E-05
 0.95500000E+02 -0.87431E-05
 0.95550003E+02 -0.83464E-05
 0.95599998E+02 -0.42160E-05
 0.95650002E+02  0.17735E-05
 0.95700005E+02  0.68475E-05
 0.95750000E+02  0.94633E-05
 0.95800003E+02  0.96076E-05
 0.95849998E+02  0.76149E-05
 0.95900002E+02  0.49656E-05
 0.95950005E+02  0.23717E-05
 0.96000000E+02 -0.79144E-06
 0.96050003E+02 -0.41492E-05
 0.96099998E+02 -0.65292E-05
 0.96150002E+02 -0.64994E-05
 0.96200005E+02 -0.45384E-05
 0.96250000E+02 -0.16768E-05
 0.96300003E+02  0.70271E-06
 0.96349998E+02  0.96632E-06
 0.96400002E+02 -0.76419E-06
 0.96450005E+02 -0.39593E-05
 0.96500000E+02 -0.68969E-05
 0.96550003E+02 -0.78397E-05
 0.96599998E+02 -0.60638E-05
 0.96650002E+02 -0.20277E-05
 0.96700005E+02  0.23882E-05
 0.96750000E+02  0.55560E-05
 0.96800003E+02  0.72437E-05
 0.96849998E+02  0.85710E-05
 0.96900002E+02  0.92577E-05
 0.96950005E+02  0.86011E-05
 0.97000000E+02  0.69650E-05
 0.97050003E+02  0.43002E-05
 0.97099998E+02  0.12063E-05
 0.97150002E+02 -0.12075E-05
 0.97200005E+02 -0.23422E-05
 0.97250000E+02 -0.21044E-05
 0.97300003E+02 -0.16897E-05
 0.97349998E+02 -0.24677E-05
 0.97400002E+02 -0.38583E-05
 0.97450005E+02 -0.47613E-05
 0.97500000E+02 -0.47304E-05
 0.97550003E+02 -0.37412E-05
 0.97599998E+02 -0.24410E-05
 0.97650002E+02 -0.66819E-06
 0.97700005E+02  0.15188E-05
 0.97750000E+02  0.24621E-05
 0.97800003E+02  0.15196E-05
 0.97849998E+02 -0.24749E-06
 0.97900002E+02 -0.18845E-05
 0.97950005E+02 -0.27258E-05
 0.98000000E+02 -0.26655E-05
 0.98050003E+02 -0.19878E-05
 0.98099998E+02 -0.53085E-06
 0.98150002E+02  0.12667E-05
 0.98200005E+02  0.31649E-05
 0.98250000E+02  0.50719E-05
 0.98300003E+02  0.60844E-05
 0.98349998E+02  0.55730E-05
 0.98400002E+02  0.36406E-05
 0.98450005E+02  0.17396E-05
 0.98500000E+02  0.33047E-06
 0.98550003E+02 -0.18910E-05
 0.98599998E+02 -0.48453E-05
 0.98650002E+02 -0.70666E-05
 0.98700005E+02 -0.76519E-05
 0.98750000E+02 -0.67392E-05
 0.98800003E+02 -0.47384E-05
 0.98849998E+02 -0.24422E-05
 0.98900002E+02 -0.51155E-06
 0.98950005E+02  0.99974E-06
 0.99000000E+02  0.15453E-05
 0.99050003E+02  0.96137E-06
 0.99099998E+02  0.48058E-06
 0.99150002E+02  0.83430E-06
 0.99200005E+02  0.21914E-05
 0.99250000E+02  0.45661E-05
 0.99300003E+02  0.68968E-05
 0.99349998E+02  0.77139E-05
 0.99400002E+02  0.61098E-05
 0.99450005E+02  0.32202E-05
 0.99500000E+02  0.55166E-06
 0.99550003E+02 -0.15710E-05
 0.99599998E+02 -0.28484E-05
 0.99650002E+02 -0.38072E-05
 0.99700005E+02 -0.46674E-05
 0.99750000E+02 -0.48955E-05
 0.99800003E+02 -0.42518E-05
 0.99849998E+02 -0.30864E-05
 0.99900002E+02 -0.14981E-05
 0.99950005E+02  0.83056E-06
 0.10000000E+03  0.32592E-05
