 0.00000000E+00 -0.50644E-08
 0.50000001E-01 -0.18019E-07
 0.10000000E+00  0.12307E-07
 0.15000001E+00  0.43799E-07
 0.20000000E+00  0.41090E-07
 0.25000000E+00  0.30331E-07
 0.30000001E+00  0.11459E-07
 0.34999999E+00  0.35199E-08
 0.40000001E+00  0.51379E-08
 0.45000002E+00  0.70342E-08
 0.50000000E+00  0.20081E-07
 0.55000001E+00 -0.81266E-08
 0.60000002E+00 -0.21115E-07
 0.65000004E+00 -0.70896E-08
 0.69999999E+00  0.12646E-07
 0.75000000E+00  0.22063E-07
 0.80000001E+00 -0.83145E-08
 0.85000002E+00 -0.64696E-08
 0.90000004E+00  0.69932E-08
 0.94999999E+00  0.26826E-07
 0.10000000E+01  0.36119E-07
 0.10500001E+01  0.18518E-07
 0.11000000E+01  0.95566E-08
 0.11500000E+01 -0.39511E-08
 0.12000000E+01 -0.26282E-07
 0.12500000E+01 -0.48345E-07
 0.13000001E+01 -0.33820E-07
 0.13500000E+01 -0.84392E-08
 0.14000000E+01 -0.12460E-07
 0.14500000E+01 -0.15945E-07
 0.15000000E+01 -0.18488E-07
 0.15500001E+01 -0.11324E-07
 0.16000000E+01  0.15794E-07
 0.16500000E+01  0.15071E-07
 0.17000000E+01  0.15304E-07
 0.17500000E+01  0.29163E-07
 0.18000001E+01  0.61770E-07
 0.18500000E+01  0.93931E-07
 0.19000000E+01  0.75545E-07
 0.19500000E+01  0.72623E-07
 0.20000000E+01  0.52202E-07
 0.20500000E+01  0.10438E-07
 0.21000001E+01 -0.28839E-08
 0.21500001E+01 -0.21685E-07
 0.22000000E+01 -0.60288E-07
 0.22500000E+01 -0.88466E-07
 0.23000000E+01 -0.67649E-07
 0.23500001E+01 -0.39963E-07
 0.24000001E+01 -0.42834E-07
 0.24500000E+01 -0.48227E-07
 0.25000000E+01 -0.39866E-07
 0.25500000E+01 -0.25579E-07
 0.26000001E+01 -0.60984E-08
 0.26500001E+01 -0.74168E-08
 0.27000000E+01 -0.24830E-07
 0.27500000E+01  0.95908E-09
 0.28000000E+01  0.27275E-07
 0.28500001E+01  0.98596E-08
 0.29000001E+01 -0.78225E-08
 0.29500000E+01 -0.41801E-09
 0.30000000E+01  0.40466E-08
 0.30500000E+01 -0.21385E-07
 0.31000001E+01 -0.52187E-07
 0.31500001E+01 -0.36601E-07
 0.32000000E+01 -0.11270E-07
 0.32500000E+01 -0.26219E-07
 0.33000000E+01 -0.32430E-07
 0.33500001E+01 -0.27769E-07
 0.34000001E+01 -0.11742E-07
 0.34500000E+01  0.23000E-07
 0.35000000E+01  0.44705E-07
 0.35500000E+01  0.41050E-07
 0.36000001E+01  0.33819E-07
 0.36500001E+01  0.46488E-07
 0.37000000E+01  0.29901E-07
 0.37500000E+01  0.51018E-08
 0.38000000E+01 -0.31873E-07
 0.38500001E+01 -0.96887E-07
 0.39000001E+01 -0.11459E-06
 0.39500000E+01 -0.10498E-06
 0.40000000E+01 -0.84980E-07
 0.40500002E+01 -0.84396E-07
 0.40999999E+01 -0.97583E-07
 0.41500001E+01 -0.46076E-07
 0.42000003E+01 -0.12387E-09
 0.42500000E+01 -0.94180E-08
 0.43000002E+01 -0.11126E-07
 0.43499999E+01  0.26569E-08
 0.44000001E+01  0.26539E-07
 0.44500003E+01  0.45445E-07
 0.45000000E+01  0.34850E-07
 0.45500002E+01  0.26208E-07
 0.45999999E+01  0.43670E-07
 0.46500001E+01  0.66299E-07
 0.47000003E+01  0.45291E-07
 0.47500000E+01 -0.23323E-08
 0.48000002E+01 -0.85328E-08
 0.48499999E+01  0.15510E-07
 0.49000001E+01  0.23645E-07
 0.49500003E+01 -0.83172E-08
 0.50000000E+01 -0.28784E-07
 0.50500002E+01 -0.14572E-08
 0.50999999E+01  0.28581E-07
 0.51500001E+01  0.22031E-07
 0.52000003E+01  0.31634E-07
 0.52500000E+01  0.69895E-07
 0.53000002E+01  0.68478E-07
 0.53499999E+01  0.65246E-07
 0.54000001E+01  0.64925E-07
 0.54500003E+01  0.44246E-07
 0.55000000E+01  0.12174E-07
 0.55500002E+01  0.23863E-08
 0.55999999E+01  0.40414E-07
 0.56500001E+01  0.48208E-07
 0.57000003E+01  0.37891E-07
 0.57500000E+01  0.35859E-07
 0.58000002E+01  0.39939E-07
 0.58499999E+01  0.66998E-07
 0.59000001E+01  0.52909E-07
 0.59500003E+01  0.31994E-07
 0.60000000E+01  0.44615E-07
 0.60500002E+01  0.51986E-07
 0.60999999E+01  0.53491E-07
 0.61500001E+01  0.46662E-07
 0.62000003E+01  0.48705E-07
 0.62500000E+01  0.59452E-07
 0.63000002E+01  0.65382E-07
 0.63499999E+01  0.73151E-07
 0.64000001E+01  0.79249E-07
 0.64500003E+01  0.52002E-07
 0.65000000E+01  0.13187E-07
 0.65500002E+01  0.12343E-07
 0.65999999E+01 -0.66716E-08
 0.66500001E+01 -0.36765E-07
 0.67000003E+01 -0.52158E-07
 0.67500000E+01 -0.61973E-07
 0.68000002E+01 -0.58203E-07
 0.68499999E+01 -0.80351E-07
 0.69000001E+01 -0.82697E-07
 0.69500003E+01 -0.71202E-07
 0.70000000E+01 -0.64149E-07
 0.70500002E+01 -0.40169E-07
 0.70999999E+01 -0.45400E-07
 0.71500001E+01 -0.59411E-07
 0.72000003E+01 -0.73795E-07
 0.72500000E+01 -0.65967E-07
 0.73000002E+01 -0.56601E-07
 0.73499999E+01 -0.60668E-07
 0.74000001E+01 -0.50138E-07
 0.74500003E+01 -0.56839E-07
 0.75000000E+01 -0.39089E-07
 0.75500002E+01 -0.35053E-07
 0.75999999E+01 -0.50626E-07
 0.76500001E+01 -0.54004E-07
 0.77000003E+01 -0.72810E-07
 0.77500000E+01 -0.66944E-07
 0.78000002E+01 -0.53354E-07
 0.78499999E+01 -0.28592E-07
 0.79000001E+01 -0.62825E-08
 0.79500003E+01  0.17430E-07
 0.80000000E+01  0.59525E-07
 0.80500002E+01  0.65849E-07
 0.81000004E+01  0.75104E-07
 0.81500006E+01  0.71192E-07
 0.81999998E+01  0.60421E-07
 0.82500000E+01  0.52792E-07
 0.83000002E+01  0.24905E-07
 0.83500004E+01  0.23771E-07
 0.84000006E+01  0.90571E-08
 0.84499998E+01 -0.87356E-08
 0.85000000E+01 -0.12771E-07
 0.85500002E+01 -0.24503E-07
 0.86000004E+01 -0.15122E-07
 0.86500006E+01  0.64129E-08
 0.86999998E+01  0.44528E-08
 0.87500000E+01 -0.17821E-07
 0.88000002E+01 -0.24954E-07
 0.88500004E+01 -0.14811E-07
 0.89000006E+01 -0.23480E-08
 0.89499998E+01  0.99656E-08
 0.90000000E+01  0.13884E-07
 0.90500002E+01  0.22910E-07
 0.91000004E+01  0.35757E-07
 0.91500006E+01  0.27140E-07
 0.91999998E+01  0.34371E-07
 0.92500000E+01  0.43558E-07
 0.93000002E+01  0.33555E-07
 0.93500004E+01  0.85526E-08
 0.94000006E+01 -0.41861E-07
 0.94499998E+01 -0.49853E-07
 0.95000000E+01 -0.29362E-07
 0.95500002E+01 -0.38016E-07
 0.96000004E+01 -0.56086E-07
 0.96500006E+01 -0.52364E-07
 0.96999998E+01 -0.44181E-07
 0.97500000E+01 -0.54136E-07
 0.98000002E+01 -0.49179E-07
 0.98500004E+01 -0.38871E-07
 0.99000006E+01 -0.35494E-07
 0.99499998E+01 -0.12996E-07
 0.10000000E+02 -0.16592E-07
 0.10050000E+02 -0.43947E-07
 0.10100000E+02 -0.11556E-07
 0.10150001E+02  0.95103E-08
 0.10200000E+02  0.54121E-08
 0.10250000E+02  0.33497E-07
 0.10300000E+02  0.53585E-07
 0.10350000E+02  0.64707E-07
 0.10400001E+02  0.60921E-07
 0.10450000E+02  0.56777E-07
 0.10500000E+02  0.48923E-07
 0.10550000E+02  0.52669E-07
 0.10600000E+02  0.68321E-07
 0.10650001E+02  0.50623E-07
 0.10700000E+02  0.49825E-07
 0.10750000E+02  0.52940E-07
 0.10800000E+02  0.42102E-07
 0.10850000E+02  0.37173E-07
 0.10900001E+02  0.18630E-07
 0.10950000E+02  0.71473E-08
 0.11000000E+02  0.20695E-08
 0.11050000E+02 -0.64388E-08
 0.11100000E+02 -0.15510E-07
 0.11150001E+02 -0.25803E-07
 0.11200000E+02 -0.55407E-08
 0.11250000E+02  0.78999E-08
 0.11300000E+02 -0.31154E-07
 0.11350000E+02 -0.43528E-07
 0.11400001E+02 -0.12370E-07
 0.11450000E+02 -0.42564E-07
 0.11500000E+02 -0.10517E-07
 0.11550000E+02  0.46479E-07
 0.11600000E+02 -0.66269E-07
 0.11650001E+02  0.55538E-07
 0.11700000E+02 -0.84706E-07
 0.11750000E+02  0.37157E-07
 0.11800000E+02 -0.17030E-07
 0.11850000E+02 -0.89191E-07
 0.11900001E+02  0.17872E-06
 0.11950000E+02 -0.24418E-06
 0.12000000E+02  0.47520E-06
 0.12050000E+02 -0.24676E-06
 0.12100000E+02 -0.32686E-07
 0.12150001E+02 -0.18554E-05
 0.12200000E+02 -0.36661E-05
 0.12250000E+02 -0.66958E-05
 0.12300000E+02 -0.29775E-04
 0.12350000E+02 -0.68690E-04
 0.12400001E+02 -0.35378E-04
 0.12450000E+02  0.11098E-03
 0.12500000E+02  0.13186E-03
 0.12550000E+02  0.39717E-04
 0.12600000E+02  0.52125E-04
 0.12650001E+02 -0.23680E-04
 0.12700000E+02 -0.10654E-03
 0.12750000E+02 -0.45200E-04
 0.12800000E+02 -0.45872E-04
 0.12850000E+02 -0.38282E-04
 0.12900001E+02 -0.57612E-05
 0.12950000E+02 -0.10817E-04
 0.13000000E+02  0.11485E-05
 0.13050000E+02  0.15713E-04
 0.13100000E+02  0.43797E-04
 0.13150001E+02  0.48833E-04
 0.13200000E+02  0.58019E-04
 0.13250000E+02  0.40710E-04
 0.13300000E+02 -0.44489E-04
 0.13350000E+02 -0.64801E-04
 0.13400001E+02 -0.52150E-04
 0.13450000E+02 -0.75119E-04
 0.13500000E+02 -0.36871E-04
 0.13550000E+02  0.66158E-04
 0.13600000E+02  0.95398E-04
 0.13650001E+02  0.49596E-04
 0.13700000E+02  0.96146E-05
 0.13750000E+02 -0.21959E-05
 0.13800000E+02  0.12724E-04
 0.13850000E+02 -0.11501E-05
 0.13900001E+02 -0.32214E-04
 0.13950000E+02 -0.53176E-04
 0.14000000E+02 -0.34564E-04
 0.14050000E+02 -0.20193E-04
 0.14100000E+02 -0.28213E-04
 0.14150001E+02 -0.19041E-05
 0.14200000E+02  0.16871E-04
 0.14250000E+02  0.33161E-04
 0.14300000E+02  0.61222E-04
 0.14350000E+02  0.88191E-04
 0.14400001E+02  0.24125E-04
 0.14450000E+02 -0.35374E-04
 0.14500000E+02 -0.54522E-05
 0.14550000E+02 -0.58023E-04
 0.14600000E+02 -0.81901E-04
 0.14650001E+02  0.66232E-05
 0.14700000E+02  0.38893E-04
 0.14750000E+02  0.10433E-06
 0.14800000E+02 -0.20294E-04
 0.14850000E+02 -0.19926E-04
 0.14900001E+02 -0.35520E-04
 0.14950000E+02 -0.17580E-04
 0.15000000E+02  0.28144E-04
 0.15050000E+02  0.35133E-04
 0.15100000E+02  0.52190E-04
 0.15150001E+02  0.60781E-04
 0.15200000E+02  0.39830E-04
 0.15250000E+02 -0.46608E-05
 0.15300000E+02 -0.81346E-04
 0.15350000E+02 -0.68331E-04
 0.15400001E+02  0.13009E-04
 0.15450000E+02  0.46232E-04
 0.15500000E+02  0.20701E-04
 0.15550000E+02 -0.33168E-04
 0.15600000E+02 -0.36025E-04
 0.15650001E+02  0.26742E-05
 0.15700000E+02 -0.31794E-05
 0.15750000E+02 -0.47188E-04
 0.15800000E+02 -0.28059E-04
 0.15850000E+02  0.26790E-04
 0.15900001E+02  0.44599E-04
 0.15950000E+02  0.51064E-04
 0.16000000E+02  0.36669E-04
 0.16050001E+02  0.19351E-04
 0.16100000E+02 -0.57047E-06
 0.16150000E+02 -0.11875E-04
 0.16200001E+02 -0.34505E-04
 0.16250000E+02 -0.62823E-04
 0.16300001E+02 -0.13466E-04
 0.16350000E+02  0.24746E-04
 0.16400000E+02 -0.11112E-04
 0.16450001E+02 -0.25532E-04
 0.16500000E+02  0.20579E-04
 0.16550001E+02  0.38813E-04
 0.16600000E+02  0.17385E-04
 0.16650000E+02  0.26053E-04
 0.16700001E+02  0.17834E-04
 0.16750000E+02 -0.21260E-04
 0.16800001E+02 -0.24866E-04
 0.16850000E+02 -0.23975E-04
 0.16900000E+02 -0.45565E-04
 0.16950001E+02 -0.28318E-04
 0.17000000E+02  0.31266E-04
 0.17050001E+02  0.51664E-04
 0.17100000E+02  0.28438E-04
 0.17150000E+02  0.32155E-04
 0.17200001E+02  0.19881E-04
 0.17250000E+02 -0.17427E-04
 0.17300001E+02 -0.52352E-04
 0.17350000E+02 -0.80653E-04
 0.17400000E+02 -0.42060E-04
 0.17450001E+02  0.24892E-04
 0.17500000E+02  0.54032E-04
 0.17550001E+02  0.53245E-04
 0.17600000E+02  0.43705E-04
 0.17650000E+02  0.84840E-05
 0.17700001E+02 -0.27259E-04
 0.17750000E+02 -0.21572E-04
 0.17800001E+02  0.44524E-05
 0.17850000E+02  0.15406E-04
 0.17900000E+02  0.14114E-05
 0.17950001E+02 -0.42471E-04
 0.18000000E+02 -0.11413E-03
 0.18050001E+02 -0.79598E-04
 0.18100000E+02  0.28307E-04
 0.18150000E+02  0.79682E-04
 0.18200001E+02  0.12771E-03
 0.18250000E+02  0.10405E-03
 0.18300001E+02  0.23619E-05
 0.18350000E+02 -0.49728E-04
 0.18400000E+02 -0.69758E-04
 0.18450001E+02 -0.69702E-04
 0.18500000E+02 -0.29241E-04
 0.18550001E+02  0.26750E-04
 0.18600000E+02  0.36148E-04
 0.18650000E+02 -0.11752E-04
 0.18700001E+02 -0.26675E-04
 0.18750000E+02 -0.41421E-05
 0.18800001E+02  0.23961E-04
 0.18850000E+02  0.68797E-04
 0.18900000E+02  0.72846E-04
 0.18950001E+02  0.46800E-05
 0.19000000E+02 -0.47429E-04
 0.19050001E+02 -0.42923E-04
 0.19100000E+02 -0.26368E-04
 0.19150000E+02 -0.31956E-04
 0.19200001E+02 -0.65049E-04
 0.19250000E+02 -0.75720E-04
 0.19300001E+02 -0.14814E-04
 0.19350000E+02  0.80509E-04
 0.19400000E+02  0.98225E-04
 0.19450001E+02  0.42961E-04
 0.19500000E+02  0.15117E-04
 0.19550001E+02  0.17140E-04
 0.19600000E+02 -0.42920E-05
 0.19650000E+02 -0.35153E-04
 0.19700001E+02 -0.32456E-04
 0.19750000E+02 -0.22860E-04
 0.19800001E+02  0.10580E-04
 0.19850000E+02  0.24800E-04
 0.19900000E+02 -0.29269E-05
 0.19950001E+02 -0.54423E-05
 0.20000000E+02 -0.15925E-04
 0.20050001E+02 -0.14213E-04
 0.20100000E+02 -0.19882E-04
 0.20150000E+02  0.82418E-05
 0.20200001E+02  0.69678E-04
 0.20250000E+02  0.24550E-04
 0.20300001E+02 -0.17439E-04
 0.20350000E+02 -0.28243E-04
 0.20400000E+02 -0.68728E-04
 0.20450001E+02 -0.65769E-04
 0.20500000E+02 -0.23846E-04
 0.20550001E+02  0.17171E-04
 0.20600000E+02  0.87809E-05
 0.20650000E+02 -0.31031E-04
 0.20700001E+02 -0.26232E-04
 0.20750000E+02  0.41272E-06
 0.20800001E+02  0.57764E-05
 0.20850000E+02 -0.42556E-04
 0.20900000E+02 -0.11879E-07
 0.20950001E+02  0.24918E-03
 0.21000000E+02  0.49782E-03
 0.21050001E+02  0.53352E-03
 0.21100000E+02  0.20505E-03
 0.21150000E+02 -0.35353E-03
 0.21200001E+02 -0.77019E-03
 0.21250000E+02 -0.74149E-03
 0.21300001E+02 -0.37596E-03
 0.21350000E+02  0.13280E-04
 0.21400000E+02  0.45422E-03
 0.21450001E+02  0.70760E-03
 0.21500000E+02  0.44755E-03
 0.21550001E+02 -0.17399E-03
 0.21600000E+02 -0.63209E-03
 0.21650000E+02 -0.48207E-03
 0.21700001E+02  0.58729E-04
 0.21750000E+02  0.43791E-03
 0.21800001E+02  0.43152E-03
 0.21850000E+02  0.20466E-03
 0.21900000E+02 -0.77354E-04
 0.21950001E+02 -0.27621E-03
 0.22000000E+02 -0.31988E-03
 0.22050001E+02 -0.15414E-03
 0.22100000E+02  0.14056E-03
 0.22150000E+02  0.11661E-03
 0.22200001E+02 -0.14294E-03
 0.22250000E+02 -0.17189E-03
 0.22300001E+02 -0.12424E-04
 0.22350000E+02  0.12304E-03
 0.22400000E+02  0.16143E-03
 0.22450001E+02  0.20358E-03
 0.22500000E+02  0.26135E-03
 0.22550001E+02  0.23885E-03
 0.22600000E+02  0.25827E-04
 0.22650000E+02 -0.28043E-03
 0.22700001E+02 -0.31367E-03
 0.22750000E+02 -0.93983E-04
 0.22800001E+02  0.17358E-03
 0.22850000E+02  0.17017E-03
 0.22900000E+02 -0.11819E-03
 0.22950001E+02 -0.22635E-03
 0.23000000E+02 -0.12469E-03
 0.23050001E+02 -0.23699E-04
 0.23100000E+02 -0.19933E-04
 0.23150000E+02  0.80549E-04
 0.23200001E+02  0.27740E-03
 0.23250000E+02  0.18295E-03
 0.23300001E+02 -0.14636E-03
 0.23350000E+02 -0.32215E-03
 0.23400000E+02 -0.26068E-03
 0.23450001E+02 -0.70555E-04
 0.23500000E+02  0.19879E-03
 0.23550001E+02  0.24742E-03
 0.23600000E+02  0.10227E-03
 0.23650000E+02  0.51607E-04
 0.23700001E+02  0.93358E-04
 0.23750000E+02  0.17700E-03
 0.23800001E+02  0.53872E-04
 0.23850000E+02 -0.14614E-03
 0.23900000E+02 -0.15497E-03
 0.23950001E+02 -0.18167E-03
 0.24000000E+02 -0.22979E-03
 0.24050001E+02 -0.99585E-04
 0.24100000E+02  0.77028E-04
 0.24150000E+02  0.93416E-04
 0.24200001E+02  0.80559E-04
 0.24250000E+02  0.10091E-03
 0.24300001E+02  0.12706E-03
 0.24350000E+02  0.18882E-03
 0.24400000E+02  0.15092E-03
 0.24450001E+02 -0.24542E-04
 0.24500000E+02 -0.21358E-03
 0.24550001E+02 -0.24715E-03
 0.24600000E+02 -0.10453E-03
 0.24650000E+02 -0.13937E-04
 0.24700001E+02 -0.19636E-04
 0.24750000E+02 -0.24299E-04
 0.24800001E+02 -0.30327E-04
 0.24850000E+02  0.42813E-04
 0.24900000E+02  0.24818E-03
 0.24950001E+02  0.27926E-03
 0.25000000E+02  0.34738E-04
 0.25050001E+02 -0.88584E-04
 0.25100000E+02 -0.59234E-04
 0.25150000E+02 -0.56799E-04
 0.25200001E+02 -0.65813E-04
 0.25250000E+02 -0.70606E-04
 0.25300001E+02 -0.63924E-04
 0.25350000E+02 -0.20308E-04
 0.25400000E+02  0.41913E-04
 0.25450001E+02 -0.43949E-06
 0.25500000E+02 -0.10828E-03
 0.25550001E+02 -0.16069E-03
 0.25600000E+02 -0.11281E-03
 0.25650000E+02  0.10812E-04
 0.25700001E+02  0.15220E-03
 0.25750000E+02  0.22063E-03
 0.25800001E+02  0.11290E-03
 0.25850000E+02 -0.82697E-05
 0.25900000E+02 -0.35201E-04
 0.25950001E+02 -0.17843E-04
 0.26000000E+02  0.52134E-04
 0.26050001E+02  0.10121E-03
 0.26100000E+02  0.11677E-03
 0.26150000E+02  0.80272E-04
 0.26200001E+02 -0.23907E-04
 0.26250000E+02 -0.76070E-04
 0.26300001E+02 -0.10069E-03
 0.26350000E+02 -0.15890E-03
 0.26400000E+02 -0.17737E-03
 0.26450001E+02 -0.95422E-04
 0.26500000E+02  0.34947E-05
 0.26550001E+02  0.10768E-05
 0.26600000E+02 -0.21816E-04
 0.26650000E+02  0.40212E-04
 0.26700001E+02  0.16009E-03
 0.26750000E+02  0.23828E-03
 0.26800001E+02  0.19103E-03
 0.26850000E+02  0.35268E-04
 0.26900000E+02 -0.12131E-03
 0.26950001E+02 -0.15488E-03
 0.27000000E+02 -0.11171E-03
 0.27050001E+02 -0.10710E-03
 0.27100000E+02 -0.11113E-03
 0.27150000E+02 -0.94164E-04
 0.27200001E+02 -0.53819E-04
 0.27250000E+02  0.35087E-04
 0.27300001E+02  0.12535E-03
 0.27350000E+02  0.15982E-03
 0.27400000E+02  0.16645E-03
 0.27450001E+02  0.15026E-03
 0.27500000E+02  0.33998E-04
 0.27550001E+02 -0.14558E-03
 0.27600000E+02 -0.22077E-03
 0.27650000E+02 -0.15570E-03
 0.27700001E+02 -0.54376E-04
 0.27750000E+02  0.40867E-04
 0.27800001E+02  0.91636E-04
 0.27850000E+02  0.62088E-04
 0.27900000E+02  0.42369E-04
 0.27950001E+02  0.33147E-04
 0.28000000E+02 -0.27092E-04
 0.28050001E+02 -0.56854E-04
 0.28100000E+02 -0.16384E-04
 0.28150000E+02  0.43360E-04
 0.28200001E+02  0.77984E-04
 0.28250000E+02  0.10473E-03
 0.28300001E+02  0.11567E-03
 0.28350000E+02  0.43770E-04
 0.28400000E+02 -0.34415E-04
 0.28450001E+02 -0.58334E-04
 0.28500000E+02 -0.66418E-04
 0.28550001E+02 -0.62050E-04
 0.28600000E+02 -0.58519E-04
 0.28650000E+02 -0.45646E-04
 0.28700001E+02 -0.28783E-04
 0.28750000E+02 -0.65886E-05
 0.28800001E+02  0.43666E-04
 0.28850000E+02  0.63256E-04
 0.28900000E+02  0.40780E-04
 0.28950001E+02 -0.10369E-04
 0.29000000E+02 -0.77768E-04
 0.29050001E+02 -0.67036E-04
 0.29100000E+02  0.33101E-04
 0.29150000E+02  0.10006E-03
 0.29200001E+02  0.41578E-04
 0.29250000E+02 -0.68317E-04
 0.29300001E+02 -0.12561E-03
 0.29350000E+02 -0.10820E-03
 0.29400000E+02 -0.49793E-04
 0.29450001E+02  0.16145E-05
 0.29500000E+02  0.47440E-04
 0.29550001E+02  0.83357E-04
 0.29600000E+02  0.11406E-03
 0.29650000E+02  0.13264E-03
 0.29700001E+02  0.11281E-03
 0.29750000E+02  0.65330E-04
 0.29800001E+02  0.26519E-04
 0.29850000E+02 -0.49816E-04
 0.29900000E+02 -0.17226E-03
 0.29950001E+02 -0.19621E-03
 0.30000000E+02 -0.13228E-03
 0.30050001E+02 -0.39659E-04
 0.30100000E+02  0.70143E-04
 0.30150000E+02  0.93358E-04
 0.30200001E+02  0.36896E-04
 0.30250000E+02  0.22000E-04
 0.30300001E+02  0.42684E-04
 0.30350000E+02  0.39966E-04
 0.30400000E+02  0.48940E-04
 0.30450001E+02  0.37152E-04
 0.30500000E+02  0.37643E-05
 0.30550001E+02  0.23878E-05
 0.30600000E+02  0.10489E-04
 0.30650000E+02  0.18793E-04
 0.30700001E+02 -0.81638E-05
 0.30750000E+02 -0.80083E-04
 0.30800001E+02 -0.13156E-03
 0.30850000E+02 -0.10197E-03
 0.30900000E+02 -0.45232E-04
 0.30950001E+02 -0.66675E-04
 0.31000000E+02 -0.66684E-04
 0.31050001E+02  0.27634E-04
 0.31100000E+02  0.99560E-04
 0.31150000E+02  0.13845E-03
 0.31200001E+02  0.13631E-03
 0.31250000E+02  0.98529E-04
 0.31300001E+02  0.58486E-04
 0.31350000E+02 -0.26062E-04
 0.31400000E+02 -0.65694E-04
 0.31450001E+02 -0.29582E-04
 0.31500000E+02 -0.12972E-04
 0.31550001E+02 -0.19502E-04
 0.31600000E+02 -0.98670E-06
 0.31650000E+02  0.31516E-04
 0.31700001E+02  0.30109E-04
 0.31750000E+02 -0.35877E-05
 0.31800001E+02 -0.61208E-04
 0.31850000E+02 -0.10122E-03
 0.31900000E+02 -0.78747E-04
 0.31950001E+02 -0.16975E-04
 0.32000000E+02  0.17970E-04
 0.32049999E+02  0.46842E-05
 0.32100002E+02  0.12245E-04
 0.32150002E+02  0.48433E-04
 0.32200001E+02  0.45471E-04
 0.32250000E+02  0.12624E-04
 0.32299999E+02 -0.53070E-05
 0.32350002E+02 -0.20444E-04
 0.32400002E+02 -0.18326E-04
 0.32450001E+02  0.66384E-06
 0.32500000E+02  0.98321E-06
 0.32549999E+02  0.71009E-05
 0.32600002E+02  0.14655E-04
 0.32650002E+02  0.10323E-05
 0.32700001E+02 -0.81033E-05
 0.32750000E+02 -0.17043E-04
 0.32799999E+02 -0.28601E-04
 0.32850002E+02 -0.11777E-04
 0.32900002E+02  0.30129E-04
 0.32950001E+02  0.79777E-04
 0.33000000E+02  0.85243E-04
 0.33049999E+02  0.11251E-04
 0.33100002E+02 -0.52546E-04
 0.33150002E+02 -0.33362E-04
 0.33200001E+02  0.19302E-04
 0.33250000E+02  0.38407E-04
 0.33299999E+02  0.13694E-04
 0.33350002E+02 -0.21665E-04
 0.33400002E+02 -0.48989E-04
 0.33450001E+02 -0.76335E-04
 0.33500000E+02 -0.84393E-04
 0.33549999E+02 -0.54998E-04
 0.33600002E+02  0.19237E-04
 0.33650002E+02  0.10185E-03
 0.33700001E+02  0.99107E-04
 0.33750000E+02  0.17429E-04
 0.33799999E+02 -0.36594E-04
 0.33850002E+02 -0.38841E-04
 0.33900002E+02 -0.24274E-04
 0.33950001E+02 -0.10865E-05
 0.34000000E+02  0.10696E-04
 0.34049999E+02  0.33151E-04
 0.34100002E+02  0.60288E-04
 0.34150002E+02  0.49178E-04
 0.34200001E+02  0.33896E-05
 0.34250000E+02 -0.48811E-04
 0.34299999E+02 -0.37561E-04
 0.34350002E+02  0.23616E-05
 0.34400002E+02  0.42440E-05
 0.34450001E+02 -0.17873E-05
 0.34500000E+02 -0.10664E-04
 0.34549999E+02 -0.24091E-04
 0.34600002E+02 -0.37764E-04
 0.34650002E+02 -0.43408E-04
 0.34700001E+02 -0.33242E-04
 0.34750000E+02 -0.30284E-04
 0.34799999E+02 -0.37378E-04
 0.34850002E+02 -0.34118E-04
 0.34900002E+02  0.55899E-05
 0.34950001E+02  0.63270E-04
 0.35000000E+02  0.97119E-04
 0.35049999E+02  0.10695E-03
 0.35100002E+02  0.72605E-04
 0.35150002E+02 -0.27086E-06
 0.35200001E+02 -0.57299E-04
 0.35250000E+02 -0.60388E-04
 0.35299999E+02 -0.26505E-04
 0.35350002E+02  0.40962E-05
 0.35400002E+02  0.23336E-04
 0.35450001E+02  0.17957E-04
 0.35500000E+02  0.11017E-04
 0.35549999E+02  0.17357E-04
 0.35600002E+02  0.77214E-05
 0.35650002E+02 -0.67795E-05
 0.35700001E+02 -0.77515E-05
 0.35750000E+02 -0.69663E-05
 0.35799999E+02 -0.11431E-04
 0.35850002E+02  0.83269E-05
 0.35900002E+02  0.26644E-04
 0.35950001E+02  0.56641E-05
 0.36000000E+02 -0.22249E-04
 0.36049999E+02 -0.42753E-04
 0.36100002E+02 -0.39356E-04
 0.36150002E+02 -0.39972E-04
 0.36200001E+02 -0.62747E-04
 0.36250000E+02 -0.51402E-04
 0.36299999E+02 -0.53460E-05
 0.36350002E+02  0.46487E-04
 0.36400002E+02  0.86351E-04
 0.36450001E+02  0.99636E-04
 0.36500000E+02  0.62581E-04
 0.36549999E+02 -0.26928E-05
 0.36600002E+02 -0.42744E-04
 0.36650002E+02 -0.55038E-04
 0.36700001E+02 -0.30388E-04
 0.36750000E+02 -0.10288E-05
 0.36799999E+02 -0.23123E-05
 0.36850002E+02 -0.14143E-04
 0.36900002E+02 -0.18070E-04
 0.36950001E+02  0.75165E-06
 0.37000000E+02  0.20538E-04
 0.37049999E+02  0.18910E-04
 0.37100002E+02  0.49790E-05
 0.37150002E+02  0.52649E-05
 0.37200001E+02  0.11655E-04
 0.37250000E+02  0.65453E-05
 0.37299999E+02 -0.16993E-05
 0.37350002E+02 -0.12297E-04
 0.37400002E+02  0.19636E-05
 0.37450001E+02  0.27890E-04
 0.37500000E+02  0.29034E-04
 0.37549999E+02  0.64784E-05
 0.37600002E+02 -0.20485E-04
 0.37650002E+02 -0.33269E-04
 0.37700001E+02 -0.31674E-04
 0.37750000E+02 -0.16012E-04
 0.37799999E+02  0.82269E-05
 0.37850002E+02  0.38813E-04
 0.37900002E+02  0.43418E-04
 0.37950001E+02  0.99340E-05
 0.38000000E+02 -0.15816E-04
 0.38049999E+02 -0.11132E-04
 0.38100002E+02  0.10318E-04
 0.38150002E+02  0.14637E-04
 0.38200001E+02  0.15032E-04
 0.38250000E+02  0.25075E-04
 0.38299999E+02 -0.46026E-05
 0.38350002E+02 -0.57574E-04
 0.38400002E+02 -0.85429E-04
 0.38450001E+02 -0.78291E-04
 0.38500000E+02 -0.34798E-04
 0.38549999E+02  0.81892E-05
 0.38600002E+02  0.23431E-04
 0.38650002E+02  0.10897E-04
 0.38700001E+02 -0.71721E-05
 0.38750000E+02  0.28879E-05
 0.38799999E+02  0.33493E-04
 0.38850002E+02  0.56002E-04
 0.38900002E+02  0.49683E-04
 0.38950001E+02  0.38098E-04
 0.39000000E+02  0.33841E-04
 0.39049999E+02  0.16713E-04
 0.39100002E+02  0.15009E-04
 0.39150002E+02  0.18429E-04
 0.39200001E+02 -0.53534E-05
 0.39250000E+02 -0.35250E-04
 0.39299999E+02 -0.48797E-04
 0.39350002E+02 -0.35637E-04
 0.39400002E+02 -0.33872E-04
 0.39450001E+02 -0.43421E-04
 0.39500000E+02 -0.27038E-04
 0.39549999E+02 -0.58677E-06
 0.39600002E+02  0.15119E-04
 0.39650002E+02  0.19735E-04
 0.39700001E+02  0.25988E-04
 0.39750000E+02  0.20087E-04
 0.39799999E+02  0.97215E-05
 0.39850002E+02  0.11152E-04
 0.39900002E+02  0.13921E-04
 0.39950001E+02  0.13467E-04
 0.40000000E+02  0.23829E-05
 0.40049999E+02 -0.29756E-05
 0.40100002E+02  0.36120E-05
 0.40150002E+02  0.10334E-04
 0.40200001E+02  0.71129E-05
 0.40250000E+02 -0.99162E-05
 0.40299999E+02 -0.38159E-04
 0.40350002E+02 -0.49570E-04
 0.40400002E+02 -0.17809E-04
 0.40450001E+02  0.15644E-04
 0.40500000E+02  0.18550E-04
 0.40549999E+02 -0.32591E-05
 0.40600002E+02 -0.16196E-04
 0.40650002E+02 -0.95924E-05
 0.40700001E+02 -0.45992E-05
 0.40750000E+02  0.14825E-04
 0.40799999E+02  0.29624E-04
 0.40850002E+02  0.16422E-04
 0.40900002E+02  0.30738E-05
 0.40950001E+02  0.21885E-06
 0.41000000E+02 -0.63731E-05
 0.41049999E+02 -0.12590E-04
 0.41100002E+02 -0.28550E-05
 0.41150002E+02  0.59681E-05
 0.41200001E+02  0.62355E-05
 0.41250000E+02 -0.29463E-05
 0.41299999E+02 -0.18153E-04
 0.41350002E+02 -0.20394E-04
 0.41400002E+02 -0.13343E-04
 0.41450001E+02  0.67048E-05
 0.41500000E+02  0.28969E-04
 0.41549999E+02  0.49773E-04
 0.41600002E+02  0.60539E-04
 0.41650002E+02  0.33842E-04
 0.41700001E+02  0.74388E-06
 0.41750000E+02 -0.27062E-04
 0.41799999E+02 -0.54248E-04
 0.41850002E+02 -0.52351E-04
 0.41900002E+02 -0.26740E-04
 0.41950001E+02 -0.12973E-05
 0.42000000E+02  0.69277E-05
 0.42049999E+02 -0.37928E-05
 0.42100002E+02 -0.15142E-04
 0.42150002E+02 -0.16749E-04
 0.42200001E+02 -0.41272E-05
 0.42250000E+02  0.14286E-04
 0.42299999E+02  0.20528E-04
 0.42350002E+02  0.15354E-04
 0.42400002E+02  0.85275E-05
 0.42450001E+02  0.23990E-05
 0.42500000E+02  0.29941E-05
 0.42549999E+02  0.17017E-04
 0.42600002E+02  0.23739E-04
 0.42650002E+02  0.12013E-04
 0.42700001E+02  0.72360E-05
 0.42750000E+02  0.14131E-06
 0.42799999E+02 -0.11987E-04
 0.42850002E+02 -0.14286E-04
 0.42900002E+02 -0.19824E-04
 0.42950001E+02 -0.12696E-04
 0.43000000E+02  0.35531E-05
 0.43049999E+02  0.90749E-05
 0.43100002E+02 -0.31189E-06
 0.43150002E+02 -0.20334E-04
 0.43200001E+02 -0.20928E-04
 0.43250000E+02 -0.69499E-05
 0.43299999E+02  0.35938E-05
 0.43350002E+02 -0.37572E-07
 0.43400002E+02 -0.15188E-04
 0.43450001E+02 -0.81244E-05
 0.43500000E+02  0.99243E-05
 0.43549999E+02  0.23159E-04
 0.43600002E+02  0.37562E-04
 0.43650002E+02  0.34529E-04
 0.43700001E+02  0.18055E-04
 0.43750000E+02  0.44803E-05
 0.43799999E+02 -0.37296E-05
 0.43850002E+02 -0.11982E-04
 0.43900002E+02 -0.17640E-04
 0.43950001E+02 -0.94531E-05
 0.44000000E+02 -0.30055E-05
 0.44049999E+02 -0.66358E-05
 0.44100002E+02 -0.17486E-04
 0.44150002E+02 -0.34871E-04
 0.44200001E+02 -0.29384E-04
 0.44250000E+02 -0.51379E-05
 0.44299999E+02  0.11558E-04
 0.44350002E+02  0.23221E-04
 0.44400002E+02  0.21735E-04
 0.44450001E+02  0.15984E-04
 0.44500000E+02  0.14678E-04
 0.44549999E+02  0.14272E-04
 0.44600002E+02  0.10330E-04
 0.44650002E+02 -0.22006E-05
 0.44700001E+02 -0.45894E-05
 0.44750000E+02  0.66520E-06
 0.44799999E+02  0.35623E-05
 0.44850002E+02  0.36744E-05
 0.44900002E+02 -0.11591E-04
 0.44950001E+02 -0.29503E-04
 0.45000000E+02 -0.22442E-04
 0.45049999E+02  0.11820E-05
 0.45100002E+02  0.19059E-04
 0.45150002E+02  0.21848E-04
 0.45200001E+02  0.85486E-05
 0.45250000E+02 -0.91400E-05
 0.45299999E+02 -0.24954E-04
 0.45350002E+02 -0.31633E-04
 0.45400002E+02 -0.20355E-04
 0.45450001E+02 -0.10135E-04
 0.45500000E+02 -0.13463E-04
 0.45549999E+02 -0.20352E-04
 0.45600002E+02 -0.16575E-04
 0.45650002E+02  0.18122E-05
 0.45700001E+02  0.20300E-04
 0.45750000E+02  0.35101E-04
 0.45799999E+02  0.45844E-04
 0.45850002E+02  0.47037E-04
 0.45900002E+02  0.36728E-04
 0.45950001E+02  0.24342E-04
 0.46000000E+02  0.83598E-05
 0.46049999E+02 -0.13812E-04
 0.46100002E+02 -0.18446E-04
 0.46150002E+02 -0.12116E-04
 0.46200001E+02 -0.90632E-05
 0.46250000E+02 -0.91120E-05
 0.46299999E+02 -0.13989E-04
 0.46350002E+02 -0.13471E-04
 0.46400002E+02 -0.13811E-04
 0.46450001E+02 -0.18079E-04
 0.46500000E+02 -0.12011E-04
 0.46549999E+02  0.49385E-05
 0.46600002E+02  0.19363E-04
 0.46650002E+02  0.20323E-04
 0.46700001E+02  0.16059E-04
 0.46750000E+02  0.58065E-05
 0.46799999E+02 -0.72073E-05
 0.46850002E+02 -0.13266E-04
 0.46900002E+02 -0.21560E-04
 0.46950001E+02 -0.22578E-04
 0.47000000E+02 -0.16684E-04
 0.47049999E+02 -0.59056E-05
 0.47100002E+02  0.12169E-04
 0.47150002E+02  0.22261E-04
 0.47200001E+02  0.22435E-04
 0.47250000E+02  0.13087E-04
 0.47299999E+02  0.54364E-05
 0.47350002E+02  0.59195E-05
 0.47400002E+02  0.97230E-05
 0.47450001E+02  0.13011E-04
 0.47500000E+02  0.82542E-05
 0.47549999E+02 -0.75635E-05
 0.47600002E+02 -0.25102E-04
 0.47650002E+02 -0.24002E-04
 0.47700001E+02 -0.17915E-04
 0.47750000E+02 -0.15921E-04
 0.47799999E+02 -0.90356E-05
 0.47850002E+02 -0.92493E-05
 0.47900002E+02 -0.10390E-04
 0.47950001E+02 -0.62962E-05
 0.48000000E+02  0.21269E-06
 0.48049999E+02  0.76492E-05
 0.48100002E+02  0.97665E-05
 0.48150002E+02  0.12679E-04
 0.48200001E+02  0.11669E-04
 0.48250000E+02  0.60512E-05
 0.48299999E+02  0.11032E-04
 0.48350002E+02  0.20364E-04
 0.48400002E+02  0.19889E-04
 0.48450001E+02  0.88101E-05
 0.48500000E+02 -0.52995E-05
 0.48549999E+02 -0.12982E-04
 0.48600002E+02 -0.92245E-05
 0.48650002E+02 -0.60236E-05
 0.48700001E+02 -0.92337E-05
 0.48750000E+02 -0.49383E-05
 0.48799999E+02  0.16754E-05
 0.48850002E+02  0.80010E-05
 0.48900002E+02  0.16552E-04
 0.48950001E+02  0.13879E-04
 0.49000000E+02  0.56742E-05
 0.49049999E+02  0.94096E-06
 0.49100002E+02 -0.65971E-05
 0.49150002E+02 -0.16373E-04
 0.49200001E+02 -0.19865E-04
 0.49250000E+02 -0.13861E-04
 0.49299999E+02 -0.71406E-05
 0.49350002E+02 -0.37241E-05
 0.49400002E+02 -0.21803E-05
 0.49450001E+02 -0.12565E-05
 0.49500000E+02  0.87887E-06
 0.49549999E+02  0.38668E-05
 0.49600002E+02  0.11054E-04
 0.49650002E+02  0.12115E-04
 0.49700001E+02  0.31750E-05
 0.49750000E+02 -0.38634E-05
 0.49799999E+02 -0.51959E-05
 0.49850002E+02  0.62515E-06
 0.49900002E+02  0.75000E-05
 0.49950001E+02  0.83981E-05
 0.50000000E+02  0.43749E-05
 0.50049999E+02  0.59480E-06
 0.50100002E+02 -0.68927E-06
 0.50150002E+02  0.16249E-05
 0.50200001E+02  0.59507E-05
 0.50250000E+02  0.69175E-05
 0.50299999E+02  0.16908E-05
 0.50350002E+02 -0.60765E-05
 0.50400002E+02 -0.62953E-05
 0.50450001E+02 -0.42807E-05
 0.50500000E+02 -0.76033E-05
 0.50549999E+02 -0.10674E-04
 0.50600002E+02 -0.12605E-04
 0.50650002E+02 -0.13487E-04
 0.50700001E+02 -0.79296E-05
 0.50750000E+02 -0.17666E-05
 0.50799999E+02 -0.89684E-06
 0.50850002E+02  0.65226E-05
 0.50900002E+02  0.19620E-04
 0.50950001E+02  0.28849E-04
 0.51000000E+02  0.26112E-04
 0.51049999E+02  0.85087E-05
 0.51100002E+02 -0.73831E-05
 0.51150002E+02 -0.13230E-04
 0.51200001E+02 -0.14297E-04
 0.51250000E+02 -0.16124E-04
 0.51299999E+02 -0.12699E-04
 0.51350002E+02 -0.18501E-05
 0.51400002E+02  0.28647E-05
 0.51450001E+02  0.23056E-05
 0.51500000E+02  0.17586E-05
 0.51549999E+02  0.81616E-05
 0.51600002E+02  0.18701E-04
 0.51650002E+02  0.18681E-04
 0.51700001E+02  0.70973E-05
 0.51750000E+02 -0.11991E-04
 0.51799999E+02 -0.19207E-04
 0.51850002E+02 -0.13386E-04
 0.51900002E+02 -0.10625E-04
 0.51950001E+02 -0.10382E-04
 0.52000000E+02 -0.11889E-04
 0.52049999E+02 -0.30119E-05
 0.52100002E+02  0.14523E-04
 0.52150002E+02  0.20814E-04
 0.52200001E+02  0.13797E-04
 0.52250000E+02  0.38483E-05
 0.52299999E+02 -0.41352E-05
 0.52350002E+02 -0.10011E-04
 0.52400002E+02 -0.12737E-04
 0.52450001E+02 -0.11419E-04
 0.52500000E+02 -0.60859E-05
 0.52549999E+02 -0.21807E-05
 0.52600002E+02 -0.27611E-06
 0.52650002E+02  0.56639E-05
 0.52700001E+02  0.14739E-04
 0.52750000E+02  0.17052E-04
 0.52799999E+02  0.88984E-05
 0.52850002E+02  0.80931E-06
 0.52900002E+02 -0.27499E-05
 0.52950001E+02 -0.67836E-05
 0.53000000E+02 -0.70445E-05
 0.53049999E+02  0.10393E-05
 0.53100002E+02  0.84168E-05
 0.53150002E+02  0.68941E-05
 0.53200001E+02  0.16492E-05
 0.53250000E+02 -0.15781E-06
 0.53299999E+02  0.90488E-06
 0.53350002E+02  0.47455E-05
 0.53400002E+02  0.67782E-05
 0.53450001E+02 -0.34051E-06
 0.53500000E+02 -0.91390E-05
 0.53549999E+02 -0.10644E-04
 0.53600002E+02 -0.37512E-05
 0.53650002E+02  0.54257E-05
 0.53700001E+02  0.45004E-05
 0.53750000E+02 -0.45136E-05
 0.53799999E+02 -0.99900E-05
 0.53850002E+02 -0.94213E-05
 0.53900002E+02 -0.67103E-05
 0.53950001E+02 -0.84934E-05
 0.54000000E+02 -0.12261E-04
 0.54049999E+02 -0.48463E-05
 0.54100002E+02  0.84808E-05
 0.54150002E+02  0.15701E-04
 0.54200001E+02  0.17353E-04
 0.54250000E+02  0.14047E-04
 0.54299999E+02  0.10858E-04
 0.54350002E+02  0.58583E-05
 0.54400002E+02 -0.34940E-05
 0.54450001E+02 -0.60649E-05
 0.54500000E+02 -0.17845E-05
 0.54549999E+02  0.13885E-05
 0.54600002E+02 -0.10036E-05
 0.54650002E+02 -0.96955E-05
 0.54700001E+02 -0.14591E-04
 0.54750000E+02 -0.11087E-04
 0.54799999E+02 -0.82213E-05
 0.54850002E+02 -0.86857E-05
 0.54900002E+02 -0.62017E-05
 0.54950001E+02  0.46293E-06
 0.55000000E+02  0.57916E-05
 0.55049999E+02  0.87047E-05
 0.55100002E+02  0.13490E-04
 0.55150002E+02  0.16843E-04
 0.55200001E+02  0.12887E-04
 0.55250000E+02  0.64057E-05
 0.55299999E+02  0.17357E-05
 0.55350002E+02 -0.17523E-05
 0.55400002E+02 -0.18465E-05
 0.55450001E+02  0.21962E-05
 0.55500000E+02  0.41940E-05
 0.55549999E+02 -0.16401E-05
 0.55600002E+02 -0.93507E-05
 0.55650002E+02 -0.12869E-04
 0.55700001E+02 -0.11430E-04
 0.55750000E+02 -0.83703E-05
 0.55799999E+02 -0.80876E-05
 0.55850002E+02 -0.63330E-05
 0.55900002E+02 -0.20355E-05
 0.55950001E+02  0.27340E-07
 0.56000000E+02  0.31361E-06
 0.56049999E+02  0.20602E-05
 0.56100002E+02  0.24654E-05
 0.56150002E+02  0.30739E-05
 0.56200001E+02  0.49344E-05
 0.56250000E+02  0.64617E-05
 0.56299999E+02  0.10254E-04
 0.56350002E+02  0.87278E-05
 0.56400002E+02  0.26454E-05
 0.56450001E+02 -0.13604E-05
 0.56500000E+02 -0.34807E-05
 0.56549999E+02 -0.24258E-05
 0.56600002E+02 -0.86685E-06
 0.56650002E+02  0.21748E-05
 0.56700001E+02  0.65313E-05
 0.56750000E+02  0.92600E-05
 0.56799999E+02  0.10328E-04
 0.56850002E+02  0.51211E-05
 0.56900002E+02 -0.47241E-05
 0.56950001E+02 -0.10707E-04
 0.57000000E+02 -0.10218E-04
 0.57049999E+02 -0.66361E-05
 0.57100002E+02 -0.42719E-05
 0.57150002E+02 -0.20724E-05
 0.57200001E+02  0.50319E-05
 0.57250000E+02  0.12709E-04
 0.57299999E+02  0.70799E-05
 0.57350002E+02 -0.63003E-05
 0.57400002E+02 -0.13038E-04
 0.57450001E+02 -0.98996E-05
 0.57500000E+02 -0.12519E-05
 0.57549999E+02  0.20406E-05
 0.57600002E+02 -0.11596E-05
 0.57650002E+02 -0.64371E-05
 0.57700001E+02 -0.60520E-05
 0.57750000E+02 -0.64508E-06
 0.57799999E+02  0.24047E-05
 0.57850002E+02  0.46872E-05
 0.57900002E+02  0.48410E-05
 0.57950001E+02  0.67375E-05
 0.58000000E+02  0.90869E-05
 0.58049999E+02  0.50171E-05
 0.58100002E+02 -0.22485E-05
 0.58150002E+02 -0.76153E-05
 0.58200001E+02 -0.63303E-05
 0.58250000E+02 -0.13562E-05
 0.58299999E+02  0.11252E-05
 0.58350002E+02  0.26325E-05
 0.58400002E+02  0.40530E-05
 0.58450001E+02  0.33897E-05
 0.58500000E+02 -0.15137E-06
 0.58549999E+02 -0.73390E-05
 0.58600002E+02 -0.82673E-05
 0.58650002E+02  0.15120E-05
 0.58700001E+02  0.10301E-04
 0.58750000E+02  0.12468E-04
 0.58799999E+02  0.26878E-05
 0.58850002E+02 -0.12155E-04
 0.58900002E+02 -0.16976E-04
 0.58950001E+02 -0.10087E-04
 0.59000000E+02  0.37494E-05
 0.59049999E+02  0.11345E-04
 0.59100002E+02  0.79376E-05
 0.59150002E+02  0.20057E-05
 0.59200001E+02 -0.77528E-06
 0.59250000E+02 -0.26873E-05
 0.59299999E+02 -0.75858E-05
 0.59350002E+02 -0.85997E-05
 0.59400002E+02 -0.43866E-05
 0.59450001E+02 -0.13659E-05
 0.59500000E+02  0.12785E-05
 0.59549999E+02  0.36491E-05
 0.59600002E+02  0.40983E-05
 0.59650002E+02  0.49456E-05
 0.59700001E+02  0.56698E-05
 0.59750000E+02  0.42679E-05
 0.59799999E+02  0.31970E-05
 0.59850002E+02  0.20460E-05
 0.59900002E+02  0.15294E-05
 0.59950001E+02  0.38461E-05
 0.60000000E+02  0.58890E-05
 0.60049999E+02  0.40033E-05
 0.60100002E+02 -0.44962E-06
 0.60150002E+02 -0.35449E-05
 0.60200001E+02 -0.67334E-05
 0.60250000E+02 -0.86764E-05
 0.60299999E+02 -0.52872E-05
 0.60350002E+02 -0.38133E-06
 0.60400002E+02  0.17514E-06
 0.60450001E+02 -0.16958E-05
 0.60500000E+02 -0.13157E-06
 0.60549999E+02  0.36315E-05
 0.60600002E+02  0.61864E-05
 0.60650002E+02  0.81677E-05
 0.60700001E+02  0.92031E-05
 0.60750000E+02  0.69256E-05
 0.60799999E+02  0.20121E-05
 0.60850002E+02 -0.26958E-05
 0.60900002E+02 -0.66931E-05
 0.60950001E+02 -0.82236E-05
 0.61000000E+02 -0.67754E-05
 0.61049999E+02 -0.58980E-05
 0.61100002E+02 -0.56786E-05
 0.61150002E+02 -0.42061E-05
 0.61200001E+02 -0.17945E-05
 0.61250000E+02 -0.24036E-05
 0.61299999E+02 -0.49241E-05
 0.61350002E+02 -0.42003E-05
 0.61400002E+02 -0.27318E-05
 0.61450001E+02  0.43275E-06
 0.61500000E+02  0.60481E-05
 0.61549999E+02  0.79158E-05
 0.61600002E+02  0.60374E-05
 0.61650002E+02  0.47755E-05
 0.61700001E+02  0.21767E-05
 0.61750000E+02 -0.14838E-05
 0.61799999E+02 -0.49899E-06
 0.61850002E+02  0.13172E-05
 0.61900002E+02  0.19373E-05
 0.61950001E+02  0.26571E-05
 0.62000000E+02  0.42488E-06
 0.62049999E+02 -0.25926E-05
 0.62100002E+02 -0.33272E-05
 0.62150002E+02 -0.28414E-06
 0.62200001E+02  0.14450E-05
 0.62250000E+02 -0.82052E-06
 0.62299999E+02 -0.28960E-05
 0.62350002E+02 -0.15987E-05
 0.62400002E+02  0.26994E-05
 0.62450001E+02  0.24857E-05
 0.62500000E+02 -0.22578E-05
 0.62549999E+02 -0.76544E-05
 0.62600002E+02 -0.10816E-04
 0.62650002E+02 -0.88641E-05
 0.62700001E+02 -0.34825E-05
 0.62750000E+02  0.29514E-05
 0.62799999E+02  0.69319E-05
 0.62850002E+02  0.77970E-05
 0.62900002E+02  0.60038E-05
 0.62950001E+02  0.25201E-05
 0.63000000E+02  0.97068E-06
 0.63049999E+02  0.33625E-05
 0.63100002E+02  0.81975E-05
 0.63150002E+02  0.90768E-05
 0.63200001E+02  0.56703E-05
 0.63250000E+02  0.24309E-05
 0.63299999E+02 -0.76209E-06
 0.63350002E+02 -0.19411E-05
 0.63400002E+02 -0.44089E-05
 0.63450001E+02 -0.70611E-05
 0.63500000E+02 -0.20246E-05
 0.63549999E+02  0.31054E-05
 0.63600002E+02  0.23728E-05
 0.63650002E+02  0.15737E-05
 0.63700001E+02 -0.45478E-06
 0.63750000E+02 -0.55037E-05
 0.63799999E+02 -0.70080E-05
 0.63850002E+02 -0.70071E-05
 0.63900002E+02 -0.88512E-05
 0.63950001E+02 -0.62132E-05
 0.64000000E+02 -0.26371E-05
 0.64050003E+02 -0.24709E-05
 0.64099998E+02  0.13742E-05
 0.64150002E+02  0.81713E-05
 0.64200005E+02  0.99068E-05
 0.64250000E+02  0.73927E-05
 0.64300003E+02  0.46449E-05
 0.64349998E+02  0.30465E-05
 0.64400002E+02  0.56692E-05
 0.64450005E+02  0.84545E-05
 0.64500000E+02  0.38445E-05
 0.64550003E+02 -0.50111E-05
 0.64599998E+02 -0.10357E-04
 0.64650002E+02 -0.85931E-05
 0.64700005E+02 -0.46047E-05
 0.64750000E+02 -0.37221E-05
 0.64800003E+02 -0.36150E-05
 0.64849998E+02 -0.12918E-05
 0.64900002E+02  0.12864E-05
 0.64950005E+02  0.88599E-06
 0.65000000E+02 -0.14243E-05
 0.65050003E+02 -0.26692E-05
 0.65099998E+02  0.40470E-07
 0.65150002E+02  0.47723E-05
 0.65200005E+02  0.67089E-05
 0.65250000E+02  0.48673E-05
 0.65300003E+02  0.57112E-06
 0.65349998E+02 -0.34516E-05
 0.65400002E+02 -0.54511E-05
 0.65450005E+02 -0.53938E-05
 0.65500000E+02 -0.25823E-05
 0.65550003E+02  0.21315E-05
 0.65599998E+02  0.52278E-05
 0.65650002E+02  0.36745E-05
 0.65700005E+02 -0.18737E-05
 0.65750000E+02 -0.58994E-05
 0.65800003E+02 -0.60933E-05
 0.65849998E+02 -0.29306E-05
 0.65900002E+02  0.25503E-05
 0.65950005E+02  0.66257E-05
 0.66000000E+02  0.65058E-05
 0.66050003E+02  0.20030E-05
 0.66099998E+02  0.99088E-06
 0.66150002E+02  0.57636E-05
 0.66200005E+02  0.96189E-05
 0.66250000E+02  0.10861E-04
 0.66300003E+02  0.74343E-05
 0.66349998E+02  0.44235E-06
 0.66400002E+02 -0.55075E-05
 0.66450005E+02 -0.94578E-05
 0.66500000E+02 -0.11103E-04
 0.66550003E+02 -0.90836E-05
 0.66599998E+02 -0.49282E-05
 0.66650002E+02 -0.18166E-05
 0.66700005E+02  0.64970E-06
 0.66750000E+02  0.32390E-05
 0.66800003E+02  0.49452E-05
 0.66849998E+02  0.34710E-05
 0.66900002E+02  0.50756E-06
 0.66950005E+02 -0.33890E-06
 0.67000000E+02 -0.26230E-05
 0.67050003E+02 -0.66134E-05
 0.67099998E+02 -0.80722E-05
 0.67150002E+02 -0.62298E-05
 0.67200005E+02 -0.68790E-06
 0.67250000E+02  0.31810E-05
 0.67300003E+02  0.59380E-06
 0.67349998E+02 -0.29989E-05
 0.67400002E+02 -0.44580E-05
 0.67450005E+02 -0.49581E-05
 0.67500000E+02 -0.23181E-05
 0.67550003E+02  0.47454E-05
 0.67599998E+02  0.12325E-04
 0.67650002E+02  0.14324E-04
 0.67700005E+02  0.10496E-04
 0.67750000E+02  0.35218E-05
 0.67800003E+02 -0.32906E-05
 0.67849998E+02 -0.49080E-05
 0.67900002E+02 -0.40893E-05
 0.67950005E+02 -0.41527E-05
 0.68000000E+02 -0.44697E-05
 0.68050003E+02 -0.42545E-05
 0.68099998E+02 -0.28514E-05
 0.68150002E+02 -0.16274E-05
 0.68200005E+02 -0.39319E-06
 0.68250000E+02  0.23321E-06
 0.68300003E+02  0.13266E-05
 0.68349998E+02  0.34701E-05
 0.68400002E+02  0.33360E-05
 0.68450005E+02  0.16872E-05
 0.68500000E+02  0.20433E-05
 0.68550003E+02  0.45809E-05
 0.68599998E+02  0.64898E-05
 0.68650002E+02  0.62268E-05
 0.68700005E+02  0.50459E-05
 0.68750000E+02  0.48719E-05
 0.68800003E+02  0.41948E-05
 0.68849998E+02  0.21029E-05
 0.68900002E+02 -0.68183E-06
 0.68950005E+02 -0.39482E-05
 0.69000000E+02 -0.56566E-05
 0.69050003E+02 -0.66050E-05
 0.69099998E+02 -0.78385E-05
 0.69150002E+02 -0.83076E-05
 0.69200005E+02 -0.72839E-05
 0.69250000E+02 -0.51658E-05
 0.69300003E+02 -0.34853E-05
 0.69349998E+02 -0.11126E-05
 0.69400002E+02  0.10182E-05
 0.69450005E+02  0.13215E-05
 0.69500000E+02  0.12315E-05
 0.69550003E+02  0.25552E-06
 0.69599998E+02  0.91830E-07
 0.69650002E+02  0.15388E-05
 0.69700005E+02  0.21060E-05
 0.69750000E+02  0.15258E-05
 0.69800003E+02 -0.13696E-06
 0.69849998E+02 -0.10219E-06
 0.69900002E+02  0.23397E-05
 0.69950005E+02  0.36610E-05
 0.70000000E+02  0.25953E-05
 0.70050003E+02  0.10857E-05
 0.70099998E+02  0.38542E-05
 0.70150002E+02  0.69440E-05
 0.70200005E+02  0.53054E-05
 0.70250000E+02  0.31838E-05
 0.70300003E+02  0.14939E-05
 0.70349998E+02 -0.32885E-07
 0.70400002E+02 -0.16969E-05
 0.70450005E+02 -0.44748E-05
 0.70500000E+02 -0.66654E-05
 0.70550003E+02 -0.65776E-05
 0.70599998E+02 -0.41278E-05
 0.70650002E+02 -0.22603E-05
 0.70700005E+02 -0.24082E-05
 0.70750000E+02 -0.30937E-05
 0.70800003E+02 -0.21521E-05
 0.70849998E+02  0.10219E-05
 0.70900002E+02  0.29287E-05
 0.70950005E+02  0.19438E-05
 0.71000000E+02  0.92180E-06
 0.71050003E+02  0.13857E-05
 0.71099998E+02  0.14722E-05
 0.71150002E+02  0.53942E-06
 0.71200005E+02 -0.19557E-06
 0.71250000E+02 -0.27780E-06
 0.71300003E+02  0.34208E-06
 0.71349998E+02 -0.67497E-07
 0.71400002E+02 -0.21526E-05
 0.71450005E+02 -0.42931E-05
 0.71500000E+02 -0.47269E-05
 0.71550003E+02 -0.14236E-05
 0.71599998E+02  0.32980E-05
 0.71650002E+02  0.57705E-05
 0.71700005E+02  0.52456E-05
 0.71750000E+02  0.14389E-05
 0.71800003E+02 -0.28716E-05
 0.71849998E+02 -0.40372E-05
 0.71900002E+02 -0.19781E-05
 0.71950005E+02  0.59279E-06
 0.72000000E+02  0.10292E-05
 0.72050003E+02  0.12731E-06
 0.72099998E+02 -0.71656E-06
 0.72150002E+02 -0.13544E-05
 0.72200005E+02 -0.12370E-05
 0.72250000E+02 -0.45494E-06
 0.72300003E+02  0.30025E-06
 0.72349998E+02  0.16091E-05
 0.72400002E+02  0.43127E-05
 0.72450005E+02  0.54285E-05
 0.72500000E+02  0.38490E-05
 0.72550003E+02  0.32063E-05
 0.72599998E+02  0.38292E-05
 0.72650002E+02  0.35651E-05
 0.72700005E+02  0.13605E-05
 0.72750000E+02  0.15077E-06
 0.72800003E+02  0.21921E-05
 0.72849998E+02  0.39292E-05
 0.72900002E+02  0.27868E-05
 0.72950005E+02 -0.35699E-06
 0.73000000E+02 -0.24873E-05
 0.73050003E+02 -0.31879E-05
 0.73099998E+02 -0.40533E-05
 0.73150002E+02 -0.54403E-05
 0.73200005E+02 -0.83839E-05
 0.73250000E+02 -0.10657E-04
 0.73300003E+02 -0.92767E-05
 0.73349998E+02 -0.55717E-05
 0.73400002E+02 -0.17223E-05
 0.73450005E+02  0.15215E-05
 0.73500000E+02  0.43328E-05
 0.73550003E+02  0.56974E-05
 0.73599998E+02  0.54386E-05
 0.73650002E+02  0.46441E-05
 0.73700005E+02  0.25015E-05
 0.73750000E+02 -0.42531E-06
 0.73800003E+02 -0.22190E-05
 0.73849998E+02 -0.12997E-05
 0.73900002E+02  0.14602E-05
 0.73950005E+02  0.41218E-05
 0.74000000E+02  0.55419E-05
 0.74050003E+02  0.31285E-05
 0.74099998E+02 -0.13208E-05
 0.74150002E+02 -0.40364E-05
 0.74200005E+02 -0.43262E-05
 0.74250000E+02 -0.29271E-05
 0.74300003E+02 -0.13640E-05
 0.74349998E+02 -0.18682E-06
 0.74400002E+02 -0.52318E-06
 0.74450005E+02 -0.17944E-05
 0.74500000E+02 -0.48951E-06
 0.74550003E+02  0.34522E-05
 0.74599998E+02  0.68471E-05
 0.74650002E+02  0.79347E-05
 0.74700005E+02  0.67336E-05
 0.74750000E+02  0.30447E-05
 0.74800003E+02 -0.20729E-05
 0.74849998E+02 -0.57623E-05
 0.74900002E+02 -0.72635E-05
 0.74950005E+02 -0.58295E-05
 0.75000000E+02 -0.30787E-05
 0.75050003E+02 -0.36409E-05
 0.75099998E+02 -0.57451E-05
 0.75150002E+02 -0.59116E-05
 0.75200005E+02 -0.45512E-05
 0.75250000E+02 -0.11359E-05
 0.75300003E+02  0.41137E-05
 0.75349998E+02  0.72549E-05
 0.75400002E+02  0.63084E-05
 0.75450005E+02  0.49346E-05
 0.75500000E+02  0.36904E-05
 0.75550003E+02  0.11321E-05
 0.75599998E+02  0.16569E-06
 0.75650002E+02  0.38088E-06
 0.75700005E+02 -0.38003E-06
 0.75750000E+02 -0.17615E-05
 0.75800003E+02 -0.31070E-05
 0.75849998E+02 -0.27430E-05
 0.75900002E+02 -0.10862E-05
 0.75950005E+02 -0.42482E-06
 0.76000000E+02 -0.78687E-06
 0.76050003E+02 -0.13792E-05
 0.76099998E+02 -0.15132E-05
 0.76150002E+02 -0.22823E-06
 0.76200005E+02  0.13964E-05
 0.76250000E+02  0.26644E-05
 0.76300003E+02  0.32750E-05
 0.76349998E+02  0.26236E-05
 0.76400002E+02  0.21756E-05
 0.76450005E+02  0.18838E-05
 0.76500000E+02  0.25653E-05
 0.76550003E+02  0.43492E-05
 0.76599998E+02  0.36864E-05
 0.76650002E+02  0.13152E-05
 0.76700005E+02 -0.31085E-06
 0.76750000E+02 -0.16755E-05
 0.76800003E+02 -0.28592E-05
 0.76849998E+02 -0.33474E-05
 0.76900002E+02 -0.31732E-05
 0.76950005E+02 -0.19011E-05
 0.77000000E+02 -0.35081E-06
 0.77050003E+02 -0.82443E-06
 0.77099998E+02 -0.17685E-05
 0.77150002E+02 -0.47333E-06
 0.77200005E+02  0.12115E-05
 0.77250000E+02  0.99849E-06
 0.77300003E+02  0.46094E-06
 0.77349998E+02  0.10222E-05
 0.77400002E+02  0.20800E-05
 0.77450005E+02  0.21797E-05
 0.77500000E+02  0.29313E-06
 0.77550003E+02 -0.23131E-05
 0.77599998E+02 -0.50876E-05
 0.77650002E+02 -0.79887E-05
 0.77700005E+02 -0.84559E-05
 0.77750000E+02 -0.49071E-05
 0.77800003E+02 -0.67218E-06
 0.77849998E+02  0.12032E-05
 0.77900002E+02  0.15897E-05
 0.77950005E+02  0.23224E-05
 0.78000000E+02  0.35259E-05
 0.78050003E+02  0.39512E-05
 0.78099998E+02  0.40039E-05
 0.78150002E+02  0.45242E-05
 0.78200005E+02  0.47373E-05
 0.78250000E+02  0.38870E-05
 0.78300003E+02  0.22495E-05
 0.78349998E+02  0.10312E-06
 0.78400002E+02 -0.79098E-06
 0.78450005E+02 -0.84700E-06
 0.78500000E+02 -0.21876E-05
 0.78550003E+02 -0.34289E-05
 0.78599998E+02 -0.37740E-05
 0.78650002E+02 -0.26011E-05
 0.78700005E+02 -0.99848E-06
 0.78750000E+02 -0.83536E-06
 0.78800003E+02 -0.84448E-06
 0.78849998E+02 -0.32195E-06
 0.78900002E+02  0.90451E-06
 0.78950005E+02  0.21680E-05
 0.79000000E+02  0.24631E-05
 0.79050003E+02  0.21561E-05
 0.79099998E+02  0.24690E-05
 0.79150002E+02  0.36409E-05
 0.79200005E+02  0.31463E-05
 0.79250000E+02  0.81991E-06
 0.79300003E+02 -0.14013E-05
 0.79349998E+02 -0.29434E-05
 0.79400002E+02 -0.21577E-05
 0.79450005E+02  0.55661E-06
 0.79500000E+02  0.18557E-05
 0.79550003E+02 -0.59752E-06
 0.79599998E+02 -0.43188E-05
 0.79650002E+02 -0.53707E-05
 0.79700005E+02 -0.40571E-05
 0.79750000E+02 -0.16130E-05
 0.79800003E+02 -0.49173E-06
 0.79849998E+02 -0.10375E-05
 0.79900002E+02 -0.10264E-05
 0.79950005E+02 -0.99406E-06
 0.80000000E+02 -0.74566E-06
 0.80050003E+02  0.61235E-07
 0.80099998E+02  0.11097E-05
 0.80150002E+02  0.17130E-05
 0.80200005E+02  0.91346E-06
 0.80250000E+02 -0.99241E-07
 0.80300003E+02 -0.58344E-06
 0.80349998E+02  0.28343E-06
 0.80400002E+02  0.28778E-05
 0.80450005E+02  0.50457E-05
 0.80500000E+02  0.62004E-05
 0.80550003E+02  0.63682E-05
 0.80599998E+02  0.45238E-05
 0.80650002E+02  0.21330E-05
 0.80700005E+02  0.75189E-06
 0.80750000E+02 -0.74671E-06
 0.80800003E+02 -0.28499E-05
 0.80849998E+02 -0.48982E-05
 0.80900002E+02 -0.66855E-05
 0.80950005E+02 -0.77181E-05
 0.81000000E+02 -0.71395E-05
 0.81050003E+02 -0.49583E-05
 0.81099998E+02 -0.23708E-05
 0.81150002E+02 -0.59436E-06
 0.81200005E+02  0.86417E-06
 0.81250000E+02  0.26223E-05
 0.81300003E+02  0.41435E-05
 0.81349998E+02  0.61303E-05
 0.81400002E+02  0.85035E-05
 0.81450005E+02  0.92532E-05
 0.81500000E+02  0.77828E-05
 0.81550003E+02  0.45847E-05
 0.81599998E+02  0.71505E-06
 0.81650002E+02 -0.26366E-05
 0.81700005E+02 -0.46844E-05
 0.81750000E+02 -0.48815E-05
 0.81800003E+02 -0.43983E-05
 0.81849998E+02 -0.44795E-05
 0.81900002E+02 -0.52857E-05
 0.81950005E+02 -0.61267E-05
 0.82000000E+02 -0.56866E-05
 0.82050003E+02 -0.42976E-05
 0.82099998E+02 -0.21165E-05
 0.82150002E+02  0.17061E-05
 0.82200005E+02  0.57045E-05
 0.82250000E+02  0.70132E-05
 0.82300003E+02  0.58577E-05
 0.82349998E+02  0.35043E-05
 0.82400002E+02 -0.15988E-06
 0.82450005E+02 -0.31191E-05
 0.82500000E+02 -0.43624E-05
 0.82550003E+02 -0.47277E-05
 0.82599998E+02 -0.38162E-05
 0.82650002E+02 -0.23571E-05
 0.82700005E+02 -0.11521E-05
 0.82750000E+02  0.97853E-06
 0.82800003E+02  0.40043E-05
 0.82849998E+02  0.57498E-05
 0.82900002E+02  0.53988E-05
 0.82950005E+02  0.37185E-05
 0.83000000E+02  0.28411E-05
 0.83050003E+02  0.38647E-05
 0.83099998E+02  0.44939E-05
 0.83150002E+02  0.26907E-05
 0.83200005E+02 -0.69664E-06
 0.83250000E+02 -0.20895E-05
 0.83300003E+02 -0.22323E-05
 0.83349998E+02 -0.38993E-05
 0.83400002E+02 -0.48237E-05
 0.83450005E+02 -0.51482E-05
 0.83500000E+02 -0.54749E-05
 0.83550003E+02 -0.42046E-05
 0.83599998E+02 -0.79260E-06
 0.83650002E+02  0.36489E-05
 0.83700005E+02  0.51720E-05
 0.83750000E+02  0.27286E-05
 0.83800003E+02 -0.11326E-05
 0.83849998E+02 -0.29544E-05
 0.83900002E+02 -0.19556E-05
 0.83950005E+02 -0.63955E-06
 0.84000000E+02  0.90459E-06
 0.84050003E+02  0.22536E-05
 0.84099998E+02  0.20242E-05
 0.84150002E+02  0.54300E-06
 0.84200005E+02 -0.80850E-06
 0.84250000E+02 -0.10014E-05
 0.84300003E+02 -0.60441E-06
 0.84349998E+02  0.46440E-06
 0.84400002E+02  0.20511E-05
 0.84450005E+02  0.31046E-05
 0.84500000E+02  0.33194E-05
 0.84550003E+02  0.27758E-05
 0.84599998E+02  0.18711E-05
 0.84650002E+02  0.55059E-06
 0.84700005E+02 -0.41585E-06
 0.84750000E+02 -0.48261E-06
 0.84800003E+02 -0.12809E-05
 0.84849998E+02 -0.25863E-05
 0.84900002E+02 -0.35295E-05
 0.84950005E+02 -0.43854E-05
 0.85000000E+02 -0.38600E-05
 0.85050003E+02 -0.20391E-05
 0.85099998E+02 -0.28353E-06
 0.85150002E+02  0.82385E-07
 0.85200005E+02 -0.92625E-06
 0.85250000E+02 -0.12082E-05
 0.85300003E+02 -0.94208E-06
 0.85349998E+02 -0.75959E-06
 0.85400002E+02 -0.10275E-05
 0.85450005E+02 -0.20820E-05
 0.85500000E+02 -0.29613E-05
 0.85550003E+02 -0.23371E-05
 0.85599998E+02 -0.15120E-06
 0.85650002E+02  0.25142E-05
 0.85700005E+02  0.53496E-05
 0.85750000E+02  0.67596E-05
 0.85800003E+02  0.62799E-05
 0.85849998E+02  0.50873E-05
 0.85900002E+02  0.33480E-05
 0.85950005E+02  0.88418E-06
 0.86000000E+02 -0.10845E-05
 0.86050003E+02 -0.14105E-05
 0.86099998E+02 -0.16636E-05
 0.86150002E+02 -0.18963E-05
 0.86200005E+02 -0.15849E-05
 0.86250000E+02 -0.13891E-05
 0.86300003E+02 -0.92219E-06
 0.86349998E+02  0.46240E-06
 0.86400002E+02  0.18542E-05
 0.86450005E+02  0.22063E-05
 0.86500000E+02  0.15395E-05
 0.86550003E+02  0.55263E-07
 0.86599998E+02 -0.47677E-06
 0.86650002E+02  0.30699E-06
 0.86700005E+02  0.38929E-06
 0.86750000E+02 -0.36376E-06
 0.86800003E+02 -0.77397E-06
 0.86849998E+02 -0.14758E-05
 0.86900002E+02 -0.21274E-05
 0.86950005E+02 -0.19352E-05
 0.87000000E+02 -0.15487E-05
 0.87050003E+02 -0.91322E-06
 0.87099998E+02 -0.55372E-06
 0.87150002E+02  0.11354E-06
 0.87200005E+02  0.14296E-05
 0.87250000E+02  0.21769E-05
 0.87300003E+02  0.11512E-05
 0.87349998E+02 -0.13529E-05
 0.87400002E+02 -0.29497E-05
 0.87450005E+02 -0.25759E-05
 0.87500000E+02 -0.11931E-05
 0.87550003E+02 -0.89824E-06
 0.87599998E+02 -0.17119E-05
 0.87650002E+02 -0.15384E-05
 0.87700005E+02 -0.15665E-07
 0.87750000E+02  0.12686E-05
 0.87800003E+02  0.18467E-05
 0.87849998E+02  0.27950E-05
 0.87900002E+02  0.32531E-05
 0.87950005E+02  0.20688E-05
 0.88000000E+02  0.33839E-06
 0.88050003E+02 -0.18203E-06
 0.88099998E+02  0.14085E-06
 0.88150002E+02 -0.66044E-06
 0.88200005E+02 -0.23628E-05
 0.88250000E+02 -0.37059E-05
 0.88300003E+02 -0.39835E-05
 0.88349998E+02 -0.20551E-05
 0.88400002E+02  0.14494E-05
 0.88450005E+02  0.41786E-05
 0.88500000E+02  0.48160E-05
 0.88550003E+02  0.35655E-05
 0.88599998E+02  0.18656E-05
 0.88650002E+02  0.64109E-06
 0.88700005E+02  0.29178E-06
 0.88750000E+02  0.38695E-06
 0.88800003E+02 -0.14123E-06
 0.88849998E+02 -0.64566E-06
 0.88900002E+02 -0.45613E-06
 0.88950005E+02  0.34250E-06
 0.89000000E+02  0.84436E-06
 0.89050003E+02  0.59876E-06
 0.89099998E+02  0.85146E-06
 0.89150002E+02  0.14019E-05
 0.89200005E+02  0.12465E-05
 0.89250000E+02  0.24583E-06
 0.89300003E+02 -0.14153E-05
 0.89349998E+02 -0.28800E-05
 0.89400002E+02 -0.35956E-05
 0.89450005E+02 -0.33370E-05
 0.89500000E+02 -0.24269E-05
 0.89550003E+02 -0.17792E-05
 0.89599998E+02 -0.15168E-05
 0.89650002E+02 -0.14911E-05
 0.89700005E+02 -0.10160E-05
 0.89750000E+02 -0.86265E-06
 0.89800003E+02 -0.16956E-05
 0.89849998E+02 -0.16206E-05
 0.89900002E+02 -0.82095E-06
 0.89950005E+02  0.43420E-06
 0.90000000E+02  0.23371E-05
 0.90050003E+02  0.34791E-05
 0.90099998E+02  0.34375E-05
 0.90150002E+02  0.29414E-05
 0.90200005E+02  0.26348E-05
 0.90250000E+02  0.12842E-05
 0.90300003E+02 -0.83672E-06
 0.90349998E+02 -0.18145E-05
 0.90400002E+02 -0.16922E-05
 0.90450005E+02 -0.98554E-06
 0.90500000E+02 -0.90097E-06
 0.90550003E+02 -0.17301E-05
 0.90599998E+02 -0.18931E-05
 0.90650002E+02 -0.86371E-06
 0.90700005E+02  0.48117E-06
 0.90750000E+02  0.14802E-05
 0.90800003E+02  0.21771E-05
 0.90849998E+02  0.26739E-05
 0.90900002E+02  0.33997E-05
 0.90950005E+02  0.46947E-05
 0.91000000E+02  0.47864E-05
 0.91050003E+02  0.32335E-05
 0.91099998E+02  0.19114E-05
 0.91150002E+02  0.55870E-06
 0.91200005E+02 -0.13349E-05
 0.91250000E+02 -0.31039E-05
 0.91300003E+02 -0.42964E-05
 0.91349998E+02 -0.48893E-05
 0.91400002E+02 -0.41264E-05
 0.91450005E+02 -0.23206E-05
 0.91500000E+02 -0.12780E-05
 0.91550003E+02 -0.21457E-06
 0.91599998E+02  0.15177E-05
 0.91650002E+02  0.27232E-05
 0.91700005E+02  0.27099E-05
 0.91750000E+02  0.19825E-05
 0.91800003E+02  0.10280E-05
 0.91849998E+02 -0.42218E-06
 0.91900002E+02 -0.15618E-05
 0.91950005E+02 -0.15945E-05
 0.92000000E+02 -0.11337E-05
 0.92050003E+02 -0.38913E-06
 0.92099998E+02  0.42826E-06
 0.92150002E+02  0.78366E-07
 0.92200005E+02 -0.91419E-06
 0.92250000E+02 -0.10269E-05
 0.92300003E+02 -0.32452E-06
 0.92349998E+02  0.30937E-06
 0.92400002E+02  0.29632E-06
 0.92450005E+02 -0.61317E-07
 0.92500000E+02 -0.22061E-06
 0.92550003E+02 -0.25165E-06
 0.92599998E+02 -0.87430E-06
 0.92650002E+02 -0.19227E-05
 0.92700005E+02 -0.21898E-05
 0.92750000E+02 -0.16163E-05
 0.92800003E+02 -0.14514E-05
 0.92849998E+02 -0.12952E-05
 0.92900002E+02 -0.83748E-08
 0.92950005E+02  0.14682E-05
 0.93000000E+02  0.20907E-05
 0.93050003E+02  0.22520E-05
 0.93099998E+02  0.23363E-05
 0.93150002E+02  0.18067E-05
 0.93200005E+02  0.11245E-05
 0.93250000E+02  0.11983E-05
 0.93300003E+02  0.15518E-05
 0.93349998E+02  0.18337E-05
 0.93400002E+02  0.19511E-05
 0.93450005E+02  0.16558E-05
 0.93500000E+02  0.13044E-05
 0.93550003E+02  0.11634E-05
 0.93599998E+02  0.23481E-06
 0.93650002E+02 -0.18709E-05
 0.93700005E+02 -0.35351E-05
 0.93750000E+02 -0.43773E-05
 0.93800003E+02 -0.50959E-05
 0.93849998E+02 -0.52034E-05
 0.93900002E+02 -0.41010E-05
 0.93950005E+02 -0.20882E-05
 0.94000000E+02 -0.23667E-06
 0.94050003E+02  0.11481E-05
 0.94099998E+02  0.21808E-05
 0.94150002E+02  0.26819E-05
 0.94200005E+02  0.27367E-05
 0.94250000E+02  0.31117E-05
 0.94300003E+02  0.36340E-05
 0.94349998E+02  0.31875E-05
 0.94400002E+02  0.25574E-05
 0.94450005E+02  0.20658E-05
 0.94500000E+02  0.11471E-05
 0.94550003E+02  0.33615E-06
 0.94599998E+02 -0.27454E-06
 0.94650002E+02 -0.68421E-06
 0.94700005E+02 -0.44828E-06
 0.94750000E+02 -0.45071E-06
 0.94800003E+02 -0.13848E-05
 0.94849998E+02 -0.21533E-05
 0.94900002E+02 -0.22574E-05
 0.94950005E+02 -0.19346E-05
 0.95000000E+02 -0.13583E-05
 0.95050003E+02 -0.66628E-06
 0.95099998E+02  0.29861E-06
 0.95150002E+02  0.11398E-05
 0.95200005E+02  0.96124E-06
 0.95250000E+02 -0.71159E-07
 0.95300003E+02 -0.67926E-06
 0.95349998E+02 -0.70704E-06
 0.95400002E+02 -0.11648E-05
 0.95450005E+02 -0.18435E-05
 0.95500000E+02 -0.14292E-05
 0.95550003E+02  0.48801E-06
 0.95599998E+02  0.22420E-05
 0.95650002E+02  0.24799E-05
 0.95700005E+02  0.18853E-05
 0.95750000E+02  0.12791E-05
 0.95800003E+02  0.51518E-06
 0.95849998E+02 -0.92389E-06
 0.95900002E+02 -0.18632E-05
 0.95950005E+02 -0.16193E-05
 0.96000000E+02 -0.71708E-06
 0.96050003E+02  0.64984E-06
 0.96099998E+02  0.91302E-06
 0.96150002E+02 -0.80759E-07
 0.96200005E+02 -0.75041E-06
 0.96250000E+02 -0.55958E-06
 0.96300003E+02  0.22595E-06
 0.96349998E+02  0.77103E-06
 0.96400002E+02  0.75229E-06
 0.96450005E+02  0.67857E-06
 0.96500000E+02  0.47379E-06
 0.96550003E+02 -0.53977E-06
 0.96599998E+02 -0.19890E-05
 0.96650002E+02 -0.29526E-05
 0.96700005E+02 -0.30534E-05
 0.96750000E+02 -0.19523E-05
 0.96800003E+02  0.14519E-06
 0.96849998E+02  0.21446E-05
 0.96900002E+02  0.32760E-05
 0.96950005E+02  0.35935E-05
 0.97000000E+02  0.30615E-05
 0.97050003E+02  0.22494E-05
 0.97099998E+02  0.18403E-05
 0.97150002E+02  0.72283E-06
 0.97200005E+02 -0.11948E-05
 0.97250000E+02 -0.24114E-05
 0.97300003E+02 -0.27134E-05
 0.97349998E+02 -0.23996E-05
 0.97400002E+02 -0.17234E-05
 0.97450005E+02 -0.10015E-05
 0.97500000E+02 -0.30266E-06
 0.97550003E+02  0.31988E-06
 0.97599998E+02  0.10923E-05
 0.97650002E+02  0.19303E-05
 0.97700005E+02  0.22883E-05
 0.97750000E+02  0.21318E-05
 0.97800003E+02  0.19353E-05
 0.97849998E+02  0.18181E-05
 0.97900002E+02  0.12119E-05
 0.97950005E+02  0.97792E-07
 0.98000000E+02 -0.12113E-05
 0.98050003E+02 -0.26087E-05
 0.98099998E+02 -0.31091E-05
 0.98150002E+02 -0.24664E-05
 0.98200005E+02 -0.19396E-05
 0.98250000E+02 -0.23156E-05
 0.98300003E+02 -0.30738E-05
 0.98349998E+02 -0.31926E-05
 0.98400002E+02 -0.21491E-05
 0.98450005E+02 -0.33656E-06
 0.98500000E+02  0.12038E-05
 0.98550003E+02  0.24784E-05
 0.98599998E+02  0.37130E-05
 0.98650002E+02  0.44259E-05
 0.98700005E+02  0.46969E-05
 0.98750000E+02  0.43224E-05
 0.98800003E+02  0.28724E-05
 0.98849998E+02  0.50424E-06
 0.98900002E+02 -0.20134E-05
 0.98950005E+02 -0.34320E-05
 0.99000000E+02 -0.34930E-05
 0.99050003E+02 -0.27192E-05
 0.99099998E+02 -0.14712E-05
 0.99150002E+02 -0.60816E-06
 0.99200005E+02 -0.65356E-06
 0.99250000E+02 -0.10713E-05
 0.99300003E+02 -0.14903E-05
 0.99349998E+02 -0.19571E-05
 0.99400002E+02 -0.19293E-05
 0.99450005E+02 -0.79432E-06
 0.99500000E+02  0.10027E-05
 0.99550003E+02  0.22078E-05
 0.99599998E+02  0.20085E-05
 0.99650002E+02  0.10134E-05
 0.99700005E+02  0.79339E-06
 0.99750000E+02  0.20252E-05
 0.99800003E+02  0.34426E-05
 0.99849998E+02  0.41445E-05
 0.99900002E+02  0.39276E-05
 0.99950005E+02  0.27677E-05
 0.10000000E+03  0.15014E-05
