 0.00000000E+00  0.16340E-07
 0.50000001E-01  0.20923E-07
 0.10000000E+00  0.12574E-07
 0.15000001E+00  0.92119E-08
 0.20000000E+00  0.77165E-08
 0.25000000E+00  0.15341E-08
 0.30000001E+00  0.80536E-08
 0.34999999E+00  0.10387E-07
 0.40000001E+00  0.48446E-08
 0.45000002E+00  0.16112E-07
 0.50000000E+00  0.38256E-07
 0.55000001E+00  0.54188E-07
 0.60000002E+00  0.64457E-07
 0.65000004E+00  0.66065E-07
 0.69999999E+00  0.64791E-07
 0.75000000E+00  0.68576E-07
 0.80000001E+00  0.61292E-07
 0.85000002E+00  0.37486E-07
 0.90000004E+00  0.20007E-07
 0.94999999E+00  0.16196E-07
 0.10000000E+01  0.94490E-08
 0.10500001E+01  0.45627E-08
 0.11000000E+01 -0.51423E-08
 0.11500000E+01 -0.14756E-07
 0.12000000E+01 -0.17935E-07
 0.12500000E+01 -0.33945E-07
 0.13000001E+01 -0.46690E-07
 0.13500000E+01 -0.46710E-07
 0.14000000E+01 -0.38967E-07
 0.14500000E+01 -0.37276E-07
 0.15000000E+01 -0.42403E-07
 0.15500001E+01 -0.47489E-07
 0.16000000E+01 -0.52941E-07
 0.16500000E+01 -0.35972E-07
 0.17000000E+01 -0.91898E-08
 0.17500000E+01  0.11728E-07
 0.18000001E+01  0.32807E-07
 0.18500000E+01  0.58502E-07
 0.19000000E+01  0.93499E-07
 0.19500000E+01  0.12004E-06
 0.20000000E+01  0.13523E-06
 0.20500000E+01  0.14251E-06
 0.21000001E+01  0.14374E-06
 0.21500001E+01  0.14239E-06
 0.22000000E+01  0.12948E-06
 0.22500000E+01  0.10780E-06
 0.23000000E+01  0.87835E-07
 0.23500001E+01  0.72979E-07
 0.24000001E+01  0.50784E-07
 0.24500000E+01  0.16857E-07
 0.25000000E+01 -0.13261E-07
 0.25500000E+01 -0.35715E-07
 0.26000001E+01 -0.57054E-07
 0.26500001E+01 -0.79767E-07
 0.27000000E+01 -0.11094E-06
 0.27500000E+01 -0.14244E-06
 0.28000000E+01 -0.16481E-06
 0.28500001E+01 -0.19253E-06
 0.29000001E+01 -0.21647E-06
 0.29500000E+01 -0.22043E-06
 0.30000000E+01 -0.21247E-06
 0.30500000E+01 -0.19690E-06
 0.31000001E+01 -0.17910E-06
 0.31500001E+01 -0.15991E-06
 0.32000000E+01 -0.13975E-06
 0.32500000E+01 -0.10659E-06
 0.33000000E+01 -0.65554E-07
 0.33500001E+01 -0.31766E-07
 0.34000001E+01  0.13871E-07
 0.34500000E+01  0.55036E-07
 0.35000000E+01  0.88625E-07
 0.35500000E+01  0.13167E-06
 0.36000001E+01  0.16731E-06
 0.36500001E+01  0.19454E-06
 0.37000000E+01  0.22080E-06
 0.37500000E+01  0.24091E-06
 0.38000000E+01  0.24427E-06
 0.38500001E+01  0.23320E-06
 0.39000001E+01  0.20117E-06
 0.39500000E+01  0.14745E-06
 0.40000000E+01  0.10916E-06
 0.40500002E+01  0.78230E-07
 0.40999999E+01  0.40103E-07
 0.41500001E+01  0.42216E-08
 0.42000003E+01 -0.43148E-07
 0.42500000E+01 -0.70662E-07
 0.43000002E+01 -0.81031E-07
 0.43499999E+01 -0.10739E-06
 0.44000001E+01 -0.11687E-06
 0.44500003E+01 -0.12997E-06
 0.45000000E+01 -0.16496E-06
 0.45500002E+01 -0.18716E-06
 0.45999999E+01 -0.19577E-06
 0.46500001E+01 -0.20278E-06
 0.47000003E+01 -0.19178E-06
 0.47500000E+01 -0.16432E-06
 0.48000002E+01 -0.14692E-06
 0.48499999E+01 -0.11895E-06
 0.49000001E+01 -0.79047E-07
 0.49500003E+01 -0.39700E-07
 0.50000000E+01  0.63370E-08
 0.50500002E+01  0.50365E-07
 0.50999999E+01  0.83163E-07
 0.51500001E+01  0.10252E-06
 0.52000003E+01  0.11551E-06
 0.52500000E+01  0.11396E-06
 0.53000002E+01  0.10461E-06
 0.53499999E+01  0.10002E-06
 0.54000001E+01  0.78428E-07
 0.54500003E+01  0.64687E-07
 0.55000000E+01  0.66289E-07
 0.55500002E+01  0.51184E-07
 0.55999999E+01  0.36783E-07
 0.56500001E+01  0.21591E-07
 0.57000003E+01  0.75104E-08
 0.57500000E+01  0.70835E-08
 0.58000002E+01  0.43634E-09
 0.58499999E+01 -0.10267E-07
 0.59000001E+01 -0.23111E-07
 0.59500003E+01 -0.36898E-07
 0.60000000E+01 -0.50782E-07
 0.60500002E+01 -0.55607E-07
 0.60999999E+01 -0.46829E-07
 0.61500001E+01 -0.46044E-07
 0.62000003E+01 -0.43642E-07
 0.62500000E+01 -0.37796E-07
 0.63000002E+01 -0.39816E-07
 0.63499999E+01 -0.38914E-07
 0.64000001E+01 -0.26804E-07
 0.64500003E+01 -0.13881E-07
 0.65000000E+01  0.33281E-08
 0.65500002E+01  0.31711E-07
 0.65999999E+01  0.40561E-07
 0.66500001E+01  0.47783E-07
 0.67000003E+01  0.65188E-07
 0.67500000E+01  0.74317E-07
 0.68000002E+01  0.91814E-07
 0.68499999E+01  0.96261E-07
 0.69000001E+01  0.94382E-07
 0.69500003E+01  0.99405E-07
 0.70000000E+01  0.95842E-07
 0.70500002E+01  0.98467E-07
 0.70999999E+01  0.93441E-07
 0.71500001E+01  0.84713E-07
 0.72000003E+01  0.67706E-07
 0.72500000E+01  0.48558E-07
 0.73000002E+01  0.49589E-07
 0.73499999E+01  0.39662E-07
 0.74000001E+01  0.31710E-07
 0.74500003E+01  0.20460E-07
 0.75000000E+01 -0.15619E-07
 0.75500002E+01 -0.45309E-07
 0.75999999E+01 -0.65315E-07
 0.76500001E+01 -0.80704E-07
 0.77000003E+01 -0.83891E-07
 0.77500000E+01 -0.78995E-07
 0.78000002E+01 -0.83720E-07
 0.78499999E+01 -0.88831E-07
 0.79000001E+01 -0.86374E-07
 0.79500003E+01 -0.94071E-07
 0.80000000E+01 -0.10026E-06
 0.80500002E+01 -0.10498E-06
 0.81000004E+01 -0.10858E-06
 0.81500006E+01 -0.10777E-06
 0.81999998E+01 -0.10139E-06
 0.82500000E+01 -0.90562E-07
 0.83000002E+01 -0.81343E-07
 0.83500004E+01 -0.60690E-07
 0.84000006E+01 -0.30760E-07
 0.84499998E+01  0.83197E-08
 0.85000000E+01  0.53731E-07
 0.85500002E+01  0.87345E-07
 0.86000004E+01  0.11049E-06
 0.86500006E+01  0.12807E-06
 0.86999998E+01  0.15087E-06
 0.87500000E+01  0.17159E-06
 0.88000002E+01  0.17510E-06
 0.88500004E+01  0.15627E-06
 0.89000006E+01  0.12744E-06
 0.89499998E+01  0.98516E-07
 0.90000000E+01  0.59039E-07
 0.90500002E+01  0.27777E-07
 0.91000004E+01  0.48952E-08
 0.91500006E+01 -0.23783E-07
 0.91999998E+01 -0.53276E-07
 0.92500000E+01 -0.80720E-07
 0.93000002E+01 -0.11766E-06
 0.93500004E+01 -0.14931E-06
 0.94000006E+01 -0.15161E-06
 0.94499998E+01 -0.14751E-06
 0.95000000E+01 -0.14003E-06
 0.95500002E+01 -0.13640E-06
 0.96000004E+01 -0.14333E-06
 0.96500006E+01 -0.14106E-06
 0.96999998E+01 -0.12827E-06
 0.97500000E+01 -0.11037E-06
 0.98000002E+01 -0.87818E-07
 0.98500004E+01 -0.68702E-07
 0.99000006E+01 -0.56727E-07
 0.99499998E+01 -0.38085E-07
 0.10000000E+02 -0.25471E-07
 0.10050000E+02 -0.19738E-07
 0.10100000E+02  0.23365E-08
 0.10150001E+02  0.27715E-07
 0.10200000E+02  0.53974E-07
 0.10250000E+02  0.79089E-07
 0.10300000E+02  0.90444E-07
 0.10350000E+02  0.10907E-06
 0.10400001E+02  0.12927E-06
 0.10450000E+02  0.14325E-06
 0.10500000E+02  0.15912E-06
 0.10550000E+02  0.16132E-06
 0.10600000E+02  0.16518E-06
 0.10650001E+02  0.16740E-06
 0.10700000E+02  0.14817E-06
 0.10750000E+02  0.12253E-06
 0.10800000E+02  0.10585E-06
 0.10850000E+02  0.10927E-06
 0.10900001E+02  0.11309E-06
 0.10950000E+02  0.10105E-06
 0.11000000E+02  0.89014E-07
 0.11050000E+02  0.71943E-07
 0.11100000E+02  0.57416E-07
 0.11150001E+02  0.38883E-07
 0.11200000E+02  0.42594E-08
 0.11250000E+02 -0.19890E-07
 0.11300000E+02 -0.48391E-07
 0.11350000E+02 -0.84399E-07
 0.11400001E+02 -0.10612E-06
 0.11450000E+02 -0.12533E-06
 0.11500000E+02 -0.13459E-06
 0.11550000E+02 -0.14293E-06
 0.11600000E+02 -0.15280E-06
 0.11650001E+02 -0.15367E-06
 0.11700000E+02 -0.15289E-06
 0.11750000E+02 -0.14471E-06
 0.11800000E+02 -0.14064E-06
 0.11850000E+02 -0.12674E-06
 0.11900001E+02 -0.89228E-07
 0.11950000E+02 -0.68810E-07
 0.12000000E+02 -0.48185E-07
 0.12050000E+02 -0.96709E-08
 0.12100000E+02  0.19210E-07
 0.12150001E+02  0.48799E-07
 0.12200000E+02  0.79667E-07
 0.12250000E+02  0.10087E-06
 0.12300000E+02  0.11617E-06
 0.12350000E+02  0.13267E-06
 0.12400001E+02  0.14480E-06
 0.12450000E+02  0.13214E-06
 0.12500000E+02  0.10820E-06
 0.12550000E+02  0.89359E-07
 0.12600000E+02  0.70897E-07
 0.12650001E+02  0.61768E-07
 0.12700000E+02  0.57956E-07
 0.12750000E+02  0.48053E-07
 0.12800000E+02  0.30836E-07
 0.12850000E+02  0.67095E-08
 0.12900001E+02 -0.51003E-08
 0.12950000E+02 -0.14066E-07
 0.13000000E+02 -0.32096E-07
 0.13050000E+02 -0.41682E-07
 0.13100000E+02 -0.45682E-07
 0.13150001E+02 -0.51783E-07
 0.13200000E+02 -0.64146E-07
 0.13250000E+02 -0.67522E-07
 0.13300000E+02 -0.54856E-07
 0.13350000E+02 -0.23512E-07
 0.13400001E+02  0.10689E-07
 0.13450000E+02  0.15753E-07
 0.13500000E+02  0.19736E-07
 0.13550000E+02  0.32915E-07
 0.13600000E+02  0.44727E-07
 0.13650001E+02  0.45508E-07
 0.13700000E+02  0.33946E-07
 0.13750000E+02  0.36814E-07
 0.13800000E+02  0.33694E-07
 0.13850000E+02  0.16577E-07
 0.13900001E+02 -0.11363E-08
 0.13950000E+02 -0.24415E-07
 0.14000000E+02 -0.49592E-07
 0.14050000E+02 -0.71162E-07
 0.14100000E+02 -0.98294E-07
 0.14150001E+02 -0.12341E-06
 0.14200000E+02 -0.12820E-06
 0.14250000E+02 -0.12878E-06
 0.14300000E+02 -0.13282E-06
 0.14350000E+02 -0.12694E-06
 0.14400001E+02 -0.10397E-06
 0.14450000E+02 -0.81881E-07
 0.14500000E+02 -0.60338E-07
 0.14550000E+02 -0.29865E-07
 0.14600000E+02 -0.45193E-08
 0.14650001E+02  0.31914E-07
 0.14700000E+02  0.54918E-07
 0.14750000E+02  0.63058E-07
 0.14800000E+02  0.83228E-07
 0.14850000E+02  0.98485E-07
 0.14900001E+02  0.10076E-06
 0.14950000E+02  0.83114E-07
 0.15000000E+02  0.73327E-07
 0.15050000E+02  0.72168E-07
 0.15100000E+02  0.72232E-07
 0.15150001E+02  0.68071E-07
 0.15200000E+02  0.45524E-07
 0.15250000E+02  0.30008E-07
 0.15300000E+02  0.24051E-07
 0.15350000E+02  0.90912E-08
 0.15400001E+02 -0.16044E-07
 0.15450000E+02 -0.25873E-07
 0.15500000E+02 -0.35501E-07
 0.15550000E+02 -0.44029E-07
 0.15600000E+02 -0.38555E-07
 0.15650001E+02 -0.43556E-07
 0.15700000E+02 -0.39061E-07
 0.15750000E+02 -0.26036E-07
 0.15800000E+02 -0.17591E-07
 0.15850000E+02 -0.10963E-07
 0.15900001E+02 -0.14274E-08
 0.15950000E+02 -0.80067E-08
 0.16000000E+02 -0.23392E-07
 0.16050001E+02 -0.22974E-07
 0.16100000E+02 -0.29467E-07
 0.16150000E+02 -0.27261E-07
 0.16200001E+02 -0.16651E-07
 0.16250000E+02  0.31003E-08
 0.16300001E+02  0.24525E-07
 0.16350000E+02  0.45303E-07
 0.16400000E+02  0.67798E-07
 0.16450001E+02  0.81983E-07
 0.16500000E+02  0.10511E-06
 0.16550001E+02  0.11110E-06
 0.16600000E+02  0.11762E-06
 0.16650000E+02  0.11196E-06
 0.16700001E+02  0.90124E-07
 0.16750000E+02  0.77487E-07
 0.16800001E+02  0.59755E-07
 0.16850000E+02  0.64798E-07
 0.16900000E+02  0.65429E-07
 0.16950001E+02  0.63179E-07
 0.17000000E+02  0.59463E-07
 0.17050001E+02  0.40294E-07
 0.17100000E+02  0.35370E-07
 0.17150000E+02  0.23167E-07
 0.17200001E+02 -0.25326E-08
 0.17250000E+02 -0.22414E-07
 0.17300001E+02 -0.34366E-07
 0.17350000E+02 -0.47076E-07
 0.17400000E+02 -0.62854E-07
 0.17450001E+02 -0.88540E-07
 0.17500000E+02 -0.11471E-06
 0.17550001E+02 -0.11688E-06
 0.17600000E+02 -0.11288E-06
 0.17650000E+02 -0.11006E-06
 0.17700001E+02 -0.10981E-06
 0.17750000E+02 -0.11705E-06
 0.17800001E+02 -0.11488E-06
 0.17850000E+02 -0.10527E-06
 0.17900000E+02 -0.98451E-07
 0.17950001E+02 -0.91374E-07
 0.18000000E+02 -0.75892E-07
 0.18050001E+02 -0.61267E-07
 0.18100000E+02 -0.37558E-07
 0.18150000E+02 -0.10729E-07
 0.18200001E+02 -0.46611E-09
 0.18250000E+02  0.15961E-07
 0.18300001E+02  0.25414E-07
 0.18350000E+02  0.20629E-07
 0.18400000E+02  0.16103E-07
 0.18450001E+02  0.65025E-08
 0.18500000E+02 -0.16789E-07
 0.18550001E+02 -0.45790E-07
 0.18600000E+02 -0.65115E-07
 0.18650000E+02 -0.80284E-07
 0.18700001E+02 -0.96172E-07
 0.18750000E+02 -0.10924E-06
 0.18800001E+02 -0.10405E-06
 0.18850000E+02 -0.96561E-07
 0.18900000E+02 -0.95610E-07
 0.18950001E+02 -0.91723E-07
 0.19000000E+02 -0.86465E-07
 0.19050001E+02 -0.70142E-07
 0.19100000E+02 -0.60243E-07
 0.19150000E+02 -0.47054E-07
 0.19200001E+02 -0.22005E-07
 0.19250000E+02  0.24326E-08
 0.19300001E+02  0.42929E-07
 0.19350000E+02  0.78462E-07
 0.19400000E+02  0.10095E-06
 0.19450001E+02  0.11707E-06
 0.19500000E+02  0.13602E-06
 0.19550001E+02  0.15646E-06
 0.19600000E+02  0.16381E-06
 0.19650000E+02  0.17017E-06
 0.19700001E+02  0.16538E-06
 0.19750000E+02  0.16004E-06
 0.19800001E+02  0.15156E-06
 0.19850000E+02  0.13574E-06
 0.19900000E+02  0.12891E-06
 0.19950001E+02  0.11837E-06
 0.20000000E+02  0.10731E-06
 0.20050001E+02  0.96396E-07
 0.20100000E+02  0.89460E-07
 0.20150000E+02  0.86831E-07
 0.20200001E+02  0.68362E-07
 0.20250000E+02  0.43220E-07
 0.20300001E+02  0.25424E-07
 0.20350000E+02  0.22176E-07
 0.20400000E+02  0.24115E-07
 0.20450001E+02  0.17418E-07
 0.20500000E+02  0.10922E-07
 0.20550001E+02  0.82807E-08
 0.20600000E+02  0.23187E-08
 0.20650000E+02 -0.36928E-08
 0.20700001E+02 -0.66512E-08
 0.20750000E+02 -0.14819E-07
 0.20800001E+02 -0.17066E-07
 0.20850000E+02 -0.11732E-07
 0.20900000E+02 -0.13773E-07
 0.20950001E+02 -0.18580E-07
 0.21000000E+02 -0.31778E-07
 0.21050001E+02 -0.53302E-07
 0.21100000E+02 -0.63424E-07
 0.21150000E+02 -0.61219E-07
 0.21200001E+02 -0.61491E-07
 0.21250000E+02 -0.70336E-07
 0.21300001E+02 -0.84369E-07
 0.21350000E+02 -0.90394E-07
 0.21400000E+02 -0.86596E-07
 0.21450001E+02 -0.86411E-07
 0.21500000E+02 -0.91559E-07
 0.21550001E+02 -0.90508E-07
 0.21600000E+02 -0.86366E-07
 0.21650000E+02 -0.90982E-07
 0.21700001E+02 -0.97041E-07
 0.21750000E+02 -0.96134E-07
 0.21800001E+02 -0.87429E-07
 0.21850000E+02 -0.73221E-07
 0.21900000E+02 -0.56626E-07
 0.21950001E+02 -0.42834E-07
 0.22000000E+02 -0.23143E-07
 0.22050001E+02 -0.64527E-08
 0.22100000E+02  0.95734E-08
 0.22150000E+02  0.37897E-07
 0.22200001E+02  0.56020E-07
 0.22250000E+02  0.68146E-07
 0.22300001E+02  0.85460E-07
 0.22350000E+02  0.10051E-06
 0.22400000E+02  0.12510E-06
 0.22450001E+02  0.15084E-06
 0.22500000E+02  0.15163E-06
 0.22550001E+02  0.15156E-06
 0.22600000E+02  0.14635E-06
 0.22650000E+02  0.12384E-06
 0.22700001E+02  0.98457E-07
 0.22750000E+02  0.60057E-07
 0.22800001E+02  0.18797E-07
 0.22850000E+02 -0.18583E-07
 0.22900000E+02 -0.43866E-07
 0.22950001E+02 -0.63562E-07
 0.23000000E+02 -0.97308E-07
 0.23050001E+02 -0.12775E-06
 0.23100000E+02 -0.13620E-06
 0.23150000E+02 -0.13269E-06
 0.23200001E+02 -0.14259E-06
 0.23250000E+02 -0.15550E-06
 0.23300001E+02 -0.15549E-06
 0.23350000E+02 -0.15741E-06
 0.23400000E+02 -0.16280E-06
 0.23450001E+02 -0.16059E-06
 0.23500000E+02 -0.14347E-06
 0.23550001E+02 -0.13017E-06
 0.23600000E+02 -0.11038E-06
 0.23650000E+02 -0.98229E-07
 0.23700001E+02 -0.79142E-07
 0.23750000E+02 -0.43131E-07
 0.23800001E+02 -0.29579E-07
 0.23850000E+02 -0.14992E-08
 0.23900000E+02 -0.78248E-09
 0.23950001E+02  0.10001E-06
 0.24000000E+02  0.16283E-06
 0.24050001E+02  0.27410E-06
 0.24100000E+02  0.35406E-06
 0.24150000E+02 -0.17670E-06
 0.24200001E+02 -0.68965E-06
 0.24250000E+02 -0.62919E-06
 0.24300001E+02  0.26934E-06
 0.24350000E+02  0.98689E-06
 0.24400000E+02  0.62587E-06
 0.24450001E+02  0.25618E-06
 0.24500000E+02  0.71303E-06
 0.24550001E+02  0.91012E-06
 0.24600000E+02 -0.98563E-06
 0.24650000E+02 -0.19938E-05
 0.24700001E+02  0.29378E-05
 0.24750000E+02  0.73003E-05
 0.24800001E+02  0.86159E-06
 0.24850000E+02 -0.11531E-05
 0.24900000E+02  0.37685E-05
 0.24950001E+02 -0.13472E-05
 0.25000000E+02 -0.65265E-05
 0.25050001E+02 -0.69709E-05
 0.25100000E+02 -0.44756E-05
 0.25150000E+02 -0.10113E-05
 0.25200001E+02 -0.37228E-06
 0.25250000E+02 -0.13166E-05
 0.25300001E+02 -0.15750E-05
 0.25350000E+02  0.32962E-05
 0.25400000E+02  0.26843E-05
 0.25450001E+02 -0.61675E-07
 0.25500000E+02  0.30481E-05
 0.25550001E+02  0.38921E-05
 0.25600000E+02 -0.34864E-05
 0.25650000E+02 -0.16074E-05
 0.25700001E+02  0.95843E-05
 0.25750000E+02 -0.52067E-07
 0.25800001E+02 -0.35910E-05
 0.25850000E+02  0.51182E-05
 0.25900000E+02  0.43121E-05
 0.25950001E+02 -0.44960E-05
 0.26000000E+02 -0.11175E-04
 0.26050001E+02  0.36717E-05
 0.26100000E+02  0.13045E-04
 0.26150000E+02  0.71332E-05
 0.26200001E+02 -0.32640E-05
 0.26250000E+02 -0.13376E-04
 0.26300001E+02 -0.81782E-05
 0.26350000E+02  0.50732E-05
 0.26400000E+02  0.33777E-05
 0.26450001E+02 -0.12395E-04
 0.26500000E+02 -0.18234E-04
 0.26550001E+02 -0.60175E-05
 0.26600000E+02  0.20116E-04
 0.26650000E+02  0.19789E-04
 0.26700001E+02 -0.55360E-05
 0.26750000E+02 -0.36433E-05
 0.26800001E+02  0.12102E-04
 0.26850000E+02  0.10331E-04
 0.26900000E+02 -0.52566E-05
 0.26950001E+02 -0.13802E-04
 0.27000000E+02 -0.56837E-05
 0.27050001E+02 -0.40682E-05
 0.27100000E+02 -0.79060E-05
 0.27150000E+02  0.11678E-04
 0.27200001E+02  0.18065E-04
 0.27250000E+02  0.31908E-05
 0.27300001E+02  0.59686E-05
 0.27350000E+02 -0.38478E-05
 0.27400000E+02 -0.20494E-04
 0.27450001E+02 -0.17044E-04
 0.27500000E+02 -0.75701E-05
 0.27550001E+02  0.10243E-05
 0.27600000E+02  0.33962E-05
 0.27650000E+02  0.15611E-04
 0.27700001E+02  0.19734E-04
 0.27750000E+02 -0.16834E-07
 0.27800001E+02 -0.52436E-05
 0.27850000E+02 -0.16544E-05
 0.27900000E+02 -0.70438E-06
 0.27950001E+02  0.16653E-05
 0.28000000E+02 -0.86797E-05
 0.28050001E+02 -0.86142E-05
 0.28100000E+02  0.41835E-05
 0.28150000E+02  0.94442E-05
 0.28200001E+02  0.88204E-05
 0.28250000E+02 -0.38491E-05
 0.28300001E+02 -0.15878E-04
 0.28350000E+02 -0.24037E-04
 0.28400000E+02 -0.10204E-04
 0.28450001E+02  0.24148E-04
 0.28500000E+02  0.26036E-04
 0.28550001E+02  0.95529E-05
 0.28600000E+02 -0.24836E-05
 0.28650000E+02 -0.16153E-04
 0.28700001E+02 -0.88123E-05
 0.28750000E+02  0.61366E-05
 0.28800001E+02  0.15778E-04
 0.28850000E+02  0.17155E-04
 0.28900000E+02 -0.50489E-05
 0.28950001E+02 -0.12255E-04
 0.29000000E+02 -0.81751E-05
 0.29050001E+02 -0.14589E-04
 0.29100000E+02 -0.10248E-04
 0.29150000E+02 -0.78442E-05
 0.29200001E+02  0.52759E-05
 0.29250000E+02  0.25876E-04
 0.29300001E+02  0.15377E-04
 0.29350000E+02  0.18087E-05
 0.29400000E+02 -0.79083E-05
 0.29450001E+02 -0.21025E-04
 0.29500000E+02 -0.15491E-04
 0.29550001E+02  0.72850E-05
 0.29600000E+02  0.22704E-04
 0.29650000E+02  0.25489E-05
 0.29700001E+02 -0.19239E-04
 0.29750000E+02 -0.99899E-05
 0.29800001E+02  0.89567E-05
 0.29850000E+02  0.16826E-04
 0.29900000E+02  0.18473E-04
 0.29950001E+02  0.15578E-04
 0.30000000E+02 -0.87286E-05
 0.30050001E+02 -0.22697E-04
 0.30100000E+02 -0.17873E-05
 0.30150000E+02  0.61989E-05
 0.30200001E+02 -0.13182E-04
 0.30250000E+02 -0.11409E-04
 0.30300001E+02  0.83750E-05
 0.30350000E+02  0.11291E-04
 0.30400000E+02  0.29702E-05
 0.30450001E+02 -0.17591E-05
 0.30500000E+02 -0.73291E-05
 0.30550001E+02 -0.11713E-04
 0.30600000E+02 -0.56270E-06
 0.30650000E+02  0.77718E-05
 0.30700001E+02  0.61261E-05
 0.30750000E+02  0.38291E-05
 0.30800001E+02 -0.32440E-06
 0.30850000E+02 -0.71731E-05
 0.30900000E+02 -0.86848E-05
 0.30950001E+02  0.22182E-05
 0.31000000E+02  0.57360E-05
 0.31050001E+02  0.55480E-05
 0.31100000E+02 -0.11367E-05
 0.31150000E+02 -0.11763E-04
 0.31200001E+02  0.10173E-05
 0.31250000E+02  0.11279E-04
 0.31300001E+02 -0.13185E-05
 0.31350000E+02 -0.70552E-05
 0.31400000E+02  0.25766E-05
 0.31450001E+02  0.31346E-05
 0.31500000E+02  0.46801E-05
 0.31550001E+02  0.78456E-05
 0.31600000E+02 -0.11038E-06
 0.31650000E+02 -0.78931E-05
 0.31700001E+02 -0.76036E-05
 0.31750000E+02  0.17576E-05
 0.31800001E+02 -0.21358E-05
 0.31850000E+02 -0.53751E-05
 0.31900000E+02 -0.74442E-05
 0.31950001E+02 -0.49544E-05
 0.32000000E+02  0.14753E-04
 0.32049999E+02  0.79996E-05
 0.32100002E+02 -0.71470E-05
 0.32150002E+02 -0.67304E-05
 0.32200001E+02 -0.92448E-06
 0.32250000E+02  0.58206E-05
 0.32299999E+02  0.38099E-05
 0.32350002E+02 -0.88510E-07
 0.32400002E+02 -0.17224E-06
 0.32450001E+02  0.85848E-05
 0.32500000E+02  0.21548E-04
 0.32549999E+02  0.10113E-04
 0.32600002E+02 -0.15086E-04
 0.32650002E+02 -0.15554E-04
 0.32700001E+02 -0.69975E-05
 0.32750000E+02 -0.56688E-06
 0.32799999E+02  0.93530E-05
 0.32850002E+02  0.22584E-05
 0.32900002E+02 -0.58541E-05
 0.32950001E+02 -0.31433E-06
 0.33000000E+02 -0.98857E-05
 0.33049999E+02 -0.12081E-04
 0.33100002E+02  0.21803E-05
 0.33150002E+02  0.59481E-05
 0.33200001E+02  0.74516E-05
 0.33250000E+02 -0.23344E-05
 0.33299999E+02 -0.30388E-05
 0.33350002E+02  0.55621E-05
 0.33400002E+02  0.37544E-05
 0.33450001E+02  0.11700E-04
 0.33500000E+02 -0.12272E-05
 0.33549999E+02 -0.15302E-04
 0.33600002E+02 -0.94636E-05
 0.33650002E+02 -0.13078E-04
 0.33700001E+02 -0.35014E-05
 0.33750000E+02  0.11734E-04
 0.33799999E+02  0.20488E-04
 0.33850002E+02  0.17266E-04
 0.33900002E+02 -0.37085E-05
 0.33950001E+02 -0.76919E-05
 0.34000000E+02  0.10691E-05
 0.34049999E+02  0.10415E-05
 0.34100002E+02  0.27310E-05
 0.34150002E+02  0.58652E-06
 0.34200001E+02 -0.79714E-05
 0.34250000E+02 -0.92196E-05
 0.34299999E+02  0.35976E-05
 0.34350002E+02  0.12212E-04
 0.34400002E+02 -0.30205E-07
 0.34450001E+02 -0.74091E-05
 0.34500000E+02 -0.22790E-05
 0.34549999E+02  0.20608E-05
 0.34600002E+02 -0.41874E-05
 0.34650002E+02 -0.12968E-04
 0.34700001E+02 -0.12480E-04
 0.34750000E+02 -0.93686E-05
 0.34799999E+02  0.50452E-05
 0.34850002E+02  0.17069E-04
 0.34900002E+02  0.19460E-04
 0.34950001E+02  0.17173E-04
 0.35000000E+02  0.17459E-05
 0.35049999E+02 -0.90303E-05
 0.35100002E+02 -0.64777E-05
 0.35150002E+02  0.35446E-06
 0.35200001E+02  0.23412E-05
 0.35250000E+02  0.14990E-05
 0.35299999E+02 -0.78491E-05
 0.35350002E+02 -0.20810E-04
 0.35400002E+02 -0.45355E-05
 0.35450001E+02  0.13705E-04
 0.35500000E+02  0.10659E-04
 0.35549999E+02  0.88498E-06
 0.35600002E+02 -0.14490E-04
 0.35650002E+02 -0.14177E-04
 0.35700001E+02 -0.32035E-05
 0.35750000E+02  0.32112E-05
 0.35799999E+02  0.60868E-05
 0.35850002E+02  0.42641E-05
 0.35900002E+02  0.61205E-05
 0.35950001E+02  0.41730E-05
 0.36000000E+02  0.28060E-05
 0.36049999E+02  0.95743E-06
 0.36100002E+02 -0.28511E-05
 0.36150002E+02  0.33293E-05
 0.36200001E+02 -0.22952E-05
 0.36250000E+02 -0.10045E-04
 0.36299999E+02 -0.36639E-05
 0.36350002E+02 -0.78095E-06
 0.36400002E+02  0.97744E-05
 0.36450001E+02  0.19787E-04
 0.36500000E+02  0.14093E-04
 0.36549999E+02  0.32729E-05
 0.36600002E+02 -0.14570E-04
 0.36650002E+02 -0.15259E-04
 0.36700001E+02 -0.26830E-05
 0.36750000E+02 -0.11097E-05
 0.36799999E+02  0.85607E-06
 0.36850002E+02 -0.19024E-05
 0.36900002E+02  0.27981E-06
 0.36950001E+02  0.83067E-05
 0.37000000E+02  0.42316E-05
 0.37049999E+02 -0.31581E-05
 0.37100002E+02 -0.10347E-04
 0.37150002E+02 -0.89402E-05
 0.37200001E+02 -0.33612E-05
 0.37250000E+02 -0.60551E-05
 0.37299999E+02 -0.49681E-06
 0.37350002E+02  0.98011E-05
 0.37400002E+02  0.17539E-04
 0.37450001E+02  0.17075E-04
 0.37500000E+02  0.39074E-05
 0.37549999E+02 -0.15166E-04
 0.37600002E+02 -0.23056E-04
 0.37650002E+02 -0.10381E-04
 0.37700001E+02  0.21086E-05
 0.37750000E+02  0.11057E-04
 0.37799999E+02  0.11613E-04
 0.37850002E+02  0.76460E-05
 0.37900002E+02 -0.36131E-06
 0.37950001E+02 -0.77739E-05
 0.38000000E+02 -0.32282E-05
 0.38049999E+02 -0.40297E-05
 0.38100002E+02 -0.22623E-05
 0.38150002E+02  0.54791E-05
 0.38200001E+02  0.46531E-05
 0.38250000E+02 -0.25098E-06
 0.38299999E+02 -0.20089E-05
 0.38350002E+02 -0.50392E-05
 0.38400002E+02 -0.97182E-05
 0.38450001E+02 -0.63099E-05
 0.38500000E+02  0.77382E-05
 0.38549999E+02  0.10959E-04
 0.38600002E+02 -0.16566E-05
 0.38650002E+02 -0.63980E-05
 0.38700001E+02  0.14973E-06
 0.38750000E+02  0.46456E-05
 0.38799999E+02  0.45260E-05
 0.38850002E+02  0.71260E-05
 0.38900002E+02  0.85827E-05
 0.38950001E+02  0.74533E-05
 0.39000000E+02  0.32303E-05
 0.39049999E+02 -0.89623E-05
 0.39100002E+02 -0.18242E-04
 0.39150002E+02 -0.15642E-04
 0.39200001E+02 -0.58493E-05
 0.39250000E+02  0.53271E-05
 0.39299999E+02  0.90344E-05
 0.39350002E+02  0.23735E-05
 0.39400002E+02 -0.32742E-05
 0.39450001E+02 -0.88429E-06
 0.39500000E+02  0.43360E-05
 0.39549999E+02  0.23072E-05
 0.39600002E+02 -0.63980E-06
 0.39650002E+02  0.83389E-05
 0.39700001E+02  0.13318E-04
 0.39750000E+02  0.58617E-05
 0.39799999E+02 -0.57231E-05
 0.39850002E+02 -0.67152E-05
 0.39900002E+02  0.29326E-05
 0.39950001E+02 -0.66925E-06
 0.40000000E+02 -0.39829E-05
 0.40049999E+02 -0.69240E-05
 0.40100002E+02 -0.19848E-04
 0.40150002E+02 -0.18712E-04
 0.40200001E+02 -0.25265E-05
 0.40250000E+02  0.11543E-04
 0.40299999E+02  0.11974E-04
 0.40350002E+02  0.72414E-05
 0.40400002E+02  0.12587E-04
 0.40450001E+02  0.13019E-04
 0.40500000E+02  0.67409E-05
 0.40549999E+02  0.47541E-05
 0.40600002E+02 -0.17439E-05
 0.40650002E+02 -0.82309E-05
 0.40700001E+02 -0.79207E-05
 0.40750000E+02 -0.45328E-05
 0.40799999E+02 -0.13055E-05
 0.40850002E+02 -0.69114E-06
 0.40900002E+02 -0.56056E-05
 0.40950001E+02 -0.11121E-04
 0.41000000E+02 -0.64365E-05
 0.41049999E+02 -0.34320E-06
 0.41100002E+02 -0.28829E-05
 0.41150002E+02 -0.16253E-05
 0.41200001E+02  0.34454E-06
 0.41250000E+02 -0.38708E-05
 0.41299999E+02  0.70560E-06
 0.41350002E+02  0.78381E-05
 0.41400002E+02  0.46677E-05
 0.41450001E+02  0.70417E-06
 0.41500000E+02  0.40178E-05
 0.41549999E+02  0.75687E-05
 0.41600002E+02  0.88742E-05
 0.41650002E+02  0.89544E-05
 0.41700001E+02 -0.12528E-05
 0.41750000E+02 -0.12328E-04
 0.41799999E+02 -0.48315E-05
 0.41850002E+02  0.49940E-05
 0.41900002E+02  0.37813E-05
 0.41950001E+02  0.57517E-05
 0.42000000E+02  0.35919E-05
 0.42049999E+02 -0.51450E-05
 0.42100002E+02 -0.62491E-05
 0.42150002E+02 -0.61640E-05
 0.42200001E+02 -0.90102E-05
 0.42250000E+02 -0.67776E-06
 0.42299999E+02  0.17924E-04
 0.42350002E+02  0.22374E-04
 0.42400002E+02  0.13181E-04
 0.42450001E+02  0.51250E-05
 0.42500000E+02 -0.88905E-05
 0.42549999E+02 -0.21329E-04
 0.42600002E+02 -0.14327E-04
 0.42650002E+02 -0.64787E-05
 0.42700001E+02 -0.45952E-05
 0.42750000E+02  0.14996E-04
 0.42799999E+02  0.25434E-04
 0.42850002E+02  0.71639E-05
 0.42900002E+02 -0.35176E-05
 0.42950001E+02 -0.66423E-05
 0.43000000E+02 -0.26185E-04
 0.43049999E+02 -0.48095E-04
 0.43100002E+02 -0.50966E-04
 0.43150002E+02 -0.28981E-04
 0.43200001E+02  0.66892E-05
 0.43250000E+02  0.28906E-04
 0.43299999E+02  0.34783E-04
 0.43350002E+02  0.35959E-04
 0.43400002E+02  0.37144E-04
 0.43450001E+02  0.28511E-04
 0.43500000E+02  0.87062E-05
 0.43549999E+02 -0.83659E-05
 0.43600002E+02 -0.20923E-04
 0.43650002E+02 -0.12893E-04
 0.43700001E+02  0.20960E-05
 0.43750000E+02  0.56306E-05
 0.43799999E+02  0.14601E-05
 0.43850002E+02 -0.65143E-05
 0.43900002E+02  0.87092E-05
 0.43950001E+02  0.30820E-04
 0.44000000E+02  0.28350E-04
 0.44049999E+02 -0.19428E-05
 0.44100002E+02 -0.47817E-04
 0.44150002E+02 -0.56808E-04
 0.44200001E+02 -0.20188E-04
 0.44250000E+02  0.45425E-05
 0.44299999E+02 -0.42479E-05
 0.44350002E+02 -0.21890E-04
 0.44400002E+02 -0.17860E-04
 0.44450001E+02 -0.62470E-05
 0.44500000E+02 -0.12713E-04
 0.44549999E+02 -0.21944E-04
 0.44600002E+02 -0.12340E-04
 0.44650002E+02  0.31162E-04
 0.44700001E+02  0.76815E-04
 0.44750000E+02  0.83840E-04
 0.44799999E+02  0.58015E-04
 0.44850002E+02  0.10676E-04
 0.44900002E+02 -0.28235E-04
 0.44950001E+02 -0.26520E-04
 0.45000000E+02  0.10197E-04
 0.45049999E+02  0.25253E-04
 0.45100002E+02 -0.22537E-04
 0.45150002E+02 -0.67203E-04
 0.45200001E+02 -0.60766E-04
 0.45250000E+02 -0.28960E-04
 0.45299999E+02  0.10642E-04
 0.45350002E+02  0.38225E-04
 0.45400002E+02  0.39757E-04
 0.45450001E+02  0.23937E-04
 0.45500000E+02  0.42062E-06
 0.45549999E+02 -0.22729E-04
 0.45600002E+02 -0.33116E-04
 0.45650002E+02 -0.26666E-04
 0.45700001E+02 -0.17800E-04
 0.45750000E+02 -0.86837E-05
 0.45799999E+02  0.16753E-04
 0.45850002E+02  0.35675E-04
 0.45900002E+02  0.25098E-04
 0.45950001E+02  0.10043E-04
 0.46000000E+02  0.17342E-04
 0.46049999E+02  0.26672E-04
 0.46100002E+02  0.50853E-05
 0.46150002E+02 -0.24033E-04
 0.46200001E+02 -0.28721E-04
 0.46250000E+02 -0.20882E-04
 0.46299999E+02 -0.13396E-04
 0.46350002E+02  0.20039E-05
 0.46400002E+02  0.38391E-05
 0.46450001E+02 -0.82759E-05
 0.46500000E+02 -0.54307E-05
 0.46549999E+02 -0.20720E-05
 0.46600002E+02  0.16258E-05
 0.46650002E+02  0.54853E-05
 0.46700001E+02 -0.20355E-05
 0.46750000E+02 -0.10917E-04
 0.46799999E+02 -0.15082E-04
 0.46850002E+02  0.11372E-05
 0.46900002E+02  0.27327E-04
 0.46950001E+02  0.21339E-04
 0.47000000E+02 -0.38533E-05
 0.47049999E+02 -0.11615E-04
 0.47100002E+02 -0.50982E-05
 0.47150002E+02  0.10086E-04
 0.47200001E+02  0.28264E-04
 0.47250000E+02  0.35444E-04
 0.47299999E+02  0.34138E-04
 0.47350002E+02  0.19956E-04
 0.47400002E+02 -0.11975E-04
 0.47450001E+02 -0.40193E-04
 0.47500000E+02 -0.35621E-04
 0.47549999E+02 -0.44745E-05
 0.47600002E+02  0.35559E-05
 0.47650002E+02 -0.12893E-04
 0.47700001E+02 -0.22201E-04
 0.47750000E+02 -0.15782E-04
 0.47799999E+02 -0.69867E-06
 0.47850002E+02 -0.84766E-06
 0.47900002E+02 -0.87816E-05
 0.47950001E+02 -0.83802E-05
 0.48000000E+02  0.61827E-05
 0.48049999E+02  0.28059E-04
 0.48100002E+02  0.27790E-04
 0.48150002E+02  0.53553E-05
 0.48200001E+02 -0.93914E-05
 0.48250000E+02  0.24586E-05
 0.48299999E+02  0.15459E-04
 0.48350002E+02  0.62924E-05
 0.48400002E+02  0.52034E-05
 0.48450001E+02  0.10519E-04
 0.48500000E+02 -0.56898E-05
 0.48549999E+02 -0.18343E-04
 0.48600002E+02 -0.14779E-04
 0.48650002E+02 -0.10592E-04
 0.48700001E+02 -0.10503E-04
 0.48750000E+02 -0.17887E-04
 0.48799999E+02 -0.22084E-04
 0.48850002E+02 -0.16966E-04
 0.48900002E+02 -0.44783E-05
 0.48950001E+02  0.62760E-05
 0.49000000E+02  0.48635E-05
 0.49049999E+02  0.70832E-05
 0.49100002E+02  0.88059E-05
 0.49150002E+02  0.10709E-04
 0.49200001E+02  0.22324E-04
 0.49250000E+02  0.24981E-04
 0.49299999E+02  0.24070E-04
 0.49350002E+02  0.16913E-04
 0.49400002E+02  0.13765E-05
 0.49450001E+02 -0.32747E-05
 0.49500000E+02  0.49066E-05
 0.49549999E+02  0.17272E-04
 0.49600002E+02  0.19035E-04
 0.49650002E+02  0.14547E-04
 0.49700001E+02  0.12150E-04
 0.49750000E+02  0.69645E-06
 0.49799999E+02 -0.23940E-04
 0.49850002E+02 -0.38968E-04
 0.49900002E+02 -0.38295E-04
 0.49950001E+02 -0.35187E-04
 0.50000000E+02 -0.27708E-04
 0.50049999E+02 -0.18771E-04
 0.50100002E+02 -0.66674E-05
 0.50150002E+02  0.14929E-05
 0.50200001E+02 -0.14404E-05
 0.50250000E+02 -0.23273E-05
 0.50299999E+02  0.88695E-06
 0.50350002E+02  0.41983E-05
 0.50400002E+02  0.67742E-05
 0.50450001E+02  0.85003E-05
 0.50500000E+02  0.91921E-05
 0.50549999E+02  0.37397E-05
 0.50600002E+02  0.31536E-05
 0.50650002E+02  0.10648E-04
 0.50700001E+02  0.10867E-04
 0.50750000E+02  0.42833E-05
 0.50799999E+02 -0.77089E-06
 0.50850002E+02  0.84903E-05
 0.50900002E+02  0.18001E-04
 0.50950001E+02  0.10948E-04
 0.51000000E+02  0.43108E-05
 0.51049999E+02 -0.46646E-06
 0.51100002E+02 -0.62091E-05
 0.51150002E+02 -0.67210E-05
 0.51200001E+02 -0.21447E-05
 0.51250000E+02  0.61628E-05
 0.51299999E+02  0.68691E-05
 0.51350002E+02 -0.31977E-05
 0.51400002E+02 -0.11015E-04
 0.51450001E+02 -0.11137E-04
 0.51500000E+02 -0.62923E-05
 0.51549999E+02 -0.15447E-05
 0.51600002E+02 -0.38269E-05
 0.51650002E+02 -0.13545E-04
 0.51700001E+02 -0.15652E-04
 0.51750000E+02 -0.49433E-05
 0.51799999E+02  0.11496E-04
 0.51850002E+02  0.20529E-04
 0.51900002E+02  0.10973E-04
 0.51950001E+02  0.25109E-05
 0.52000000E+02  0.49653E-05
 0.52049999E+02  0.52684E-05
 0.52100002E+02  0.45445E-05
 0.52150002E+02  0.49977E-05
 0.52200001E+02  0.39053E-05
 0.52250000E+02  0.89138E-05
 0.52299999E+02  0.17829E-04
 0.52350002E+02  0.16397E-04
 0.52400002E+02  0.51782E-05
 0.52450001E+02 -0.74052E-05
 0.52500000E+02 -0.20569E-04
 0.52549999E+02 -0.23463E-04
 0.52600002E+02 -0.12407E-04
 0.52650002E+02 -0.81811E-05
 0.52700001E+02 -0.80013E-05
 0.52750000E+02 -0.66357E-05
 0.52799999E+02 -0.52961E-05
 0.52850002E+02  0.17563E-05
 0.52900002E+02 -0.18751E-06
 0.52950001E+02 -0.34260E-05
 0.53000000E+02  0.10652E-06
 0.53049999E+02 -0.33903E-05
 0.53100002E+02 -0.37442E-05
 0.53150002E+02  0.16931E-05
 0.53200001E+02  0.66097E-05
 0.53250000E+02  0.11904E-04
 0.53299999E+02  0.15722E-04
 0.53350002E+02  0.14365E-04
 0.53400002E+02  0.73727E-05
 0.53450001E+02  0.31259E-05
 0.53500000E+02 -0.72340E-06
 0.53549999E+02 -0.55989E-05
 0.53600002E+02 -0.72068E-05
 0.53650002E+02 -0.92476E-05
 0.53700001E+02 -0.11833E-04
 0.53750000E+02 -0.15364E-04
 0.53799999E+02 -0.19706E-04
 0.53850002E+02 -0.15010E-04
 0.53900002E+02 -0.46794E-05
 0.53950001E+02  0.47824E-06
 0.54000000E+02  0.65236E-05
 0.54049999E+02  0.93527E-05
 0.54100002E+02  0.69134E-05
 0.54150002E+02  0.73845E-05
 0.54200001E+02  0.10534E-04
 0.54250000E+02  0.12627E-04
 0.54299999E+02  0.84411E-05
 0.54350002E+02  0.41029E-05
 0.54400002E+02  0.71262E-06
 0.54450001E+02 -0.32741E-05
 0.54500000E+02  0.79595E-06
 0.54549999E+02  0.77998E-05
 0.54600002E+02  0.13421E-04
 0.54650002E+02  0.16713E-04
 0.54700001E+02  0.91833E-05
 0.54750000E+02 -0.25275E-05
 0.54799999E+02 -0.83865E-05
 0.54850002E+02 -0.44463E-05
 0.54900002E+02 -0.86970E-06
 0.54950001E+02 -0.91040E-05
 0.55000000E+02 -0.15257E-04
 0.55049999E+02 -0.17241E-04
 0.55100002E+02 -0.19122E-04
 0.55150002E+02 -0.17050E-04
 0.55200001E+02 -0.14561E-04
 0.55250000E+02 -0.10855E-04
 0.55299999E+02 -0.33775E-05
 0.55350002E+02  0.39983E-05
 0.55400002E+02  0.86161E-05
 0.55450001E+02  0.13587E-04
 0.55500000E+02  0.15139E-04
 0.55549999E+02  0.68400E-05
 0.55600002E+02 -0.29318E-05
 0.55650002E+02 -0.28801E-05
 0.55700001E+02  0.36719E-05
 0.55750000E+02  0.62288E-05
 0.55799999E+02  0.41560E-05
 0.55850002E+02  0.37384E-05
 0.55900002E+02  0.34074E-05
 0.55950001E+02  0.44754E-05
 0.56000000E+02  0.82954E-05
 0.56049999E+02  0.11138E-04
 0.56100002E+02  0.88029E-05
 0.56150002E+02 -0.23718E-05
 0.56200001E+02 -0.98937E-05
 0.56250000E+02 -0.80696E-05
 0.56299999E+02  0.11140E-05
 0.56350002E+02  0.13996E-04
 0.56400002E+02  0.17214E-04
 0.56450001E+02  0.12081E-04
 0.56500000E+02  0.63667E-05
 0.56549999E+02  0.18486E-05
 0.56600002E+02 -0.45953E-05
 0.56650002E+02 -0.11985E-04
 0.56700001E+02 -0.13131E-04
 0.56750000E+02 -0.10504E-04
 0.56799999E+02 -0.12558E-04
 0.56850002E+02 -0.19596E-04
 0.56900002E+02 -0.20614E-04
 0.56950001E+02 -0.13958E-04
 0.57000000E+02 -0.81731E-05
 0.57049999E+02 -0.20507E-05
 0.57100002E+02  0.44982E-05
 0.57150002E+02  0.88700E-05
 0.57200001E+02  0.77353E-05
 0.57250000E+02  0.23236E-05
 0.57299999E+02  0.49958E-05
 0.57350002E+02  0.13388E-04
 0.57400002E+02  0.17089E-04
 0.57450001E+02  0.14246E-04
 0.57500000E+02  0.65916E-05
 0.57549999E+02 -0.14470E-05
 0.57600002E+02 -0.79108E-05
 0.57650002E+02 -0.11868E-04
 0.57700001E+02 -0.88384E-05
 0.57750000E+02  0.87758E-06
 0.57799999E+02  0.82285E-05
 0.57850002E+02  0.84158E-05
 0.57900002E+02  0.55633E-05
 0.57950001E+02 -0.34878E-06
 0.58000000E+02 -0.10773E-04
 0.58049999E+02 -0.16010E-04
 0.58100002E+02 -0.11121E-04
 0.58150002E+02 -0.30426E-06
 0.58200001E+02  0.11504E-04
 0.58250000E+02  0.17856E-04
 0.58299999E+02  0.13583E-04
 0.58350002E+02  0.45900E-05
 0.58400002E+02 -0.20341E-06
 0.58450001E+02 -0.47194E-05
 0.58500000E+02 -0.65129E-05
 0.58549999E+02 -0.44421E-05
 0.58600002E+02 -0.23243E-05
 0.58650002E+02  0.23138E-05
 0.58700001E+02  0.55515E-05
 0.58750000E+02  0.42737E-05
 0.58799999E+02 -0.42604E-05
 0.58850002E+02 -0.13323E-04
 0.58900002E+02 -0.11834E-04
 0.58950001E+02 -0.68973E-05
 0.59000000E+02 -0.37105E-05
 0.59049999E+02 -0.66565E-06
 0.59100002E+02  0.28258E-05
 0.59150002E+02  0.72882E-05
 0.59200001E+02  0.93797E-05
 0.59250000E+02  0.74416E-05
 0.59299999E+02  0.28933E-05
 0.59350002E+02 -0.25024E-05
 0.59400002E+02 -0.53346E-05
 0.59450001E+02 -0.37209E-05
 0.59500000E+02 -0.64890E-06
 0.59549999E+02  0.10048E-05
 0.59600002E+02  0.23112E-06
 0.59650002E+02  0.74014E-06
 0.59700001E+02  0.35282E-05
 0.59750000E+02  0.28815E-05
 0.59799999E+02 -0.13508E-05
 0.59850002E+02 -0.72403E-05
 0.59900002E+02 -0.10252E-04
 0.59950001E+02 -0.62982E-05
 0.60000000E+02  0.34785E-05
 0.60049999E+02  0.12860E-04
 0.60100002E+02  0.13887E-04
 0.60150002E+02  0.77757E-05
 0.60200001E+02 -0.96687E-06
 0.60250000E+02 -0.74894E-05
 0.60299999E+02 -0.86109E-05
 0.60350002E+02 -0.95389E-05
 0.60400002E+02 -0.11169E-04
 0.60450001E+02 -0.98053E-05
 0.60500000E+02 -0.72591E-05
 0.60549999E+02 -0.22895E-05
 0.60600002E+02  0.37437E-05
 0.60650002E+02  0.85406E-05
 0.60700001E+02  0.10512E-04
 0.60750000E+02  0.66282E-05
 0.60799999E+02  0.43977E-05
 0.60850002E+02  0.64188E-05
 0.60900002E+02  0.70323E-05
 0.60950001E+02  0.54730E-05
 0.61000000E+02  0.19710E-05
 0.61049999E+02 -0.24911E-05
 0.61100002E+02 -0.57474E-05
 0.61150002E+02 -0.81347E-05
 0.61200001E+02 -0.69922E-05
 0.61250000E+02 -0.39822E-06
 0.61299999E+02  0.52160E-05
 0.61350002E+02  0.55324E-05
 0.61400002E+02  0.32299E-05
 0.61450001E+02  0.32793E-05
 0.61500000E+02  0.57709E-05
 0.61549999E+02  0.80138E-05
 0.61600002E+02  0.77184E-05
 0.61650002E+02  0.27965E-05
 0.61700001E+02 -0.14262E-05
 0.61750000E+02 -0.38130E-05
 0.61799999E+02 -0.76681E-05
 0.61850002E+02 -0.87889E-05
 0.61900002E+02 -0.66729E-05
 0.61950001E+02 -0.18400E-05
 0.62000000E+02  0.32881E-05
 0.62049999E+02  0.39710E-05
 0.62100002E+02  0.42582E-05
 0.62150002E+02  0.60093E-05
 0.62200001E+02  0.72951E-05
 0.62250000E+02  0.43710E-05
 0.62299999E+02 -0.37820E-05
 0.62350002E+02 -0.10683E-04
 0.62400002E+02 -0.14827E-04
 0.62450001E+02 -0.15289E-04
 0.62500000E+02 -0.13263E-04
 0.62549999E+02 -0.10477E-04
 0.62600002E+02 -0.54386E-05
 0.62650002E+02 -0.90835E-06
 0.62700001E+02  0.56035E-05
 0.62750000E+02  0.11578E-04
 0.62799999E+02  0.10556E-04
 0.62850002E+02  0.46497E-05
 0.62900002E+02 -0.79566E-06
 0.62950001E+02 -0.28502E-06
 0.63000000E+02  0.34024E-05
 0.63049999E+02  0.54400E-05
 0.63100002E+02  0.36397E-05
 0.63150002E+02 -0.56044E-06
 0.63200001E+02 -0.40808E-05
 0.63250000E+02 -0.66264E-05
 0.63299999E+02 -0.74942E-05
 0.63350002E+02 -0.67385E-05
 0.63400002E+02 -0.25310E-05
 0.63450001E+02  0.33682E-05
 0.63500000E+02  0.70026E-05
 0.63549999E+02  0.85610E-05
 0.63600002E+02  0.86788E-05
 0.63650002E+02  0.65603E-05
 0.63700001E+02  0.29649E-05
 0.63750000E+02  0.80467E-06
 0.63799999E+02  0.74700E-06
 0.63850002E+02  0.17720E-05
 0.63900002E+02  0.18480E-05
 0.63950001E+02  0.20476E-05
 0.64000000E+02  0.34364E-05
 0.64050003E+02  0.39020E-05
 0.64099998E+02  0.27271E-05
 0.64150002E+02 -0.39736E-06
 0.64200005E+02 -0.29881E-05
 0.64250000E+02 -0.51881E-05
 0.64300003E+02 -0.86943E-05
 0.64349998E+02 -0.92546E-05
 0.64400002E+02 -0.72255E-05
 0.64450005E+02 -0.55649E-05
 0.64500000E+02 -0.45255E-05
 0.64550003E+02 -0.47049E-05
 0.64599998E+02 -0.46587E-05
 0.64650002E+02 -0.34438E-05
 0.64700005E+02 -0.51243E-06
 0.64750000E+02  0.35194E-05
 0.64800003E+02  0.71494E-05
 0.64849998E+02  0.69586E-05
 0.64900002E+02  0.27243E-05
 0.64950005E+02  0.90307E-06
 0.65000000E+02  0.20638E-05
 0.65050003E+02  0.60694E-05
 0.65099998E+02  0.93245E-05
 0.65150002E+02  0.65298E-05
 0.65200005E+02  0.14322E-05
 0.65250000E+02 -0.33844E-05
 0.65300003E+02 -0.51439E-05
 0.65349998E+02 -0.30679E-05
 0.65400002E+02  0.11464E-05
 0.65450005E+02  0.47012E-05
 0.65500000E+02  0.38606E-05
 0.65550003E+02  0.99567E-06
 0.65599998E+02 -0.30091E-05
 0.65650002E+02 -0.82186E-05
 0.65700005E+02 -0.11441E-04
 0.65750000E+02 -0.10530E-04
 0.65800003E+02 -0.62089E-05
 0.65849998E+02 -0.10139E-05
 0.65900002E+02  0.45796E-05
 0.65950005E+02  0.93252E-05
 0.66000000E+02  0.11245E-04
 0.66050003E+02  0.90800E-05
 0.66099998E+02  0.35860E-05
 0.66150002E+02  0.72429E-06
 0.66200005E+02  0.90264E-06
 0.66250000E+02  0.45596E-06
 0.66300003E+02 -0.10965E-05
 0.66349998E+02 -0.25755E-05
 0.66400002E+02 -0.27000E-05
 0.66450005E+02 -0.38114E-05
 0.66500000E+02 -0.42844E-05
 0.66550003E+02 -0.22827E-05
 0.66599998E+02  0.88727E-06
 0.66650002E+02  0.32632E-05
 0.66700005E+02  0.18839E-05
 0.66750000E+02 -0.15321E-06
 0.66800003E+02 -0.16543E-05
 0.66849998E+02 -0.36535E-05
 0.66900002E+02 -0.47242E-05
 0.66950005E+02 -0.50954E-05
 0.67000000E+02 -0.38148E-05
 0.67050003E+02 -0.17198E-05
 0.67099998E+02 -0.11247E-05
 0.67150002E+02 -0.29807E-06
 0.67200005E+02  0.34893E-06
 0.67250000E+02  0.32336E-06
 0.67300003E+02  0.18029E-05
 0.67349998E+02  0.30585E-05
 0.67400002E+02  0.36465E-05
 0.67450005E+02  0.17738E-05
 0.67500000E+02 -0.11120E-05
 0.67550003E+02 -0.12332E-06
 0.67599998E+02  0.32099E-05
 0.67650002E+02  0.67256E-05
 0.67700005E+02  0.65019E-05
 0.67750000E+02  0.35342E-05
 0.67800003E+02  0.97903E-06
 0.67849998E+02 -0.13056E-05
 0.67900002E+02 -0.16482E-05
 0.67950005E+02 -0.10346E-05
 0.68000000E+02 -0.73575E-07
 0.68050003E+02 -0.23811E-06
 0.68099998E+02 -0.31908E-05
 0.68150002E+02 -0.63459E-05
 0.68200005E+02 -0.77344E-05
 0.68250000E+02 -0.60413E-05
 0.68300003E+02 -0.10588E-05
 0.68349998E+02  0.44559E-05
 0.68400002E+02  0.69848E-05
 0.68450005E+02  0.63683E-05
 0.68500000E+02  0.46604E-05
 0.68550003E+02  0.15934E-05
 0.68599998E+02 -0.91383E-06
 0.68650002E+02 -0.12537E-05
 0.68700005E+02 -0.18888E-05
 0.68750000E+02 -0.43011E-05
 0.68800003E+02 -0.65283E-05
 0.68849998E+02 -0.60923E-05
 0.68900002E+02 -0.39627E-05
 0.68950005E+02 -0.10401E-05
 0.69000000E+02  0.11321E-05
 0.69050003E+02  0.21488E-05
 0.69099998E+02  0.31187E-05
 0.69150002E+02  0.27157E-05
 0.69200005E+02  0.13034E-05
 0.69250000E+02  0.52043E-06
 0.69300003E+02  0.50147E-06
 0.69349998E+02 -0.22547E-06
 0.69400002E+02 -0.14536E-05
 0.69450005E+02 -0.12045E-05
 0.69500000E+02  0.93051E-06
 0.69550003E+02  0.38269E-05
 0.69599998E+02  0.51593E-05
 0.69650002E+02  0.54178E-05
 0.69700005E+02  0.50405E-05
 0.69750000E+02  0.27960E-05
 0.69800003E+02  0.21388E-05
 0.69849998E+02  0.39027E-05
 0.69900002E+02  0.49220E-05
 0.69950005E+02  0.44776E-05
 0.70000000E+02  0.23842E-05
 0.70050003E+02 -0.88404E-06
 0.70099998E+02 -0.50985E-05
 0.70150002E+02 -0.97040E-05
 0.70200005E+02 -0.12809E-04
 0.70250000E+02 -0.14422E-04
 0.70300003E+02 -0.14221E-04
 0.70349998E+02 -0.11441E-04
 0.70400002E+02 -0.71211E-05
 0.70450005E+02 -0.31910E-06
 0.70500000E+02  0.63829E-05
 0.70550003E+02  0.93210E-05
 0.70599998E+02  0.10665E-04
 0.70650002E+02  0.10331E-04
 0.70700005E+02  0.76654E-05
 0.70750000E+02  0.44065E-05
 0.70800003E+02  0.20009E-05
 0.70849998E+02  0.17029E-05
 0.70900002E+02  0.26077E-05
 0.70950005E+02  0.22968E-05
 0.71000000E+02  0.11199E-05
 0.71050003E+02  0.21912E-06
 0.71099998E+02 -0.44407E-06
 0.71150002E+02  0.72142E-06
 0.71200005E+02  0.26841E-05
 0.71250000E+02  0.26464E-05
 0.71300003E+02  0.56032E-06
 0.71349998E+02 -0.19064E-05
 0.71400002E+02 -0.26937E-05
 0.71450005E+02 -0.27626E-05
 0.71500000E+02 -0.33558E-05
 0.71550003E+02 -0.37377E-05
 0.71599998E+02 -0.37811E-05
 0.71650002E+02 -0.39847E-05
 0.71700005E+02 -0.50337E-05
 0.71750000E+02 -0.57768E-05
 0.71800003E+02 -0.47886E-05
 0.71849998E+02 -0.24822E-05
 0.71900002E+02 -0.51778E-06
 0.71950005E+02 -0.55247E-06
 0.72000000E+02 -0.19176E-05
 0.72050003E+02 -0.17978E-05
 0.72099998E+02  0.95270E-06
 0.72150002E+02  0.43188E-05
 0.72200005E+02  0.62277E-05
 0.72250000E+02  0.57723E-05
 0.72300003E+02  0.38761E-05
 0.72349998E+02  0.14167E-05
 0.72400002E+02 -0.56984E-06
 0.72450005E+02 -0.48738E-06
 0.72500000E+02  0.14330E-05
 0.72550003E+02  0.30977E-05
 0.72599998E+02  0.20684E-05
 0.72650002E+02 -0.82549E-08
 0.72700005E+02 -0.68097E-06
 0.72750000E+02 -0.12609E-05
 0.72800003E+02 -0.28256E-05
 0.72849998E+02 -0.42161E-05
 0.72900002E+02 -0.31520E-05
 0.72950005E+02  0.55859E-06
 0.73000000E+02  0.29111E-05
 0.73050003E+02  0.29617E-05
 0.73099998E+02  0.28749E-05
 0.73150002E+02  0.22937E-05
 0.73200005E+02  0.18434E-05
 0.73250000E+02  0.19807E-05
 0.73300003E+02  0.20717E-05
 0.73349998E+02  0.17794E-05
 0.73400002E+02  0.16078E-05
 0.73450005E+02  0.20700E-05
 0.73500000E+02  0.16049E-05
 0.73550003E+02  0.35721E-06
 0.73599998E+02 -0.16215E-05
 0.73650002E+02 -0.34414E-05
 0.73700005E+02 -0.30386E-05
 0.73750000E+02 -0.32465E-05
 0.73800003E+02 -0.51567E-05
 0.73849998E+02 -0.61079E-05
 0.73900002E+02 -0.58313E-05
 0.73950005E+02 -0.52438E-05
 0.74000000E+02 -0.34906E-05
 0.74050003E+02 -0.59307E-06
 0.74099998E+02  0.16007E-05
 0.74150002E+02  0.26886E-05
 0.74200005E+02  0.24698E-05
 0.74250000E+02  0.18472E-05
 0.74300003E+02  0.24170E-05
 0.74349998E+02  0.39643E-05
 0.74400002E+02  0.55740E-05
 0.74450005E+02  0.66048E-05
 0.74500000E+02  0.64871E-05
 0.74550003E+02  0.39951E-05
 0.74599998E+02  0.13054E-05
 0.74650002E+02  0.12615E-05
 0.74700005E+02  0.13120E-05
 0.74750000E+02 -0.56695E-06
 0.74800003E+02 -0.35078E-05
 0.74849998E+02 -0.65224E-05
 0.74900002E+02 -0.84206E-05
 0.74950005E+02 -0.88330E-05
 0.75000000E+02 -0.81664E-05
 0.75050003E+02 -0.67132E-05
 0.75099998E+02 -0.45641E-05
 0.75150002E+02 -0.12872E-05
 0.75200005E+02  0.23326E-05
 0.75250000E+02  0.50377E-05
 0.75300003E+02  0.67233E-05
 0.75349998E+02  0.73186E-05
 0.75400002E+02  0.72791E-05
 0.75450005E+02  0.65558E-05
 0.75500000E+02  0.55860E-05
 0.75550003E+02  0.53914E-05
 0.75599998E+02  0.41934E-05
 0.75650002E+02  0.98438E-06
 0.75700005E+02 -0.27287E-05
 0.75750000E+02 -0.56065E-05
 0.75800003E+02 -0.64894E-05
 0.75849998E+02 -0.62046E-05
 0.75900002E+02 -0.53166E-05
 0.75950005E+02 -0.34900E-05
 0.76000000E+02 -0.21422E-05
 0.76050003E+02 -0.12540E-05
 0.76099998E+02 -0.46572E-06
 0.76150002E+02 -0.14512E-06
 0.76200005E+02 -0.55190E-06
 0.76250000E+02 -0.20348E-05
 0.76300003E+02 -0.24367E-05
 0.76349998E+02 -0.45460E-06
 0.76400002E+02  0.16127E-05
 0.76450005E+02  0.20232E-05
 0.76500000E+02  0.12674E-05
 0.76550003E+02  0.82988E-06
 0.76599998E+02  0.12492E-05
 0.76650002E+02  0.22154E-05
 0.76700005E+02  0.31372E-05
 0.76750000E+02  0.40875E-05
 0.76800003E+02  0.53377E-05
 0.76849998E+02  0.55594E-05
 0.76900002E+02  0.49728E-05
 0.76950005E+02  0.34711E-05
 0.77000000E+02  0.31617E-06
 0.77050003E+02 -0.30712E-05
 0.77099998E+02 -0.52971E-05
 0.77150002E+02 -0.63849E-05
 0.77200005E+02 -0.67655E-05
 0.77250000E+02 -0.53350E-05
 0.77300003E+02 -0.27737E-05
 0.77349998E+02 -0.70319E-06
 0.77400002E+02  0.46204E-06
 0.77450005E+02  0.53918E-06
 0.77500000E+02  0.77210E-06
 0.77550003E+02  0.17231E-05
 0.77599998E+02  0.25064E-05
 0.77650002E+02  0.30148E-05
 0.77700005E+02  0.40778E-05
 0.77750000E+02  0.50112E-05
 0.77800003E+02  0.40082E-05
 0.77849998E+02  0.10412E-05
 0.77900002E+02 -0.21077E-05
 0.77950005E+02 -0.48279E-05
 0.78000000E+02 -0.70510E-05
 0.78050003E+02 -0.73858E-05
 0.78099998E+02 -0.59438E-05
 0.78150002E+02 -0.37842E-05
 0.78200005E+02 -0.14734E-05
 0.78250000E+02  0.23066E-06
 0.78300003E+02  0.17125E-05
 0.78349998E+02  0.33784E-05
 0.78400002E+02  0.42508E-05
 0.78450005E+02  0.44751E-05
 0.78500000E+02  0.52578E-05
 0.78550003E+02  0.59857E-05
 0.78599998E+02  0.52513E-05
 0.78650002E+02  0.38891E-05
 0.78700005E+02  0.29839E-05
 0.78750000E+02  0.15645E-05
 0.78800003E+02 -0.19099E-06
 0.78849998E+02 -0.13108E-05
 0.78900002E+02 -0.23625E-05
 0.78950005E+02 -0.35262E-05
 0.79000000E+02 -0.40539E-05
 0.79050003E+02 -0.36984E-05
 0.79099998E+02 -0.28713E-05
 0.79150002E+02 -0.21124E-05
 0.79200005E+02 -0.20976E-05
 0.79250000E+02 -0.18107E-05
 0.79300003E+02 -0.14210E-06
 0.79349998E+02  0.82741E-06
 0.79400002E+02  0.21908E-06
 0.79450005E+02 -0.44387E-06
 0.79500000E+02 -0.39286E-06
 0.79550003E+02  0.12094E-06
 0.79599998E+02  0.52221E-06
 0.79650002E+02  0.94978E-06
 0.79700005E+02  0.11845E-05
 0.79750000E+02  0.23238E-06
 0.79800003E+02 -0.15312E-05
 0.79849998E+02 -0.23529E-05
 0.79900002E+02 -0.19362E-05
 0.79950005E+02 -0.84363E-06
 0.80000000E+02  0.68960E-06
 0.80050003E+02  0.20843E-05
 0.80099998E+02  0.27441E-05
 0.80150002E+02  0.22263E-05
 0.80200005E+02  0.12306E-05
 0.80250000E+02  0.65684E-06
 0.80300003E+02  0.49730E-06
 0.80349998E+02  0.53797E-06
 0.80400002E+02  0.55906E-06
 0.80450005E+02  0.42961E-06
 0.80500000E+02  0.57026E-06
 0.80550003E+02  0.47075E-06
 0.80599998E+02 -0.89062E-06
 0.80650002E+02 -0.22626E-05
 0.80700005E+02 -0.22483E-05
 0.80750000E+02 -0.16221E-05
 0.80800003E+02 -0.16128E-05
 0.80849998E+02 -0.18313E-05
 0.80900002E+02 -0.76740E-06
 0.80950005E+02  0.12494E-05
 0.81000000E+02  0.15636E-05
 0.81050003E+02  0.26829E-06
 0.81099998E+02 -0.11688E-05
 0.81150002E+02 -0.26405E-05
 0.81200005E+02 -0.31263E-05
 0.81250000E+02 -0.24617E-05
 0.81300003E+02 -0.91609E-06
 0.81349998E+02  0.12388E-05
 0.81400002E+02  0.36434E-05
 0.81450005E+02  0.55457E-05
 0.81500000E+02  0.56750E-05
 0.81550003E+02  0.42177E-05
 0.81599998E+02  0.27316E-05
 0.81650002E+02  0.24746E-05
 0.81700005E+02  0.22120E-05
 0.81750000E+02  0.78067E-06
 0.81800003E+02 -0.11601E-05
 0.81849998E+02 -0.29421E-05
 0.81900002E+02 -0.42197E-05
 0.81950005E+02 -0.49639E-05
 0.82000000E+02 -0.51489E-05
 0.82050003E+02 -0.46744E-05
 0.82099998E+02 -0.39702E-05
 0.82150002E+02 -0.31890E-05
 0.82200005E+02 -0.18595E-05
 0.82250000E+02 -0.55566E-06
 0.82300003E+02  0.51314E-06
 0.82349998E+02  0.13908E-05
 0.82400002E+02  0.19552E-05
 0.82450005E+02  0.28068E-05
 0.82500000E+02  0.37151E-05
 0.82550003E+02  0.42907E-05
 0.82599998E+02  0.42947E-05
 0.82650002E+02  0.39264E-05
 0.82700005E+02  0.33048E-05
 0.82750000E+02  0.16747E-05
 0.82800003E+02 -0.10331E-05
 0.82849998E+02 -0.38163E-05
 0.82900002E+02 -0.51773E-05
 0.82950005E+02 -0.44902E-05
 0.83000000E+02 -0.21148E-05
 0.83050003E+02  0.90886E-06
 0.83099998E+02  0.34010E-05
 0.83150002E+02  0.48051E-05
 0.83200005E+02  0.50295E-05
 0.83250000E+02  0.44547E-05
 0.83300003E+02  0.36217E-05
 0.83349998E+02  0.29060E-05
 0.83400002E+02  0.17456E-05
 0.83450005E+02 -0.13240E-06
 0.83500000E+02 -0.16749E-05
 0.83550003E+02 -0.23234E-05
 0.83599998E+02 -0.26430E-05
 0.83650002E+02 -0.35263E-05
 0.83700005E+02 -0.50527E-05
 0.83750000E+02 -0.63182E-05
 0.83800003E+02 -0.61806E-05
 0.83849998E+02 -0.43102E-05
 0.83900002E+02 -0.14507E-05
 0.83950005E+02  0.13973E-05
 0.84000000E+02  0.34921E-05
 0.84050003E+02  0.45006E-05
 0.84099998E+02  0.39809E-05
 0.84150002E+02  0.23521E-05
 0.84200005E+02  0.43634E-06
 0.84250000E+02 -0.15437E-05
 0.84300003E+02 -0.33481E-05
 0.84349998E+02 -0.44147E-05
 0.84400002E+02 -0.34868E-05
 0.84450005E+02 -0.10410E-05
 0.84500000E+02  0.94269E-06
 0.84550003E+02  0.17717E-05
 0.84599998E+02  0.13397E-05
 0.84650002E+02  0.68321E-07
 0.84700005E+02 -0.86224E-06
 0.84750000E+02 -0.10285E-05
 0.84800003E+02 -0.68487E-06
 0.84849998E+02 -0.26314E-06
 0.84900002E+02 -0.10263E-06
 0.84950005E+02  0.59140E-06
 0.85000000E+02  0.17235E-05
 0.85050003E+02  0.24111E-05
 0.85099998E+02  0.22132E-05
 0.85150002E+02  0.13287E-05
 0.85200005E+02  0.14874E-05
 0.85250000E+02  0.21039E-05
 0.85300003E+02  0.17023E-05
 0.85349998E+02  0.79626E-06
 0.85400002E+02  0.31452E-06
 0.85450005E+02  0.93379E-06
 0.85500000E+02  0.15600E-05
 0.85550003E+02  0.17520E-05
 0.85599998E+02  0.16103E-05
 0.85650002E+02  0.42596E-06
 0.85700005E+02 -0.11156E-05
 0.85750000E+02 -0.20287E-05
 0.85800003E+02 -0.18829E-05
 0.85849998E+02 -0.71262E-06
 0.85900002E+02  0.74585E-06
 0.85950005E+02  0.18617E-05
 0.86000000E+02  0.22090E-05
 0.86050003E+02  0.15028E-05
 0.86099998E+02 -0.18933E-06
 0.86150002E+02 -0.24440E-05
 0.86200005E+02 -0.40338E-05
 0.86250000E+02 -0.42898E-05
 0.86300003E+02 -0.40708E-05
 0.86349998E+02 -0.35504E-05
 0.86400002E+02 -0.30078E-05
 0.86450005E+02 -0.27942E-05
 0.86500000E+02 -0.18405E-05
 0.86550003E+02 -0.64524E-06
 0.86599998E+02  0.10170E-06
 0.86650002E+02  0.12527E-05
 0.86700005E+02  0.27002E-05
 0.86750000E+02  0.39313E-05
 0.86800003E+02  0.44138E-05
 0.86849998E+02  0.38209E-05
 0.86900002E+02  0.25515E-05
 0.86950005E+02  0.11008E-05
 0.87000000E+02 -0.31928E-06
 0.87050003E+02 -0.11264E-05
 0.87099998E+02 -0.78053E-06
 0.87150002E+02 -0.36152E-06
 0.87200005E+02 -0.57173E-06
 0.87250000E+02 -0.68203E-06
 0.87300003E+02 -0.20482E-06
 0.87349998E+02  0.39090E-06
 0.87400002E+02  0.46616E-06
 0.87450005E+02 -0.47811E-08
 0.87500000E+02 -0.92349E-06
 0.87550003E+02 -0.20175E-05
 0.87599998E+02 -0.25077E-05
 0.87650002E+02 -0.17320E-05
 0.87700005E+02 -0.30692E-06
 0.87750000E+02  0.83664E-06
 0.87800003E+02  0.12659E-05
 0.87849998E+02  0.12095E-05
 0.87900002E+02  0.15185E-05
 0.87950005E+02  0.18619E-05
 0.88000000E+02  0.17612E-05
 0.88050003E+02  0.12752E-05
 0.88099998E+02  0.27398E-06
 0.88150002E+02 -0.95057E-06
 0.88200005E+02 -0.21265E-05
 0.88250000E+02 -0.26182E-05
 0.88300003E+02 -0.18652E-05
 0.88349998E+02 -0.49327E-06
 0.88400002E+02  0.65982E-06
 0.88450005E+02  0.12483E-05
 0.88500000E+02  0.14079E-05
 0.88550003E+02  0.15843E-05
 0.88599998E+02  0.17057E-05
 0.88650002E+02  0.15020E-05
 0.88700005E+02  0.10025E-05
 0.88750000E+02  0.42646E-07
 0.88800003E+02 -0.92307E-06
 0.88849998E+02 -0.16614E-05
 0.88900002E+02 -0.18682E-05
 0.88950005E+02 -0.12119E-05
 0.89000000E+02 -0.83567E-06
 0.89050003E+02 -0.58551E-06
 0.89099998E+02 -0.37864E-06
 0.89150002E+02 -0.63525E-06
 0.89200005E+02 -0.47900E-06
 0.89250000E+02  0.30770E-07
 0.89300003E+02  0.68268E-06
 0.89349998E+02  0.96828E-06
 0.89400002E+02  0.49344E-06
 0.89450005E+02 -0.11714E-06
 0.89500000E+02 -0.96667E-06
 0.89550003E+02 -0.16584E-05
 0.89599998E+02 -0.15087E-05
 0.89650002E+02 -0.84337E-06
 0.89700005E+02  0.65208E-07
 0.89750000E+02  0.10476E-05
 0.89800003E+02  0.15368E-05
 0.89849998E+02  0.10192E-05
 0.89900002E+02 -0.19666E-07
 0.89950005E+02 -0.10166E-05
 0.90000000E+02 -0.18468E-05
 0.90050003E+02 -0.19971E-05
 0.90099998E+02 -0.12987E-05
 0.90150002E+02 -0.95859E-07
 0.90200005E+02  0.11913E-05
 0.90250000E+02  0.22357E-05
 0.90300003E+02  0.32590E-05
 0.90349998E+02  0.41042E-05
 0.90400002E+02  0.38150E-05
 0.90450005E+02  0.27128E-05
 0.90500000E+02  0.18476E-05
 0.90550003E+02  0.10434E-05
 0.90599998E+02  0.46511E-07
 0.90650002E+02 -0.66382E-06
 0.90700005E+02 -0.58311E-06
 0.90750000E+02 -0.13124E-06
 0.90800003E+02  0.70232E-07
 0.90849998E+02  0.52504E-07
 0.90900002E+02 -0.31314E-06
 0.90950005E+02 -0.65720E-06
 0.91000000E+02 -0.75781E-06
 0.91050003E+02 -0.78608E-06
 0.91099998E+02 -0.56353E-06
 0.91150002E+02 -0.90192E-06
 0.91200005E+02 -0.19988E-05
 0.91250000E+02 -0.30629E-05
 0.91300003E+02 -0.33584E-05
 0.91349998E+02 -0.22261E-05
 0.91400002E+02 -0.75132E-06
 0.91450005E+02  0.21289E-06
 0.91500000E+02  0.59902E-06
 0.91550003E+02 -0.32268E-07
 0.91599998E+02 -0.12123E-05
 0.91650002E+02 -0.24234E-05
 0.91700005E+02 -0.28739E-05
 0.91750000E+02 -0.23660E-05
 0.91800003E+02 -0.18035E-05
 0.91849998E+02 -0.11908E-05
 0.91900002E+02 -0.79245E-06
 0.91950005E+02 -0.63603E-06
 0.92000000E+02 -0.16197E-06
 0.92050003E+02  0.45650E-06
 0.92099998E+02  0.10925E-05
 0.92150002E+02  0.18177E-05
 0.92200005E+02  0.24695E-05
 0.92250000E+02  0.26995E-05
 0.92300003E+02  0.30937E-05
 0.92349998E+02  0.41440E-05
 0.92400002E+02  0.54414E-05
 0.92450005E+02  0.61626E-05
 0.92500000E+02  0.51590E-05
 0.92550003E+02  0.33851E-05
 0.92599998E+02  0.19377E-05
 0.92650002E+02  0.54468E-06
 0.92700005E+02 -0.45893E-06
 0.92750000E+02 -0.11854E-05
 0.92800003E+02 -0.14811E-05
 0.92849998E+02 -0.14380E-05
 0.92900002E+02 -0.16375E-05
 0.92950005E+02 -0.19802E-05
 0.93000000E+02 -0.25030E-05
 0.93050003E+02 -0.27986E-05
 0.93099998E+02 -0.27660E-05
 0.93150002E+02 -0.27452E-05
 0.93200005E+02 -0.29126E-05
 0.93250000E+02 -0.31073E-05
 0.93300003E+02 -0.29969E-05
 0.93349998E+02 -0.25236E-05
 0.93400002E+02 -0.15054E-05
 0.93450005E+02 -0.51245E-06
 0.93500000E+02  0.17535E-06
 0.93550003E+02  0.54434E-06
 0.93599998E+02  0.49809E-06
 0.93650002E+02  0.66819E-06
 0.93700005E+02  0.13038E-05
 0.93750000E+02  0.22130E-05
 0.93800003E+02  0.28065E-05
 0.93849998E+02  0.27069E-05
 0.93900002E+02  0.19832E-05
 0.93950005E+02  0.11400E-05
 0.94000000E+02  0.71936E-06
 0.94050003E+02  0.44885E-06
 0.94099998E+02  0.44359E-07
 0.94150002E+02 -0.26406E-06
 0.94200005E+02  0.59718E-07
 0.94250000E+02  0.59502E-06
 0.94300003E+02  0.72041E-06
 0.94349998E+02  0.53501E-06
 0.94400002E+02 -0.46193E-07
 0.94450005E+02 -0.90019E-06
 0.94500000E+02 -0.18457E-05
 0.94550003E+02 -0.26734E-05
 0.94599998E+02 -0.29464E-05
 0.94650002E+02 -0.24206E-05
 0.94700005E+02 -0.10972E-05
 0.94750000E+02  0.51182E-06
 0.94800003E+02  0.15765E-05
 0.94849998E+02  0.18603E-05
 0.94900002E+02  0.15992E-05
 0.94950005E+02  0.12327E-05
 0.95000000E+02  0.10661E-05
 0.95050003E+02  0.77534E-06
 0.95099998E+02  0.16711E-06
 0.95150002E+02 -0.56645E-06
 0.95200005E+02 -0.92796E-06
 0.95250000E+02 -0.58991E-06
 0.95300003E+02  0.17606E-06
 0.95349998E+02  0.87614E-06
 0.95400002E+02  0.10970E-05
 0.95450005E+02  0.92741E-06
 0.95500000E+02  0.43490E-06
 0.95550003E+02 -0.13088E-06
 0.95599998E+02 -0.37935E-06
 0.95650002E+02 -0.49362E-06
 0.95700005E+02 -0.52445E-06
 0.95750000E+02 -0.44685E-06
 0.95800003E+02 -0.18045E-06
 0.95849998E+02  0.23127E-06
 0.95900002E+02  0.32783E-06
 0.95950005E+02  0.24034E-06
 0.96000000E+02 -0.32051E-08
 0.96050003E+02 -0.65011E-06
 0.96099998E+02 -0.11671E-05
 0.96150002E+02 -0.12376E-05
 0.96200005E+02 -0.72703E-06
 0.96250000E+02  0.19662E-06
 0.96300003E+02  0.88609E-06
 0.96349998E+02  0.10930E-05
 0.96400002E+02  0.57564E-06
 0.96450005E+02 -0.39923E-06
 0.96500000E+02 -0.12924E-05
 0.96550003E+02 -0.19688E-05
 0.96599998E+02 -0.23431E-05
 0.96650002E+02 -0.23175E-05
 0.96700005E+02 -0.17748E-05
 0.96750000E+02 -0.10300E-05
 0.96800003E+02 -0.37593E-06
 0.96849998E+02  0.33737E-06
 0.96900002E+02  0.92606E-06
 0.96950005E+02  0.11239E-05
 0.97000000E+02  0.12146E-05
 0.97050003E+02  0.16189E-05
 0.97099998E+02  0.22315E-05
 0.97150002E+02  0.24632E-05
 0.97200005E+02  0.21240E-05
 0.97250000E+02  0.15426E-05
 0.97300003E+02  0.10839E-05
 0.97349998E+02  0.84584E-06
 0.97400002E+02  0.67942E-06
 0.97450005E+02  0.45706E-06
 0.97500000E+02  0.72779E-07
 0.97550003E+02 -0.54299E-06
 0.97599998E+02 -0.14893E-05
 0.97650002E+02 -0.22526E-05
 0.97700005E+02 -0.22712E-05
 0.97750000E+02 -0.18185E-05
 0.97800003E+02 -0.10842E-05
 0.97849998E+02 -0.15027E-06
 0.97900002E+02  0.69934E-06
 0.97950005E+02  0.12979E-05
 0.98000000E+02  0.16038E-05
 0.98050003E+02  0.17654E-05
 0.98099998E+02  0.20581E-05
 0.98150002E+02  0.19888E-05
 0.98200005E+02  0.11977E-05
 0.98250000E+02  0.21929E-06
 0.98300003E+02 -0.84576E-06
 0.98349998E+02 -0.17795E-05
 0.98400002E+02 -0.21376E-05
 0.98450005E+02 -0.18124E-05
 0.98500000E+02 -0.12031E-05
 0.98550003E+02 -0.86172E-06
 0.98599998E+02 -0.62082E-06
 0.98650002E+02 -0.52652E-06
 0.98700005E+02 -0.39092E-06
 0.98750000E+02 -0.75104E-09
 0.98800003E+02  0.38164E-06
 0.98849998E+02  0.77116E-06
 0.98900002E+02  0.94843E-06
 0.98950005E+02  0.10498E-05
 0.99000000E+02  0.10887E-05
 0.99050003E+02  0.69493E-06
 0.99099998E+02  0.79144E-07
 0.99150002E+02 -0.44284E-06
 0.99200005E+02 -0.99242E-06
 0.99250000E+02 -0.15678E-05
 0.99300003E+02 -0.18683E-05
 0.99349998E+02 -0.18287E-05
 0.99400002E+02 -0.12119E-05
 0.99450005E+02 -0.21652E-06
 0.99500000E+02  0.49287E-06
 0.99550003E+02  0.64546E-06
 0.99599998E+02  0.34741E-06
 0.99650002E+02  0.15296E-06
 0.99700005E+02  0.56658E-06
 0.99750000E+02  0.14018E-05
 0.99800003E+02  0.19900E-05
 0.99849998E+02  0.20374E-05
 0.99900002E+02  0.15551E-05
 0.99950005E+02  0.64369E-06
 0.10000000E+03 -0.17548E-06
