-0.19996643E-01  0.25040E-06
 0.30003358E-01  0.15631E-06
 0.80003358E-01  0.86998E-07
 0.13000336E+00  0.26800E-07
 0.18000336E+00  0.50497E-07
 0.23000336E+00 -0.19531E-07
 0.28000337E+00 -0.40586E-09
 0.33000335E+00 -0.71267E-07
 0.38000336E+00 -0.87513E-07
 0.43000337E+00 -0.20475E-07
 0.48000336E+00 -0.38702E-07
 0.53000337E+00 -0.55046E-08
 0.58000338E+00 -0.87224E-07
 0.63000339E+00  0.38507E-08
 0.68000335E+00 -0.34736E-07
 0.73000336E+00 -0.10922E-06
 0.78000337E+00 -0.36401E-07
 0.83000338E+00 -0.11490E-06
 0.88000339E+00 -0.38635E-07
 0.93000335E+00 -0.55057E-07
 0.98000336E+00 -0.63952E-07
 0.10300034E+01  0.11479E-07
 0.10800034E+01 -0.57251E-07
 0.11300033E+01 -0.48188E-07
 0.11800034E+01  0.64571E-08
 0.12300034E+01 -0.25463E-07
 0.12800034E+01 -0.34738E-07
 0.13300034E+01  0.32531E-07
 0.13800033E+01 -0.16465E-07
 0.14300034E+01 -0.30252E-07
 0.14800034E+01 -0.27513E-07
 0.15300034E+01  0.19029E-07
 0.15800034E+01  0.58491E-07
 0.16300033E+01  0.18621E-07
 0.16800034E+01  0.86253E-07
 0.17300034E+01  0.24421E-07
 0.17800034E+01  0.46865E-08
 0.18300034E+01  0.27862E-07
 0.18800033E+01  0.38498E-07
 0.19300034E+01  0.29892E-07
 0.19800034E+01 -0.14635E-07
 0.20300033E+01  0.56661E-07
 0.20800035E+01  0.31358E-08
 0.21300035E+01 -0.15529E-07
 0.21800034E+01  0.28260E-07
 0.22300034E+01 -0.45798E-07
 0.22800033E+01 -0.62957E-07
 0.23300035E+01 -0.20759E-07
 0.23800035E+01  0.25082E-07
 0.24300034E+01 -0.11992E-07
 0.24800034E+01 -0.16503E-07
 0.25300033E+01  0.49174E-07
 0.25800035E+01  0.16918E-07
 0.26300035E+01  0.18348E-07
 0.26800034E+01  0.38083E-07
 0.27300034E+01  0.28980E-07
 0.27800033E+01 -0.67245E-09
 0.28300035E+01  0.44425E-07
 0.28800035E+01  0.74952E-07
 0.29300034E+01  0.25642E-07
 0.29800034E+01  0.59599E-07
 0.30300033E+01  0.55899E-07
 0.30800035E+01  0.20785E-07
 0.31300035E+01  0.30814E-07
 0.31800034E+01  0.46707E-07
 0.32300034E+01  0.23306E-07
 0.32800033E+01  0.23137E-07
 0.33300035E+01 -0.13446E-07
 0.33800035E+01  0.34996E-07
 0.34300034E+01  0.46541E-07
 0.34800034E+01 -0.66376E-07
 0.35300033E+01  0.50042E-08
 0.35800035E+01 -0.17423E-08
 0.36300035E+01 -0.63226E-07
 0.36800034E+01 -0.47047E-07
 0.37300034E+01 -0.33289E-07
 0.37800033E+01  0.13224E-07
 0.38300035E+01 -0.16100E-07
 0.38800035E+01 -0.36399E-07
 0.39300034E+01 -0.67582E-07
 0.39800034E+01 -0.11876E-06
 0.40300035E+01 -0.31752E-08
 0.40800033E+01  0.33409E-07
 0.41300035E+01  0.47345E-09
 0.41800036E+01  0.71644E-08
 0.42300034E+01 -0.44825E-07
 0.42800035E+01 -0.49102E-07
 0.43300033E+01 -0.36760E-07
 0.43800035E+01  0.59403E-08
 0.44300036E+01  0.31258E-07
 0.44800034E+01  0.39811E-07
 0.45300035E+01  0.14644E-07
 0.45800033E+01 -0.33311E-07
 0.46300035E+01 -0.30356E-07
 0.46800036E+01 -0.41372E-08
 0.47300034E+01  0.21366E-07
 0.47800035E+01  0.73579E-08
 0.48300033E+01 -0.16144E-07
 0.48800035E+01 -0.49416E-07
 0.49300036E+01  0.25525E-07
 0.49800034E+01 -0.96316E-08
 0.50300035E+01 -0.25835E-07
 0.50800033E+01  0.58557E-07
 0.51300035E+01 -0.76247E-07
 0.51800036E+01 -0.22488E-07
 0.52300034E+01  0.33294E-07
 0.52800035E+01 -0.43424E-07
 0.53300033E+01  0.11835E-08
 0.53800035E+01  0.36860E-07
 0.54300036E+01  0.28529E-07
 0.54800034E+01  0.21931E-08
 0.55300035E+01  0.39638E-07
 0.55800033E+01  0.40574E-07
 0.56300035E+01 -0.16198E-07
 0.56800036E+01 -0.75580E-07
 0.57300034E+01 -0.49500E-07
 0.57800035E+01 -0.16860E-07
 0.58300033E+01  0.10508E-08
 0.58800035E+01  0.40979E-08
 0.59300036E+01 -0.46003E-07
 0.59800034E+01 -0.56535E-07
 0.60300035E+01 -0.26916E-07
 0.60800033E+01  0.67057E-07
 0.61300035E+01  0.33607E-07
 0.61800036E+01  0.24574E-07
 0.62300034E+01  0.49036E-07
 0.62800035E+01 -0.68563E-08
 0.63300033E+01  0.19521E-07
 0.63800035E+01 -0.10489E-07
 0.64300036E+01  0.89057E-08
 0.64800034E+01  0.27394E-07
 0.65300035E+01 -0.38152E-07
 0.65800033E+01  0.20359E-07
 0.66300035E+01  0.18848E-07
 0.66800036E+01  0.22731E-07
 0.67300034E+01  0.34536E-07
 0.67800035E+01 -0.15974E-07
 0.68300033E+01  0.90174E-08
 0.68800035E+01 -0.25813E-07
 0.69300036E+01 -0.54933E-08
 0.69800034E+01  0.41801E-07
 0.70300035E+01  0.54054E-07
 0.70800033E+01 -0.64916E-08
 0.71300035E+01 -0.17346E-07
 0.71800036E+01  0.25629E-07
 0.72300034E+01  0.61700E-08
 0.72800035E+01  0.57255E-07
 0.73300033E+01  0.18617E-08
 0.73800035E+01 -0.30632E-07
 0.74300036E+01  0.13061E-07
 0.74800034E+01 -0.41320E-08
 0.75300035E+01 -0.17214E-07
 0.75800033E+01  0.59336E-07
 0.76300035E+01  0.41915E-08
 0.76800036E+01 -0.38276E-07
 0.77300034E+01  0.59993E-08
 0.77800035E+01 -0.89036E-07
 0.78300033E+01 -0.27751E-08
 0.78800035E+01  0.17757E-07
 0.79300036E+01 -0.34961E-07
 0.79800034E+01  0.54997E-07
 0.80300035E+01  0.13177E-07
 0.80800037E+01 -0.27436E-07
 0.81300039E+01 -0.74594E-09
 0.81800032E+01  0.23991E-07
 0.82300034E+01  0.22412E-07
 0.82800035E+01 -0.49636E-07
 0.83300037E+01  0.17963E-07
 0.83800039E+01 -0.77677E-08
 0.84300032E+01 -0.76168E-07
 0.84800034E+01  0.29722E-07
 0.85300035E+01 -0.27304E-07
 0.85800037E+01 -0.30251E-07
 0.86300039E+01  0.42706E-07
 0.86800032E+01 -0.16591E-07
 0.87300034E+01 -0.15090E-07
 0.87800035E+01  0.32843E-07
 0.88300037E+01  0.64345E-08
 0.88800039E+01  0.11263E-07
 0.89300032E+01  0.36135E-07
 0.89800034E+01 -0.17472E-08
 0.90300035E+01 -0.32667E-07
 0.90800037E+01  0.12199E-07
 0.91300039E+01  0.17314E-07
 0.91800032E+01 -0.44858E-07
 0.92300034E+01 -0.39367E-08
 0.92800035E+01  0.10290E-07
 0.93300037E+01 -0.23192E-07
 0.93800039E+01 -0.85830E-08
 0.94300032E+01  0.10779E-08
 0.94800034E+01 -0.15663E-08
 0.95300035E+01 -0.45313E-07
 0.95800037E+01 -0.23972E-07
 0.96300039E+01  0.12729E-07
 0.96800032E+01 -0.24439E-07
 0.97300034E+01 -0.12891E-07
 0.97800035E+01 -0.45432E-07
 0.98300037E+01 -0.65040E-07
 0.98800039E+01 -0.45334E-07
 0.99300032E+01 -0.10750E-07
 0.99800034E+01  0.65214E-07
 0.10030004E+02  0.80270E-08
 0.10080004E+02 -0.20939E-07
 0.10130004E+02  0.11456E-06
 0.10180003E+02  0.83634E-07
 0.10230003E+02 -0.15336E-07
 0.10280004E+02  0.47360E-07
 0.10330004E+02  0.19307E-07
 0.10380004E+02  0.52684E-07
 0.10430003E+02  0.32058E-07
 0.10480003E+02  0.22621E-07
 0.10530004E+02  0.10865E-06
 0.10580004E+02  0.32199E-09
 0.10630004E+02  0.52235E-08
 0.10680003E+02  0.43360E-07
 0.10730003E+02  0.62432E-08
 0.10780004E+02  0.18941E-07
 0.10830004E+02  0.48724E-08
 0.10880004E+02 -0.52289E-07
 0.10930003E+02 -0.37798E-07
 0.10980003E+02 -0.22284E-07
 0.11030004E+02 -0.23675E-07
 0.11080004E+02 -0.39774E-07
 0.11130004E+02 -0.40538E-07
 0.11180003E+02 -0.95209E-08
 0.11230003E+02 -0.78389E-07
 0.11280004E+02 -0.27531E-07
 0.11330004E+02  0.24807E-07
 0.11380004E+02  0.17785E-07
 0.11430003E+02  0.15074E-08
 0.11480003E+02 -0.31335E-07
 0.11530004E+02 -0.22427E-07
 0.11580004E+02 -0.61466E-07
 0.11630004E+02 -0.48540E-07
 0.11680003E+02 -0.15661E-07
 0.11730003E+02 -0.20372E-07
 0.11780004E+02 -0.20165E-07
 0.11830004E+02 -0.20005E-07
 0.11880004E+02 -0.17101E-07
 0.11930003E+02  0.60542E-07
 0.11980003E+02  0.71653E-07
 0.12030004E+02  0.97583E-08
 0.12080004E+02  0.42927E-08
 0.12130004E+02 -0.43323E-08
 0.12180003E+02 -0.22646E-07
 0.12230003E+02 -0.23819E-07
 0.12280004E+02  0.35037E-07
 0.12330004E+02  0.21028E-07
 0.12380004E+02  0.23485E-07
 0.12430003E+02  0.17206E-07
 0.12480003E+02 -0.25208E-07
 0.12530004E+02  0.43519E-07
 0.12580004E+02  0.10887E-07
 0.12630004E+02  0.27681E-07
 0.12680003E+02  0.93922E-07
 0.12730003E+02 -0.11198E-07
 0.12780004E+02 -0.17635E-07
 0.12830004E+02  0.23024E-07
 0.12880004E+02  0.74611E-08
 0.12930003E+02 -0.12669E-07
 0.12980003E+02 -0.38488E-07
 0.13030004E+02  0.25635E-07
 0.13080004E+02 -0.29419E-08
 0.13130004E+02 -0.61618E-07
 0.13180003E+02 -0.10743E-07
 0.13230003E+02  0.20589E-08
 0.13280004E+02  0.97060E-08
 0.13330004E+02  0.20197E-07
 0.13380004E+02  0.22251E-08
 0.13430003E+02  0.69506E-10
 0.13480003E+02 -0.31956E-07
 0.13530004E+02 -0.24862E-07
 0.13580004E+02 -0.14335E-07
 0.13630004E+02 -0.21553E-07
 0.13680003E+02  0.38019E-07
 0.13730003E+02  0.87127E-08
 0.13780004E+02 -0.14762E-07
 0.13830004E+02  0.63832E-08
 0.13880004E+02  0.56436E-07
 0.13930003E+02  0.41429E-07
 0.13980003E+02 -0.21617E-08
 0.14030004E+02  0.47246E-07
 0.14080004E+02  0.30575E-07
 0.14130004E+02 -0.21567E-07
 0.14180003E+02  0.43946E-09
 0.14230003E+02  0.51522E-07
 0.14280004E+02  0.17604E-08
 0.14330004E+02 -0.17563E-07
 0.14380004E+02 -0.18598E-07
 0.14430003E+02 -0.10606E-07
 0.14480003E+02  0.10492E-07
 0.14530004E+02  0.12039E-07
 0.14580004E+02 -0.24144E-07
 0.14630004E+02 -0.80027E-07
 0.14680003E+02 -0.39410E-07
 0.14730003E+02 -0.14403E-08
 0.14780004E+02 -0.20400E-08
 0.14830004E+02 -0.89400E-07
 0.14880004E+02 -0.78164E-07
 0.14930003E+02 -0.25685E-07
 0.14980003E+02 -0.50444E-07
 0.15030004E+02 -0.41788E-08
 0.15080004E+02 -0.82951E-09
 0.15130004E+02  0.14914E-07
 0.15180003E+02 -0.15181E-07
 0.15230003E+02  0.29604E-07
 0.15280004E+02  0.21333E-07
 0.15330004E+02 -0.63674E-07
 0.15380004E+02  0.27777E-07
 0.15430003E+02  0.15362E-07
 0.15480003E+02 -0.30043E-07
 0.15530004E+02 -0.78086E-08
 0.15580004E+02  0.34533E-07
 0.15630004E+02 -0.26632E-07
 0.15680003E+02 -0.64246E-08
 0.15730003E+02  0.23365E-07
 0.15780004E+02 -0.22273E-07
 0.15830004E+02  0.41364E-07
 0.15880004E+02  0.38269E-07
 0.15930003E+02  0.87722E-07
 0.15980003E+02  0.38781E-07
 0.16030005E+02 -0.13628E-07
 0.16080004E+02  0.13538E-07
 0.16130003E+02 -0.11621E-08
 0.16180004E+02  0.16560E-07
 0.16230003E+02  0.57234E-07
 0.16280005E+02  0.74345E-07
 0.16330004E+02 -0.10975E-07
 0.16380003E+02 -0.44123E-07
 0.16430004E+02 -0.28812E-07
 0.16480003E+02  0.99805E-08
 0.16530005E+02  0.77975E-08
 0.16580004E+02 -0.29244E-07
 0.16630003E+02  0.12614E-07
 0.16680004E+02 -0.96985E-08
 0.16730003E+02 -0.73140E-08
 0.16780005E+02  0.22258E-07
 0.16830004E+02 -0.43330E-08
 0.16880003E+02  0.68089E-07
 0.16930004E+02  0.70870E-07
 0.16980003E+02  0.56843E-08
 0.17030005E+02 -0.14695E-07
 0.17080004E+02  0.12011E-07
 0.17130003E+02  0.13452E-07
 0.17180004E+02  0.40750E-07
 0.17230003E+02  0.10512E-06
 0.17280005E+02 -0.11203E-09
 0.17330004E+02  0.35860E-07
 0.17380003E+02  0.66792E-07
 0.17430004E+02  0.15215E-07
 0.17480003E+02  0.35027E-07
 0.17530005E+02 -0.15162E-07
 0.17580004E+02 -0.11118E-07
 0.17630003E+02 -0.78457E-07
 0.17680004E+02 -0.10301E-06
 0.17730003E+02 -0.24930E-07
 0.17780005E+02 -0.45668E-07
 0.17830004E+02 -0.55299E-07
 0.17880003E+02 -0.69766E-07
 0.17930004E+02 -0.71848E-07
 0.17980003E+02 -0.41549E-07
 0.18030005E+02 -0.43050E-07
 0.18080004E+02 -0.91211E-08
 0.18130003E+02 -0.33977E-07
 0.18180004E+02 -0.46393E-07
 0.18230003E+02 -0.10594E-06
 0.18280005E+02 -0.73145E-07
 0.18330004E+02  0.20210E-07
 0.18380003E+02 -0.12049E-06
 0.18430004E+02  0.19884E-06
 0.18480003E+02 -0.12005E-06
 0.18530005E+02  0.12873E-06
 0.18580004E+02 -0.84538E-07
 0.18630003E+02 -0.87997E-07
 0.18680004E+02  0.24591E-06
 0.18730003E+02 -0.47365E-06
 0.18780005E+02  0.12615E-05
 0.18830004E+02  0.29275E-05
 0.18880003E+02  0.12491E-04
 0.18930004E+02  0.20118E-04
 0.18980003E+02  0.16311E-04
 0.19030005E+02 -0.16478E-05
 0.19080004E+02 -0.22519E-04
 0.19130003E+02 -0.25264E-04
 0.19180004E+02 -0.37779E-04
 0.19230003E+02 -0.30595E-04
 0.19280005E+02 -0.25157E-04
 0.19330004E+02 -0.19208E-04
 0.19380003E+02  0.43564E-04
 0.19430004E+02  0.63253E-04
 0.19480003E+02  0.55935E-04
 0.19530005E+02  0.29793E-04
 0.19580004E+02 -0.23194E-04
 0.19630003E+02 -0.74707E-05
 0.19680004E+02 -0.36948E-05
 0.19730003E+02 -0.18115E-04
 0.19780005E+02 -0.41457E-05
 0.19830004E+02 -0.41162E-04
 0.19880003E+02 -0.34911E-04
 0.19930004E+02 -0.67084E-05
 0.19980003E+02 -0.11906E-04
 0.20030005E+02  0.59229E-04
 0.20080004E+02  0.47212E-04
 0.20130003E+02  0.28302E-04
 0.20180004E+02  0.14923E-04
 0.20230003E+02 -0.75181E-04
 0.20280005E+02 -0.40015E-04
 0.20330004E+02 -0.25201E-04
 0.20380003E+02 -0.54783E-05
 0.20430004E+02  0.25641E-04
 0.20480003E+02 -0.22825E-04
 0.20530005E+02 -0.26285E-04
 0.20580004E+02  0.21768E-04
 0.20630003E+02  0.59469E-04
 0.20680004E+02  0.45808E-04
 0.20730003E+02  0.64807E-04
 0.20780005E+02  0.28736E-04
 0.20830004E+02 -0.18579E-04
 0.20880003E+02 -0.14339E-04
 0.20930004E+02 -0.83333E-04
 0.20980003E+02 -0.10142E-03
 0.21030005E+02 -0.39311E-04
 0.21080004E+02 -0.21584E-04
 0.21130003E+02  0.76555E-04
 0.21180004E+02  0.65536E-04
 0.21230003E+02 -0.85382E-04
 0.21280005E+02  0.10511E-03
 0.21330004E+02  0.16704E-03
 0.21380003E+02  0.39681E-04
 0.21430004E+02 -0.17131E-03
 0.21480003E+02 -0.32738E-03
 0.21530005E+02  0.16627E-03
 0.21580004E+02  0.66703E-04
 0.21630003E+02 -0.56621E-05
 0.21680004E+02  0.49667E-03
 0.21730003E+02 -0.22149E-03
 0.21780005E+02 -0.58045E-03
 0.21830004E+02  0.20166E-03
 0.21880003E+02  0.26160E-03
 0.21930004E+02 -0.47489E-04
 0.21980003E+02 -0.27685E-04
 0.22030005E+02 -0.15480E-03
 0.22080004E+02 -0.41865E-04
 0.22130003E+02  0.23864E-03
 0.22180004E+02  0.39142E-04
 0.22230003E+02 -0.16992E-04
 0.22280005E+02 -0.11388E-03
 0.22330004E+02 -0.16099E-03
 0.22380003E+02  0.11206E-03
 0.22430004E+02  0.42045E-04
 0.22480003E+02  0.12528E-04
 0.22530005E+02  0.26775E-04
 0.22580004E+02  0.13331E-03
 0.22630003E+02  0.22078E-04
 0.22680004E+02 -0.17012E-03
 0.22730003E+02  0.98038E-04
 0.22780005E+02  0.75558E-04
 0.22830004E+02 -0.16668E-04
 0.22880003E+02 -0.19591E-03
 0.22930004E+02 -0.25775E-03
 0.22980003E+02 -0.40394E-05
 0.23030005E+02  0.21152E-03
 0.23080004E+02  0.35616E-03
 0.23130003E+02 -0.96874E-05
 0.23180004E+02 -0.25693E-03
 0.23230003E+02 -0.18796E-03
 0.23280005E+02 -0.17630E-03
 0.23330004E+02  0.11887E-03
 0.23380003E+02  0.32072E-03
 0.23430004E+02 -0.50516E-04
 0.23480003E+02 -0.16062E-03
 0.23530005E+02  0.13919E-03
 0.23580004E+02 -0.37518E-04
 0.23630003E+02  0.64214E-05
 0.23680004E+02  0.13516E-03
 0.23730003E+02 -0.86491E-04
 0.23780005E+02 -0.67458E-04
 0.23830004E+02  0.36225E-04
 0.23880003E+02  0.12968E-03
 0.23930004E+02  0.18246E-03
 0.23980003E+02  0.12818E-03
 0.24030005E+02 -0.16798E-03
 0.24080004E+02 -0.32033E-03
 0.24130003E+02 -0.13603E-03
 0.24180004E+02 -0.18608E-04
 0.24230003E+02  0.11816E-03
 0.24280005E+02  0.11966E-03
 0.24330004E+02 -0.74004E-04
 0.24380003E+02 -0.53780E-04
 0.24430004E+02  0.11048E-03
 0.24480003E+02  0.10137E-03
 0.24530005E+02 -0.32594E-04
 0.24580004E+02 -0.12079E-03
 0.24630003E+02 -0.14732E-03
 0.24680004E+02 -0.15486E-03
 0.24730003E+02  0.68884E-04
 0.24780005E+02  0.25822E-03
 0.24830004E+02  0.11180E-03
 0.24880003E+02  0.11521E-03
 0.24930004E+02  0.50399E-08
 0.24980003E+02 -0.22138E-03
 0.25030005E+02  0.17471E-04
 0.25080004E+02  0.61501E-04
 0.25130003E+02 -0.66836E-05
 0.25180004E+02  0.10561E-03
 0.25230003E+02  0.75092E-06
 0.25280005E+02 -0.40448E-04
 0.25330004E+02 -0.11665E-03
 0.25380003E+02 -0.77432E-04
 0.25430004E+02  0.12934E-03
 0.25480003E+02 -0.13217E-03
 0.25530005E+02 -0.38447E-03
 0.25580004E+02 -0.78565E-04
 0.25630003E+02  0.12639E-03
 0.25680004E+02  0.24530E-03
 0.25730003E+02  0.36186E-03
 0.25780005E+02  0.17190E-03
 0.25830004E+02 -0.98953E-05
 0.25880003E+02 -0.16296E-03
 0.25930004E+02 -0.17464E-03
 0.25980003E+02 -0.10460E-04
 0.26030005E+02  0.12981E-03
 0.26080004E+02 -0.46389E-04
 0.26130003E+02 -0.14276E-03
 0.26180004E+02  0.47996E-04
 0.26230003E+02 -0.53831E-04
 0.26280005E+02 -0.30607E-04
 0.26330004E+02  0.22087E-03
 0.26380003E+02  0.13797E-03
 0.26430004E+02 -0.17053E-03
 0.26480003E+02 -0.29161E-03
 0.26530005E+02 -0.11165E-03
 0.26580004E+02  0.14320E-03
 0.26630003E+02  0.35513E-03
 0.26680004E+02  0.16751E-03
 0.26730003E+02 -0.37211E-03
 0.26780005E+02 -0.19683E-03
 0.26830004E+02  0.97373E-04
 0.26880003E+02 -0.57315E-04
 0.26930004E+02  0.13095E-03
 0.26980003E+02  0.74535E-04
 0.27030005E+02 -0.21083E-03
 0.27080004E+02  0.17122E-04
 0.27130003E+02  0.88610E-04
 0.27180004E+02 -0.11439E-03
 0.27230003E+02 -0.59851E-04
 0.27280005E+02 -0.98168E-04
 0.27330004E+02  0.54396E-04
 0.27380003E+02  0.27838E-03
 0.27430004E+02  0.18137E-03
 0.27480003E+02  0.22171E-03
 0.27530005E+02  0.85914E-04
 0.27580004E+02  0.12504E-04
 0.27630003E+02  0.14000E-03
 0.27680004E+02  0.21157E-04
 0.27730003E+02 -0.35331E-03
 0.27780005E+02 -0.68905E-03
 0.27830004E+02 -0.47695E-03
 0.27880003E+02  0.78532E-04
 0.27930004E+02  0.39822E-03
 0.27980003E+02  0.29497E-03
 0.28030005E+02  0.12239E-03
 0.28080004E+02 -0.11552E-03
 0.28130003E+02 -0.93116E-04
 0.28180004E+02  0.22644E-03
 0.28230003E+02  0.10672E-03
 0.28280005E+02  0.10633E-03
 0.28330004E+02  0.14911E-03
 0.28380003E+02 -0.61075E-04
 0.28430004E+02 -0.64675E-04
 0.28480003E+02 -0.54306E-04
 0.28530005E+02 -0.82099E-04
 0.28580004E+02 -0.79499E-04
 0.28630003E+02 -0.35552E-03
 0.28680004E+02 -0.49793E-03
 0.28730003E+02  0.14261E-04
 0.28780005E+02  0.47384E-03
 0.28830004E+02  0.41398E-03
 0.28880003E+02 -0.17386E-04
 0.28930004E+02 -0.79896E-04
 0.28980003E+02  0.21748E-03
 0.29030005E+02  0.19660E-03
 0.29080004E+02 -0.25938E-04
 0.29130003E+02 -0.33025E-03
 0.29180004E+02 -0.39538E-03
 0.29230003E+02 -0.38349E-04
 0.29280005E+02  0.38868E-03
 0.29330004E+02  0.25804E-03
 0.29380003E+02 -0.20424E-03
 0.29430004E+02 -0.17657E-03
 0.29480003E+02 -0.19386E-04
 0.29530005E+02 -0.74262E-04
 0.29580004E+02 -0.78028E-06
 0.29630003E+02  0.11576E-03
 0.29680004E+02  0.15615E-03
 0.29730003E+02  0.34664E-04
 0.29780005E+02 -0.12046E-03
 0.29830004E+02  0.87998E-05
 0.29880003E+02 -0.10552E-03
 0.29930004E+02 -0.17277E-03
 0.29980003E+02  0.15839E-03
 0.30030005E+02  0.15002E-03
 0.30080004E+02  0.48492E-04
 0.30130003E+02  0.74482E-04
 0.30180004E+02  0.11567E-03
 0.30230003E+02 -0.76590E-04
 0.30280005E+02 -0.29139E-03
 0.30330004E+02 -0.89165E-04
 0.30380003E+02  0.58078E-04
 0.30430004E+02  0.84700E-04
 0.30480003E+02  0.14281E-04
 0.30530005E+02  0.11238E-04
 0.30580004E+02  0.97796E-04
 0.30630003E+02  0.10423E-03
 0.30680004E+02  0.17822E-03
 0.30730003E+02  0.43236E-04
 0.30780005E+02 -0.73225E-04
 0.30830004E+02 -0.14030E-03
 0.30880003E+02 -0.39156E-03
 0.30930004E+02 -0.50743E-03
 0.30980003E+02 -0.32861E-03
 0.31030005E+02  0.14692E-03
 0.31080004E+02  0.42060E-03
 0.31130003E+02  0.54374E-03
 0.31180004E+02  0.50296E-03
 0.31230003E+02 -0.66734E-04
 0.31280005E+02 -0.25543E-03
 0.31330004E+02  0.33708E-05
 0.31380003E+02  0.77278E-05
 0.31430004E+02 -0.16634E-03
 0.31480003E+02 -0.28745E-03
 0.31530005E+02 -0.16055E-03
 0.31580004E+02  0.66671E-04
 0.31630003E+02  0.22640E-03
 0.31680004E+02  0.20392E-03
 0.31730003E+02  0.99226E-04
 0.31780005E+02 -0.39845E-04
 0.31830004E+02 -0.14480E-03
 0.31880003E+02 -0.89973E-04
 0.31930004E+02 -0.16936E-03
 0.31980003E+02  0.40485E-04
 0.32030003E+02  0.35491E-03
 0.32080006E+02  0.22735E-04
 0.32130005E+02 -0.20082E-03
 0.32180004E+02 -0.13630E-03
 0.32230003E+02 -0.27147E-04
 0.32280003E+02  0.21972E-03
 0.32330006E+02 -0.10169E-03
 0.32380005E+02 -0.34576E-03
 0.32430004E+02  0.35482E-05
 0.32480003E+02 -0.55917E-04
 0.32530003E+02  0.78538E-04
 0.32580006E+02  0.51361E-03
 0.32630005E+02  0.21907E-03
 0.32680004E+02 -0.21491E-03
 0.32730003E+02 -0.16141E-03
 0.32780003E+02 -0.11856E-04
 0.32830006E+02 -0.16757E-03
 0.32880005E+02 -0.22058E-04
 0.32930004E+02  0.26534E-03
 0.32980003E+02  0.66887E-06
 0.33030003E+02 -0.14898E-03
 0.33080006E+02 -0.12673E-03
 0.33130005E+02  0.11657E-03
 0.33180004E+02  0.18384E-03
 0.33230003E+02 -0.41848E-04
 0.33280003E+02 -0.28864E-04
 0.33330006E+02 -0.46732E-04
 0.33380005E+02  0.96224E-04
 0.33430004E+02 -0.18667E-03
 0.33480003E+02 -0.36958E-03
 0.33530003E+02  0.19281E-04
 0.33580006E+02  0.12893E-03
 0.33630005E+02 -0.32256E-05
 0.33680004E+02 -0.19880E-04
 0.33730003E+02  0.33048E-03
 0.33780003E+02  0.84164E-04
 0.33830006E+02  0.12113E-04
 0.33880005E+02  0.46286E-03
 0.33930004E+02  0.49325E-03
 0.33980003E+02  0.17338E-03
 0.34030003E+02 -0.68932E-03
 0.34080006E+02 -0.89126E-03
 0.34130005E+02 -0.43268E-03
 0.34180004E+02  0.10112E-03
 0.34230003E+02  0.58118E-03
 0.34280003E+02  0.51998E-03
 0.34330006E+02  0.32175E-03
 0.34380005E+02  0.17092E-03
 0.34430004E+02 -0.28538E-03
 0.34480003E+02 -0.96231E-03
 0.34530003E+02 -0.10297E-02
 0.34580006E+02 -0.77024E-03
 0.34630005E+02  0.33388E-03
 0.34680004E+02  0.14853E-02
 0.34730003E+02  0.13761E-02
 0.34780003E+02  0.96490E-03
 0.34830006E+02 -0.94984E-04
 0.34880005E+02 -0.75883E-03
 0.34930004E+02 -0.10241E-02
 0.34980003E+02 -0.11025E-02
 0.35030003E+02 -0.25424E-03
 0.35080006E+02  0.23805E-03
 0.35130005E+02  0.72918E-03
 0.35180004E+02  0.89950E-03
 0.35230003E+02  0.43894E-03
 0.35280003E+02 -0.34675E-04
 0.35330006E+02 -0.95143E-03
 0.35380005E+02 -0.14136E-02
 0.35430004E+02 -0.70351E-03
 0.35480003E+02  0.58857E-03
 0.35530003E+02  0.12803E-02
 0.35580006E+02  0.10599E-02
 0.35630005E+02  0.52321E-03
 0.35680004E+02 -0.29333E-03
 0.35730003E+02 -0.71762E-03
 0.35780003E+02 -0.35140E-03
 0.35830006E+02 -0.11854E-03
 0.35880005E+02 -0.35776E-03
 0.35930004E+02 -0.47193E-03
 0.35980003E+02  0.71024E-05
 0.36030003E+02  0.67208E-03
 0.36080006E+02  0.34676E-03
 0.36130005E+02 -0.83372E-04
 0.36180004E+02 -0.18808E-03
 0.36230003E+02 -0.35903E-03
 0.36280003E+02  0.38837E-03
 0.36330006E+02  0.75027E-03
 0.36380005E+02  0.17725E-03
 0.36430004E+02 -0.19973E-03
 0.36480003E+02 -0.26965E-03
 0.36530003E+02 -0.32576E-03
 0.36580006E+02 -0.41922E-03
 0.36630005E+02 -0.26150E-03
 0.36680004E+02 -0.62251E-04
 0.36730003E+02  0.19180E-03
 0.36780003E+02  0.46323E-03
 0.36830006E+02  0.20177E-03
 0.36880005E+02 -0.46419E-03
 0.36930004E+02 -0.78452E-03
 0.36980003E+02 -0.31605E-03
 0.37030003E+02  0.78609E-03
 0.37080006E+02  0.13374E-02
 0.37130005E+02  0.15721E-02
 0.37180004E+02  0.97513E-03
 0.37230003E+02 -0.88617E-03
 0.37280003E+02 -0.15073E-02
 0.37330006E+02 -0.15088E-02
 0.37380005E+02 -0.11768E-02
 0.37430004E+02 -0.52290E-03
 0.37480003E+02  0.89974E-04
 0.37530003E+02  0.16432E-02
 0.37580006E+02  0.20748E-02
 0.37630005E+02  0.13765E-02
 0.37680004E+02  0.25244E-03
 0.37730003E+02 -0.12031E-02
 0.37780003E+02 -0.22404E-02
 0.37830006E+02 -0.22629E-02
 0.37880005E+02 -0.66988E-03
 0.37930004E+02  0.83035E-03
 0.37980003E+02  0.20046E-02
 0.38030003E+02  0.18238E-02
 0.38080006E+02  0.43000E-03
 0.38130005E+02  0.46514E-05
 0.38180004E+02 -0.85350E-03
 0.38230003E+02 -0.18411E-02
 0.38280003E+02 -0.16073E-02
 0.38330006E+02 -0.56051E-03
 0.38380005E+02  0.12149E-02
 0.38430004E+02  0.23714E-02
 0.38480003E+02  0.14434E-02
 0.38530003E+02 -0.76142E-04
 0.38580006E+02 -0.50020E-03
 0.38630005E+02 -0.32383E-03
 0.38680004E+02 -0.19473E-03
 0.38730003E+02 -0.72190E-03
 0.38780003E+02 -0.13840E-02
 0.38830006E+02 -0.82615E-03
 0.38880005E+02 -0.23187E-03
 0.38930004E+02  0.10105E-02
 0.38980003E+02  0.23258E-02
 0.39030003E+02  0.76476E-03
 0.39080006E+02 -0.52942E-03
 0.39130005E+02 -0.23154E-03
 0.39180004E+02 -0.36859E-03
 0.39230003E+02 -0.11262E-02
 0.39280003E+02 -0.13598E-02
 0.39330006E+02  0.12109E-03
 0.39380005E+02  0.13758E-02
 0.39430004E+02  0.12241E-02
 0.39480003E+02  0.33197E-03
 0.39530003E+02 -0.55684E-03
 0.39580006E+02 -0.12355E-02
 0.39630005E+02 -0.11706E-02
 0.39680004E+02 -0.58541E-04
 0.39730003E+02  0.72676E-03
 0.39780003E+02  0.78925E-03
 0.39830006E+02  0.49107E-03
 0.39880005E+02  0.31410E-03
 0.39930004E+02  0.53253E-03
 0.39980003E+02  0.79215E-03
 0.40030003E+02  0.81724E-03
 0.40080006E+02  0.11421E-03
 0.40130005E+02 -0.14664E-02
 0.40180004E+02 -0.24071E-02
 0.40230003E+02 -0.12112E-02
 0.40280003E+02  0.37378E-03
 0.40330006E+02  0.63125E-03
 0.40380005E+02  0.73194E-03
 0.40430004E+02  0.26595E-03
 0.40480003E+02 -0.29018E-03
 0.40530003E+02  0.26351E-03
 0.40580006E+02  0.77356E-03
 0.40630005E+02  0.81831E-03
 0.40680004E+02  0.63702E-04
 0.40730003E+02 -0.31080E-03
 0.40780003E+02 -0.54735E-04
 0.40830006E+02 -0.62157E-03
 0.40880005E+02 -0.11354E-02
 0.40930004E+02 -0.93284E-03
 0.40980003E+02 -0.70524E-03
 0.41030003E+02 -0.78935E-04
 0.41080006E+02  0.10495E-02
 0.41130005E+02  0.13194E-02
 0.41180004E+02  0.11742E-02
 0.41230003E+02  0.98279E-03
 0.41280003E+02  0.19154E-03
 0.41330006E+02 -0.33711E-03
 0.41380005E+02 -0.54998E-03
 0.41430004E+02 -0.67735E-03
 0.41480003E+02 -0.57053E-03
 0.41530003E+02 -0.66251E-03
 0.41580006E+02 -0.58860E-03
 0.41630005E+02 -0.16711E-03
 0.41680004E+02  0.21661E-03
 0.41730003E+02  0.28302E-03
 0.41780003E+02  0.23526E-03
 0.41830006E+02  0.30261E-03
 0.41880005E+02  0.44896E-04
 0.41930004E+02  0.15419E-03
 0.41980003E+02  0.49212E-03
 0.42030003E+02  0.31694E-04
 0.42080006E+02 -0.44620E-03
 0.42130005E+02 -0.41917E-03
 0.42180004E+02 -0.37239E-03
 0.42230003E+02 -0.26416E-03
 0.42280003E+02  0.69562E-04
 0.42330006E+02  0.52889E-03
 0.42380005E+02  0.11316E-02
 0.42430004E+02  0.12790E-02
 0.42480003E+02  0.59817E-03
 0.42530003E+02 -0.73483E-04
 0.42580006E+02 -0.35457E-03
 0.42630005E+02 -0.57177E-03
 0.42680004E+02 -0.10193E-02
 0.42730003E+02 -0.12581E-02
 0.42780003E+02 -0.79532E-03
 0.42830006E+02 -0.21507E-03
 0.42880005E+02  0.23089E-04
 0.42930004E+02  0.69962E-04
 0.42980003E+02  0.55112E-03
 0.43030003E+02  0.49786E-03
 0.43080006E+02 -0.29933E-03
 0.43130005E+02 -0.51539E-03
 0.43180004E+02 -0.42304E-03
 0.43230003E+02  0.35239E-03
 0.43280003E+02  0.84584E-03
 0.43330006E+02  0.69755E-03
 0.43380005E+02  0.10180E-02
 0.43430004E+02  0.10326E-02
 0.43480003E+02  0.91157E-03
 0.43530003E+02  0.75687E-03
 0.43580006E+02 -0.37128E-03
 0.43630005E+02 -0.16753E-02
 0.43680004E+02 -0.16275E-02
 0.43730003E+02 -0.85966E-03
 0.43780003E+02 -0.23275E-03
 0.43830006E+02  0.95146E-04
 0.43880005E+02  0.93941E-04
 0.43930004E+02 -0.24248E-03
 0.43980003E+02 -0.55888E-03
 0.44030003E+02 -0.79078E-04
 0.44080006E+02  0.20794E-03
 0.44130005E+02  0.10175E-03
 0.44180004E+02  0.47943E-03
 0.44230003E+02  0.73733E-03
 0.44280003E+02  0.25484E-03
 0.44330006E+02  0.10780E-03
 0.44380005E+02  0.64271E-03
 0.44430004E+02  0.69372E-03
 0.44480003E+02  0.42317E-03
 0.44530003E+02 -0.32861E-03
 0.44580006E+02 -0.11051E-02
 0.44630005E+02 -0.10024E-02
 0.44680004E+02 -0.41090E-03
 0.44730003E+02  0.54142E-03
 0.44780003E+02  0.95062E-03
 0.44830006E+02  0.43756E-03
 0.44880005E+02 -0.39686E-03
 0.44930004E+02 -0.77392E-03
 0.44980003E+02 -0.29570E-03
 0.45030003E+02  0.85850E-04
 0.45080006E+02 -0.68581E-04
 0.45130005E+02 -0.29422E-03
 0.45180004E+02 -0.44478E-03
 0.45230003E+02 -0.29629E-03
 0.45280003E+02  0.28116E-03
 0.45330006E+02  0.60988E-03
 0.45380005E+02  0.55189E-03
 0.45430004E+02  0.39570E-03
 0.45480003E+02  0.10696E-03
 0.45530003E+02 -0.30051E-03
 0.45580006E+02 -0.38914E-03
 0.45630005E+02 -0.12346E-03
 0.45680004E+02 -0.38718E-04
 0.45730003E+02  0.23778E-03
 0.45780003E+02  0.67804E-03
 0.45830006E+02  0.77043E-03
 0.45880005E+02  0.53706E-03
 0.45930004E+02 -0.13800E-03
 0.45980003E+02 -0.81449E-03
 0.46030003E+02 -0.94452E-03
 0.46080006E+02 -0.84772E-03
 0.46130005E+02 -0.63549E-03
 0.46180004E+02 -0.32419E-03
 0.46230003E+02 -0.84095E-04
 0.46280003E+02  0.24253E-04
 0.46330006E+02  0.22022E-03
 0.46380005E+02  0.86828E-03
 0.46430004E+02  0.12283E-02
 0.46480003E+02  0.10272E-02
 0.46530003E+02  0.72838E-03
 0.46580006E+02  0.39720E-03
 0.46630005E+02  0.86098E-04
 0.46680004E+02 -0.31014E-03
 0.46730003E+02 -0.59282E-03
 0.46780003E+02 -0.10084E-02
 0.46830006E+02 -0.14433E-02
 0.46880005E+02 -0.15253E-02
 0.46930004E+02 -0.12928E-02
 0.46980003E+02 -0.52089E-03
 0.47030003E+02  0.35939E-03
 0.47080006E+02  0.10520E-02
 0.47130005E+02  0.13809E-02
 0.47180004E+02  0.12886E-02
 0.47230003E+02  0.10389E-02
 0.47280003E+02  0.81069E-03
 0.47330006E+02  0.65156E-03
 0.47380005E+02  0.24804E-03
 0.47430004E+02  0.81586E-04
 0.47480003E+02  0.82686E-05
 0.47530003E+02 -0.52660E-03
 0.47580006E+02 -0.81468E-03
 0.47630005E+02 -0.10612E-02
 0.47680004E+02 -0.13598E-02
 0.47730003E+02 -0.10834E-02
 0.47780003E+02 -0.41296E-03
 0.47830006E+02  0.37022E-03
 0.47880005E+02  0.72676E-03
 0.47930004E+02  0.56901E-03
 0.47980003E+02  0.26279E-03
 0.48030003E+02 -0.97129E-04
 0.48080006E+02 -0.20776E-03
 0.48130005E+02 -0.19463E-03
 0.48180004E+02 -0.20041E-03
 0.48230003E+02  0.97933E-04
 0.48280003E+02  0.38370E-03
 0.48330006E+02  0.20388E-03
 0.48380005E+02  0.95731E-04
 0.48430004E+02  0.40145E-03
 0.48480003E+02  0.80686E-03
 0.48530003E+02  0.10356E-02
 0.48580006E+02  0.82337E-03
 0.48630005E+02  0.26547E-03
 0.48680004E+02 -0.35551E-03
 0.48730003E+02 -0.74666E-03
 0.48780003E+02 -0.77013E-03
 0.48830006E+02 -0.91943E-03
 0.48880005E+02 -0.11325E-02
 0.48930004E+02 -0.99341E-03
 0.48980003E+02 -0.70638E-03
 0.49030003E+02 -0.16081E-03
 0.49080006E+02  0.57144E-03
 0.49130005E+02  0.10306E-02
 0.49180004E+02  0.10687E-02
 0.49230003E+02  0.68884E-03
 0.49280003E+02  0.10282E-03
 0.49330006E+02 -0.45577E-03
 0.49380005E+02 -0.69418E-03
 0.49430004E+02 -0.22133E-03
 0.49480003E+02  0.55145E-03
 0.49530003E+02  0.92437E-03
 0.49580006E+02  0.85553E-03
 0.49630005E+02  0.35924E-03
 0.49680004E+02 -0.34320E-03
 0.49730003E+02 -0.86374E-03
 0.49780003E+02 -0.10616E-02
 0.49830006E+02 -0.84940E-03
 0.49880005E+02 -0.36539E-03
 0.49930004E+02  0.11560E-03
 0.49980003E+02  0.37331E-03
 0.50030003E+02  0.32125E-03
 0.50080006E+02  0.35052E-03
 0.50130005E+02  0.74973E-03
 0.50180004E+02  0.96358E-03
 0.50230003E+02  0.60258E-03
 0.50280003E+02 -0.13709E-03
 0.50330006E+02 -0.92794E-03
 0.50380005E+02 -0.14044E-02
 0.50430004E+02 -0.13691E-02
 0.50480003E+02 -0.76734E-03
 0.50530003E+02  0.95130E-04
 0.50580006E+02  0.82604E-03
 0.50630005E+02  0.12361E-02
 0.50680004E+02  0.12432E-02
 0.50730003E+02  0.77309E-03
 0.50780003E+02  0.61722E-04
 0.50830006E+02 -0.38492E-03
 0.50880005E+02 -0.57172E-03
 0.50930004E+02 -0.51017E-03
 0.50980003E+02 -0.21746E-03
 0.51030003E+02  0.18950E-04
 0.51080006E+02  0.10670E-03
 0.51130005E+02  0.31156E-04
 0.51180004E+02 -0.12028E-03
 0.51230003E+02 -0.23797E-03
 0.51280003E+02 -0.13727E-03
 0.51330006E+02  0.18514E-03
 0.51380005E+02  0.44795E-03
 0.51430004E+02  0.62102E-03
 0.51480003E+02  0.47095E-03
 0.51530003E+02 -0.17594E-04
 0.51580006E+02 -0.40079E-03
 0.51630005E+02 -0.55126E-03
 0.51680004E+02 -0.57315E-03
 0.51730003E+02 -0.57642E-03
 0.51780003E+02 -0.49051E-03
 0.51830006E+02 -0.20590E-03
 0.51880005E+02  0.16258E-03
 0.51930004E+02  0.39010E-03
 0.51980003E+02  0.62447E-03
 0.52030003E+02  0.77809E-03
 0.52080006E+02  0.60960E-03
 0.52130005E+02  0.30472E-03
 0.52180004E+02 -0.25085E-03
 0.52230003E+02 -0.69041E-03
 0.52280003E+02 -0.66674E-03
 0.52330006E+02 -0.40736E-03
 0.52380005E+02 -0.86525E-04
 0.52430004E+02  0.38081E-04
 0.52480003E+02  0.16953E-03
 0.52530003E+02  0.38941E-03
 0.52580006E+02  0.49193E-03
 0.52630005E+02  0.35027E-03
 0.52680004E+02  0.42967E-04
 0.52730003E+02 -0.23179E-03
 0.52780003E+02 -0.47129E-03
 0.52830006E+02 -0.48380E-03
 0.52880005E+02 -0.25760E-03
 0.52930004E+02 -0.40917E-04
 0.52980003E+02  0.97562E-04
 0.53030003E+02  0.21561E-03
 0.53080006E+02  0.17927E-03
 0.53130005E+02 -0.30174E-04
 0.53180004E+02 -0.18373E-04
 0.53230003E+02  0.27046E-03
 0.53280003E+02  0.41647E-03
 0.53330006E+02  0.36082E-03
 0.53380005E+02  0.26461E-03
 0.53430004E+02  0.55089E-04
 0.53480003E+02 -0.21877E-03
 0.53530003E+02 -0.47874E-03
 0.53580006E+02 -0.62953E-03
 0.53630005E+02 -0.58989E-03
 0.53680004E+02 -0.41161E-03
 0.53730003E+02 -0.93438E-04
 0.53780003E+02  0.28985E-03
 0.53830006E+02  0.67380E-03
 0.53880005E+02  0.78691E-03
 0.53930004E+02  0.47591E-03
 0.53980003E+02  0.15994E-03
 0.54030003E+02 -0.11369E-03
 0.54080006E+02 -0.44646E-03
 0.54130005E+02 -0.60383E-03
 0.54180004E+02 -0.55315E-03
 0.54230003E+02 -0.35338E-03
 0.54280003E+02 -0.15063E-04
 0.54330006E+02  0.25555E-03
 0.54380005E+02  0.40506E-03
 0.54430004E+02  0.55378E-03
 0.54480003E+02  0.49952E-03
 0.54530003E+02  0.23005E-03
 0.54580006E+02 -0.88878E-04
 0.54630005E+02 -0.35119E-03
 0.54680004E+02 -0.39046E-03
 0.54730003E+02 -0.33955E-03
 0.54780003E+02 -0.25032E-03
 0.54830006E+02  0.69148E-05
 0.54880005E+02  0.18164E-03
 0.54930004E+02  0.90858E-04
 0.54980003E+02 -0.19067E-04
 0.55030003E+02 -0.41590E-05
 0.55080006E+02  0.92959E-04
 0.55130005E+02  0.30717E-03
 0.55180004E+02  0.50318E-03
 0.55230003E+02  0.44707E-03
 0.55280003E+02  0.19062E-03
 0.55330006E+02 -0.23441E-03
 0.55380005E+02 -0.56539E-03
 0.55430004E+02 -0.45535E-03
 0.55480003E+02 -0.15139E-03
 0.55530003E+02  0.11415E-03
 0.55580006E+02  0.26422E-03
 0.55630005E+02  0.22446E-03
 0.55680004E+02  0.21485E-04
 0.55730003E+02 -0.26670E-03
 0.55780003E+02 -0.48499E-03
 0.55830006E+02 -0.49107E-03
 0.55880005E+02 -0.21246E-03
 0.55930004E+02  0.12140E-03
 0.55980003E+02  0.30107E-03
 0.56030003E+02  0.36241E-03
 0.56080006E+02  0.30195E-03
 0.56130005E+02  0.15253E-03
 0.56180004E+02 -0.11248E-03
 0.56230003E+02 -0.45421E-03
 0.56280003E+02 -0.58521E-03
 0.56330006E+02 -0.36838E-03
 0.56380005E+02  0.88527E-04
 0.56430004E+02  0.54783E-03
 0.56480003E+02  0.67498E-03
 0.56530003E+02  0.39395E-03
 0.56580006E+02  0.90598E-04
 0.56630005E+02  0.47647E-04
 0.56680004E+02  0.98410E-04
 0.56730003E+02  0.20270E-03
 0.56780003E+02  0.31464E-03
 0.56830006E+02  0.16711E-03
 0.56880005E+02 -0.21203E-03
 0.56930004E+02 -0.49985E-03
 0.56980003E+02 -0.55056E-03
 0.57030003E+02 -0.49817E-03
 0.57080006E+02 -0.33850E-03
 0.57130005E+02 -0.19912E-03
 0.57180004E+02 -0.15354E-03
 0.57230003E+02 -0.43879E-04
 0.57280003E+02  0.16080E-04
 0.57330006E+02  0.13072E-03
 0.57380005E+02  0.29380E-03
 0.57430004E+02  0.33988E-03
 0.57480003E+02  0.38992E-03
 0.57530003E+02  0.31752E-03
 0.57580006E+02  0.11730E-03
 0.57630005E+02 -0.48186E-04
 0.57680004E+02 -0.12737E-03
 0.57730003E+02 -0.87772E-04
 0.57780003E+02 -0.40774E-04
 0.57830006E+02  0.89243E-07
 0.57880005E+02  0.53066E-04
 0.57930004E+02  0.14962E-03
 0.57980003E+02  0.20809E-03
 0.58030003E+02  0.62041E-04
 0.58080006E+02 -0.10342E-03
 0.58130005E+02 -0.18965E-03
 0.58180004E+02 -0.25761E-03
 0.58230003E+02 -0.29224E-03
 0.58280003E+02 -0.31556E-03
 0.58330006E+02 -0.28562E-03
 0.58380005E+02 -0.14456E-03
 0.58430004E+02  0.90260E-04
 0.58480003E+02  0.33252E-03
 0.58530003E+02  0.50879E-03
 0.58580006E+02  0.52040E-03
 0.58630005E+02  0.30122E-03
 0.58680004E+02  0.40160E-05
 0.58730003E+02 -0.23719E-03
 0.58780003E+02 -0.43690E-03
 0.58830006E+02 -0.51756E-03
 0.58880005E+02 -0.42784E-03
 0.58930004E+02 -0.22066E-03
 0.58980003E+02  0.82689E-04
 0.59030003E+02  0.33181E-03
 0.59080006E+02  0.41246E-03
 0.59130005E+02  0.45423E-03
 0.59180004E+02  0.47784E-03
 0.59230003E+02  0.36378E-03
 0.59280003E+02  0.15290E-03
 0.59330006E+02 -0.35754E-04
 0.59380005E+02 -0.20173E-03
 0.59430004E+02 -0.33376E-03
 0.59480003E+02 -0.34253E-03
 0.59530003E+02 -0.30120E-03
 0.59580006E+02 -0.31719E-03
 0.59630005E+02 -0.32144E-03
 0.59680004E+02 -0.24542E-03
 0.59730003E+02 -0.13569E-03
 0.59780003E+02  0.31781E-05
 0.59830006E+02  0.12635E-03
 0.59880005E+02  0.18654E-03
 0.59930004E+02  0.21911E-03
 0.59980003E+02  0.12021E-03
 0.60030003E+02 -0.28123E-04
 0.60080006E+02 -0.85448E-04
 0.60130005E+02 -0.74527E-04
 0.60180004E+02  0.84818E-04
 0.60230003E+02  0.28038E-03
 0.60280003E+02  0.31417E-03
 0.60330006E+02  0.24983E-03
 0.60380005E+02  0.18173E-03
 0.60430004E+02  0.16309E-03
 0.60480003E+02  0.19701E-03
 0.60530003E+02  0.14255E-03
 0.60580006E+02 -0.11828E-03
 0.60630005E+02 -0.41300E-03
 0.60680004E+02 -0.51666E-03
 0.60730003E+02 -0.47482E-03
 0.60780003E+02 -0.32466E-03
 0.60830006E+02 -0.13474E-03
 0.60880005E+02  0.42092E-04
 0.60930004E+02  0.25508E-03
 0.60980003E+02  0.38528E-03
 0.61030003E+02  0.41823E-03
 0.61080006E+02  0.33724E-03
 0.61130005E+02  0.81128E-04
 0.61180004E+02 -0.15397E-03
 0.61230003E+02 -0.22289E-03
 0.61280003E+02 -0.17432E-03
 0.61330006E+02 -0.14038E-03
 0.61380005E+02 -0.13521E-03
 0.61430004E+02 -0.11206E-03
 0.61480003E+02 -0.64517E-04
 0.61530003E+02  0.26840E-04
 0.61580006E+02  0.11003E-03
 0.61630005E+02  0.12972E-03
 0.61680004E+02  0.31745E-04
 0.61730003E+02 -0.43672E-04
 0.61780003E+02 -0.22041E-04
 0.61830006E+02 -0.30071E-04
 0.61880005E+02  0.50406E-05
 0.61930004E+02  0.74030E-04
 0.61980003E+02  0.12028E-03
 0.62030003E+02  0.11357E-03
 0.62080006E+02  0.42739E-04
 0.62130005E+02  0.17319E-04
 0.62180004E+02 -0.19073E-04
 0.62230003E+02 -0.66066E-04
 0.62280003E+02  0.10811E-05
 0.62330006E+02  0.91185E-04
 0.62380005E+02  0.60740E-04
 0.62430004E+02 -0.11398E-03
 0.62480003E+02 -0.34816E-03
 0.62530003E+02 -0.45243E-03
 0.62580006E+02 -0.35695E-03
 0.62630005E+02 -0.10979E-03
 0.62680004E+02  0.19537E-03
 0.62730003E+02  0.43787E-03
 0.62780003E+02  0.56818E-03
 0.62830006E+02  0.52578E-03
 0.62880005E+02  0.36147E-03
 0.62930004E+02  0.13822E-03
 0.62980003E+02 -0.12720E-03
 0.63030003E+02 -0.32266E-03
 0.63080006E+02 -0.41496E-03
 0.63130005E+02 -0.38398E-03
 0.63180004E+02 -0.26559E-03
 0.63230003E+02 -0.17388E-03
 0.63280003E+02 -0.73131E-04
 0.63330006E+02  0.78118E-04
 0.63380005E+02  0.22199E-03
 0.63430004E+02  0.33261E-03
 0.63480003E+02  0.35412E-03
 0.63530003E+02  0.26594E-03
 0.63580006E+02  0.15109E-03
 0.63630005E+02 -0.28518E-04
 0.63680004E+02 -0.22279E-03
 0.63730003E+02 -0.29919E-03
 0.63780003E+02 -0.32344E-03
 0.63830006E+02 -0.32735E-03
 0.63880005E+02 -0.25950E-03
 0.63930004E+02 -0.13874E-03
 0.63980003E+02 -0.31728E-04
 0.64030006E+02  0.10931E-03
 0.64080002E+02  0.24923E-03
 0.64130005E+02  0.25376E-03
 0.64180008E+02  0.22791E-03
 0.64230003E+02  0.22669E-03
 0.64280006E+02  0.18656E-03
 0.64330002E+02  0.12715E-03
 0.64380005E+02  0.10506E-03
 0.64430008E+02  0.12966E-03
 0.64480003E+02  0.12669E-03
 0.64530006E+02  0.71028E-04
 0.64580002E+02 -0.42278E-04
 0.64630005E+02 -0.19385E-03
 0.64680008E+02 -0.31643E-03
 0.64730003E+02 -0.34226E-03
 0.64780006E+02 -0.27735E-03
 0.64830002E+02 -0.25013E-03
 0.64880005E+02 -0.23316E-03
 0.64930008E+02 -0.17491E-03
 0.64980003E+02 -0.16396E-03
 0.65030006E+02 -0.13452E-03
 0.65080002E+02 -0.33078E-04
 0.65130005E+02  0.14545E-03
 0.65180008E+02  0.43171E-03
 0.65230003E+02  0.65382E-03
 0.65280006E+02  0.64232E-03
 0.65330002E+02  0.44884E-03
 0.65380005E+02  0.16415E-03
 0.65430008E+02 -0.11403E-03
 0.65480003E+02 -0.28454E-03
 0.65530006E+02 -0.34963E-03
 0.65580002E+02 -0.31366E-03
 0.65630005E+02 -0.24653E-03
 0.65680008E+02 -0.23520E-03
 0.65730003E+02 -0.20693E-03
 0.65780006E+02 -0.12576E-03
 0.65830002E+02 -0.57199E-04
 0.65880005E+02 -0.96488E-05
 0.65930008E+02  0.23563E-04
 0.65980003E+02  0.41492E-04
 0.66030006E+02  0.90560E-04
 0.66080002E+02  0.14450E-03
 0.66130005E+02  0.18793E-03
 0.66180008E+02  0.23949E-03
 0.66230003E+02  0.21056E-03
 0.66280006E+02  0.93601E-04
 0.66330002E+02 -0.29438E-04
 0.66380005E+02 -0.12866E-03
 0.66430008E+02 -0.17127E-03
 0.66480003E+02 -0.17147E-03
 0.66530006E+02 -0.13346E-03
 0.66580002E+02 -0.41988E-04
 0.66630005E+02  0.77260E-04
 0.66680008E+02  0.18755E-03
 0.66730003E+02  0.16679E-03
 0.66780006E+02  0.33819E-04
 0.66830002E+02 -0.99218E-04
 0.66880005E+02 -0.20458E-03
 0.66930008E+02 -0.19192E-03
 0.66980003E+02 -0.58419E-04
 0.67030006E+02  0.13928E-03
 0.67080002E+02  0.30348E-03
 0.67130005E+02  0.31412E-03
 0.67180008E+02  0.24545E-03
 0.67230003E+02  0.19100E-03
 0.67280006E+02  0.12979E-03
 0.67330002E+02  0.48456E-04
 0.67380005E+02 -0.42201E-04
 0.67430008E+02 -0.12942E-03
 0.67480003E+02 -0.20322E-03
 0.67530006E+02 -0.23635E-03
 0.67580002E+02 -0.20248E-03
 0.67630005E+02 -0.16227E-03
 0.67680008E+02 -0.15761E-03
 0.67730003E+02 -0.17967E-03
 0.67780006E+02 -0.21749E-03
 0.67830002E+02 -0.22606E-03
 0.67880005E+02 -0.16679E-03
 0.67930008E+02 -0.50377E-04
 0.67980003E+02  0.79644E-04
 0.68030006E+02  0.17457E-03
 0.68080002E+02  0.19024E-03
 0.68130005E+02  0.19907E-03
 0.68180008E+02  0.20448E-03
 0.68230003E+02  0.14110E-03
 0.68280006E+02  0.11546E-03
 0.68330002E+02  0.12324E-03
 0.68380005E+02  0.12097E-03
 0.68430008E+02  0.11790E-03
 0.68480003E+02  0.60841E-04
 0.68530006E+02  0.21363E-05
 0.68580002E+02 -0.43118E-04
 0.68630005E+02 -0.73660E-04
 0.68680008E+02 -0.54015E-04
 0.68730003E+02 -0.20998E-04
 0.68780006E+02 -0.62547E-05
 0.68830002E+02 -0.35051E-04
 0.68880005E+02 -0.84247E-04
 0.68930008E+02 -0.16389E-03
 0.68980003E+02 -0.26304E-03
 0.69030006E+02 -0.29459E-03
 0.69080002E+02 -0.22985E-03
 0.69130005E+02 -0.90166E-04
 0.69180008E+02  0.27990E-04
 0.69230003E+02  0.65859E-04
 0.69280006E+02  0.58799E-04
 0.69330002E+02  0.49853E-04
 0.69380005E+02  0.78246E-04
 0.69430008E+02  0.14161E-03
 0.69480003E+02  0.18352E-03
 0.69530006E+02  0.18892E-03
 0.69580002E+02  0.20124E-03
 0.69630005E+02  0.22753E-03
 0.69680008E+02  0.21609E-03
 0.69730003E+02  0.13424E-03
 0.69780006E+02  0.71981E-04
 0.69830002E+02  0.20942E-04
 0.69880005E+02 -0.84892E-04
 0.69930008E+02 -0.18789E-03
 0.69980003E+02 -0.25146E-03
 0.70030006E+02 -0.24715E-03
 0.70080002E+02 -0.18950E-03
 0.70130005E+02 -0.11748E-03
 0.70180008E+02 -0.54867E-04
 0.70230003E+02  0.22043E-04
 0.70280006E+02  0.11821E-03
 0.70330002E+02  0.15086E-03
 0.70380005E+02  0.11733E-03
 0.70430008E+02  0.21403E-04
 0.70480003E+02 -0.10559E-03
 0.70530006E+02 -0.17073E-03
 0.70580002E+02 -0.18487E-03
 0.70630005E+02 -0.11195E-03
 0.70680008E+02  0.58498E-04
 0.70730003E+02  0.18458E-03
 0.70780006E+02  0.22509E-03
 0.70830002E+02  0.20149E-03
 0.70880005E+02  0.12528E-03
 0.70930008E+02  0.55934E-04
 0.70980003E+02  0.62696E-05
 0.71030006E+02 -0.23991E-04
 0.71080002E+02 -0.27398E-04
 0.71130005E+02 -0.75578E-04
 0.71180008E+02 -0.11469E-03
 0.71230003E+02 -0.77405E-04
 0.71280006E+02 -0.51867E-04
 0.71330002E+02 -0.29313E-04
 0.71380005E+02 -0.45488E-05
 0.71430008E+02 -0.20238E-04
 0.71480003E+02 -0.96351E-04
 0.71530006E+02 -0.17376E-03
 0.71580002E+02 -0.16981E-03
 0.71630005E+02 -0.11621E-03
 0.71680008E+02 -0.36894E-04
 0.71730003E+02  0.39257E-04
 0.71780006E+02  0.83224E-04
 0.71830002E+02  0.11487E-03
 0.71880005E+02  0.13613E-03
 0.71930008E+02  0.11719E-03
 0.71980003E+02  0.92800E-04
 0.72030006E+02  0.91860E-04
 0.72080002E+02  0.73049E-04
 0.72130005E+02  0.52281E-04
 0.72180008E+02  0.16671E-04
 0.72230003E+02 -0.65286E-04
 0.72280006E+02 -0.13241E-03
 0.72330002E+02 -0.13473E-03
 0.72380005E+02 -0.88044E-04
 0.72430008E+02  0.93976E-05
 0.72480003E+02  0.12227E-03
 0.72530006E+02  0.13042E-03
 0.72580002E+02  0.48782E-04
 0.72630005E+02 -0.22962E-04
 0.72680008E+02 -0.51879E-04
 0.72730003E+02 -0.39265E-05
 0.72780006E+02  0.54320E-04
 0.72830002E+02  0.52696E-04
 0.72880005E+02  0.32591E-04
 0.72930008E+02  0.33188E-05
 0.72980003E+02 -0.30532E-04
 0.73030006E+02 -0.55262E-04
 0.73080002E+02 -0.56457E-04
 0.73130005E+02 -0.45577E-04
 0.73180008E+02 -0.46834E-04
 0.73230003E+02 -0.43330E-04
 0.73280006E+02 -0.49079E-04
 0.73330002E+02 -0.36807E-04
 0.73380005E+02  0.82932E-05
 0.73430008E+02  0.50988E-04
 0.73480003E+02  0.11306E-03
 0.73530006E+02  0.16201E-03
 0.73580002E+02  0.17319E-03
 0.73630005E+02  0.15124E-03
 0.73680008E+02  0.83995E-04
 0.73730003E+02  0.17590E-04
 0.73780006E+02 -0.63998E-04
 0.73830002E+02 -0.15602E-03
 0.73880005E+02 -0.20329E-03
 0.73930008E+02 -0.21548E-03
 0.73980003E+02 -0.18387E-03
 0.74030006E+02 -0.11417E-03
 0.74080002E+02 -0.40149E-04
 0.74130005E+02  0.90291E-05
 0.74180008E+02  0.32190E-04
 0.74230003E+02  0.56561E-04
 0.74280006E+02  0.82359E-04
 0.74330002E+02  0.97390E-04
 0.74380005E+02  0.88758E-04
 0.74430008E+02  0.56086E-04
 0.74480003E+02  0.21340E-04
 0.74530006E+02 -0.30072E-05
 0.74580002E+02 -0.11585E-04
 0.74630005E+02 -0.21299E-04
 0.74680008E+02 -0.57848E-04
 0.74730003E+02 -0.98501E-04
 0.74780006E+02 -0.10304E-03
 0.74830002E+02 -0.46253E-04
 0.74880005E+02  0.21103E-04
 0.74930008E+02  0.44468E-04
 0.74980003E+02  0.44732E-04
 0.75030006E+02  0.35788E-04
 0.75080002E+02  0.38189E-04
 0.75130005E+02  0.58800E-04
 0.75180008E+02  0.91711E-04
 0.75230003E+02  0.12800E-03
 0.75280006E+02  0.12865E-03
 0.75330002E+02  0.86632E-04
 0.75380005E+02  0.38391E-04
 0.75430008E+02 -0.16489E-04
 0.75480003E+02 -0.77590E-04
 0.75530006E+02 -0.11031E-03
 0.75580002E+02 -0.11112E-03
 0.75630005E+02 -0.81680E-04
 0.75680008E+02 -0.28924E-04
 0.75730003E+02  0.42387E-04
 0.75780006E+02  0.98473E-04
 0.75830002E+02  0.92164E-04
 0.75880005E+02  0.44184E-04
 0.75930008E+02 -0.22056E-04
 0.75980003E+02 -0.89892E-04
 0.76030006E+02 -0.12114E-03
 0.76080002E+02 -0.13325E-03
 0.76130005E+02 -0.12612E-03
 0.76180008E+02 -0.63592E-04
 0.76230003E+02 -0.21803E-04
 0.76280006E+02 -0.10392E-04
 0.76330002E+02  0.21925E-04
 0.76380005E+02  0.38173E-04
 0.76430008E+02  0.46560E-04
 0.76480003E+02  0.67373E-04
 0.76530006E+02  0.93308E-04
 0.76580002E+02  0.11717E-03
 0.76630005E+02  0.14151E-03
 0.76680008E+02  0.16879E-03
 0.76730003E+02  0.14188E-03
 0.76780006E+02  0.42413E-04
 0.76830002E+02 -0.60881E-04
 0.76880005E+02 -0.12677E-03
 0.76930008E+02 -0.16191E-03
 0.76980003E+02 -0.17954E-03
 0.77030006E+02 -0.19164E-03
 0.77080002E+02 -0.20605E-03
 0.77130005E+02 -0.19820E-03
 0.77180008E+02 -0.13011E-03
 0.77230003E+02 -0.12000E-04
 0.77280006E+02  0.12033E-03
 0.77330002E+02  0.22591E-03
 0.77380005E+02  0.26340E-03
 0.77430008E+02  0.26268E-03
 0.77480003E+02  0.23447E-03
 0.77530006E+02  0.13330E-03
 0.77580002E+02  0.20820E-04
 0.77630005E+02 -0.68170E-04
 0.77680008E+02 -0.15665E-03
 0.77730003E+02 -0.21536E-03
 0.77780006E+02 -0.24936E-03
 0.77830002E+02 -0.23096E-03
 0.77880005E+02 -0.15122E-03
 0.77930008E+02 -0.41088E-04
 0.77980003E+02  0.93209E-04
 0.78030006E+02  0.18737E-03
 0.78080002E+02  0.19479E-03
 0.78130005E+02  0.14579E-03
 0.78180008E+02  0.96231E-04
 0.78230003E+02  0.58516E-04
 0.78280006E+02  0.38269E-04
 0.78330002E+02  0.41242E-04
 0.78380005E+02  0.33497E-04
 0.78430008E+02  0.15302E-04
 0.78480003E+02 -0.15967E-04
 0.78530006E+02 -0.55511E-04
 0.78580002E+02 -0.72031E-04
 0.78630005E+02 -0.53003E-04
 0.78680008E+02 -0.34843E-04
 0.78730003E+02 -0.72130E-04
 0.78780006E+02 -0.13838E-03
 0.78830002E+02 -0.17625E-03
 0.78880005E+02 -0.15592E-03
 0.78930008E+02 -0.99537E-04
 0.78980003E+02 -0.40355E-04
 0.79030006E+02  0.27076E-04
 0.79080002E+02  0.88840E-04
 0.79130005E+02  0.13027E-03
 0.79180008E+02  0.15109E-03
 0.79230003E+02  0.15134E-03
 0.79280006E+02  0.12838E-03
 0.79330002E+02  0.81716E-04
 0.79380005E+02  0.43792E-04
 0.79430008E+02  0.36198E-04
 0.79480003E+02  0.49465E-04
 0.79530006E+02  0.50406E-04
 0.79580002E+02  0.20750E-04
 0.79630005E+02 -0.50183E-05
 0.79680008E+02 -0.29597E-04
 0.79730003E+02 -0.64291E-04
 0.79780006E+02 -0.83846E-04
 0.79830002E+02 -0.83171E-04
 0.79880005E+02 -0.76409E-04
 0.79930008E+02 -0.57955E-04
 0.79980003E+02 -0.25909E-04
 0.80030006E+02 -0.14760E-04
 0.80080002E+02 -0.25283E-04
 0.80130005E+02 -0.31149E-04
 0.80180008E+02 -0.22343E-04
 0.80230003E+02 -0.61572E-05
 0.80280006E+02  0.84941E-05
 0.80330002E+02  0.32430E-04
 0.80380005E+02  0.49774E-04
 0.80430008E+02  0.42066E-04
 0.80480003E+02  0.35526E-04
 0.80530006E+02  0.29984E-04
 0.80580002E+02  0.62074E-05
 0.80630005E+02 -0.57450E-05
 0.80680008E+02 -0.11226E-04
 0.80730003E+02 -0.38147E-04
 0.80780006E+02 -0.44621E-04
 0.80830002E+02 -0.28444E-04
 0.80880005E+02 -0.19322E-04
 0.80930008E+02 -0.80985E-06
 0.80980003E+02  0.26990E-04
 0.81030006E+02  0.30329E-04
 0.81080002E+02  0.12401E-04
 0.81130005E+02  0.58388E-07
 0.81180008E+02 -0.23939E-04
 0.81230003E+02 -0.45655E-04
 0.81280006E+02 -0.42956E-04
 0.81330002E+02 -0.29088E-04
 0.81380005E+02 -0.60386E-05
 0.81430008E+02  0.37163E-05
 0.81480003E+02 -0.52373E-05
 0.81530006E+02 -0.92428E-05
 0.81580002E+02 -0.22782E-04
 0.81630005E+02 -0.29078E-04
 0.81680008E+02 -0.44428E-05
 0.81730003E+02  0.39670E-05
 0.81780006E+02  0.87383E-05
 0.81830002E+02  0.46550E-04
 0.81880005E+02  0.85608E-04
 0.81930008E+02  0.10780E-03
 0.81980003E+02  0.12454E-03
 0.82030006E+02  0.12157E-03
 0.82080002E+02  0.94289E-04
 0.82130005E+02  0.62736E-04
 0.82180008E+02  0.25067E-04
 0.82230003E+02 -0.59621E-05
 0.82280006E+02 -0.25390E-04
 0.82330002E+02 -0.43501E-04
 0.82380005E+02 -0.74862E-04
 0.82430008E+02 -0.11466E-03
 0.82480003E+02 -0.12940E-03
 0.82530006E+02 -0.11712E-03
 0.82580002E+02 -0.75803E-04
 0.82630005E+02 -0.31089E-04
 0.82680008E+02 -0.70025E-05
 0.82730003E+02  0.24238E-05
 0.82780006E+02 -0.56564E-05
 0.82830002E+02 -0.11990E-04
 0.82880005E+02 -0.13162E-04
 0.82930008E+02 -0.11194E-04
 0.82980003E+02 -0.29356E-05
 0.83030006E+02  0.14667E-04
 0.83080002E+02  0.49722E-04
 0.83130005E+02  0.86833E-04
 0.83180008E+02  0.10521E-03
 0.83230003E+02  0.89235E-04
 0.83280006E+02  0.53673E-04
 0.83330002E+02  0.28969E-04
 0.83380005E+02  0.77231E-06
 0.83430008E+02 -0.34972E-04
 0.83480003E+02 -0.46288E-04
 0.83530006E+02 -0.41418E-04
 0.83580002E+02 -0.42267E-04
 0.83630005E+02 -0.40159E-04
 0.83680008E+02 -0.30435E-04
 0.83730003E+02 -0.19379E-04
 0.83780006E+02 -0.99653E-05
 0.83830002E+02 -0.91119E-05
 0.83880005E+02 -0.80535E-05
 0.83930008E+02  0.10619E-04
 0.83980003E+02  0.27701E-04
 0.84030006E+02  0.35907E-04
 0.84080002E+02  0.36776E-04
 0.84130005E+02  0.18561E-04
 0.84180008E+02 -0.72233E-05
 0.84230003E+02 -0.40115E-04
 0.84280006E+02 -0.69733E-04
 0.84330002E+02 -0.68328E-04
 0.84380005E+02 -0.41702E-04
 0.84430008E+02 -0.31581E-05
 0.84480003E+02  0.26157E-04
 0.84530006E+02  0.14695E-04
 0.84580002E+02 -0.12037E-04
 0.84630005E+02 -0.16522E-04
 0.84680008E+02 -0.33578E-05
 0.84730003E+02  0.19834E-04
 0.84780006E+02  0.36545E-04
 0.84830002E+02  0.44616E-04
 0.84880005E+02  0.51274E-04
 0.84930008E+02  0.51270E-04
 0.84980003E+02  0.48978E-04
 0.85030006E+02  0.47552E-04
 0.85080002E+02  0.38251E-04
 0.85130005E+02  0.15772E-04
 0.85180008E+02 -0.11118E-04
 0.85230003E+02 -0.38960E-04
 0.85280006E+02 -0.59882E-04
 0.85330002E+02 -0.64239E-04
 0.85380005E+02 -0.62136E-04
 0.85430008E+02 -0.54896E-04
 0.85480003E+02 -0.30244E-04
 0.85530006E+02  0.59364E-05
 0.85580002E+02  0.32667E-04
 0.85630005E+02  0.45304E-04
 0.85680008E+02  0.52423E-04
 0.85730003E+02  0.46843E-04
 0.85780006E+02  0.25568E-04
 0.85830002E+02 -0.46988E-05
 0.85880005E+02 -0.39526E-04
 0.85930008E+02 -0.49566E-04
 0.85980003E+02 -0.17089E-04
 0.86030006E+02  0.27976E-04
 0.86080002E+02  0.49250E-04
 0.86130005E+02  0.47212E-04
 0.86180008E+02  0.26946E-04
 0.86230003E+02 -0.75745E-05
 0.86280006E+02 -0.24698E-04
 0.86330002E+02 -0.39450E-04
 0.86380005E+02 -0.53304E-04
 0.86430008E+02 -0.29595E-04
 0.86480003E+02  0.28643E-05
 0.86530006E+02  0.26936E-04
 0.86580002E+02  0.32573E-04
 0.86630005E+02  0.87752E-05
 0.86680008E+02 -0.11205E-04
 0.86730003E+02 -0.18605E-04
 0.86780006E+02 -0.86637E-05
 0.86830002E+02  0.16514E-04
 0.86880005E+02  0.27864E-04
 0.86930008E+02  0.18644E-04
 0.86980003E+02 -0.74376E-05
 0.87030006E+02 -0.39276E-04
 0.87080002E+02 -0.53061E-04
 0.87130005E+02 -0.44373E-04
 0.87180008E+02 -0.23088E-04
 0.87230003E+02  0.13985E-05
 0.87280006E+02  0.22748E-04
 0.87330002E+02  0.38979E-04
 0.87380005E+02  0.42425E-04
 0.87430008E+02  0.16804E-04
 0.87480003E+02 -0.30638E-04
 0.87530006E+02 -0.60904E-04
 0.87580002E+02 -0.64542E-04
 0.87630005E+02 -0.47831E-04
 0.87680008E+02 -0.75703E-05
 0.87730003E+02  0.36807E-04
 0.87780006E+02  0.55346E-04
 0.87830002E+02  0.47873E-04
 0.87880005E+02  0.40579E-04
 0.87930008E+02  0.31066E-04
 0.87980003E+02  0.11395E-04
 0.88030006E+02 -0.72718E-05
 0.88080002E+02 -0.12497E-04
 0.88130005E+02  0.68743E-05
 0.88180008E+02  0.34534E-04
 0.88230003E+02  0.45210E-04
 0.88280006E+02  0.24470E-04
 0.88330002E+02 -0.13587E-04
 0.88380005E+02 -0.33002E-04
 0.88430008E+02 -0.34647E-04
 0.88480003E+02 -0.33721E-04
 0.88530006E+02 -0.21705E-04
 0.88580002E+02  0.29173E-05
 0.88630005E+02  0.19923E-04
 0.88680008E+02  0.19270E-04
 0.88730003E+02  0.94702E-05
 0.88780006E+02 -0.65389E-05
 0.88830002E+02 -0.16481E-04
 0.88880005E+02 -0.74383E-05
 0.88930008E+02  0.56225E-05
 0.88980003E+02  0.13638E-04
 0.89030006E+02  0.38034E-05
 0.89080002E+02 -0.20779E-04
 0.89130005E+02 -0.37691E-04
 0.89180008E+02 -0.48700E-04
 0.89230003E+02 -0.43670E-04
 0.89280006E+02 -0.22088E-04
 0.89330002E+02  0.13049E-04
 0.89380005E+02  0.47074E-04
 0.89430008E+02  0.48630E-04
 0.89480003E+02  0.34912E-04
 0.89530006E+02  0.25211E-04
 0.89580002E+02  0.14811E-04
 0.89630005E+02  0.16089E-05
 0.89680008E+02 -0.11779E-04
 0.89730003E+02 -0.22610E-04
 0.89780006E+02 -0.11436E-04
 0.89830002E+02  0.29005E-04
 0.89880005E+02  0.62935E-04
 0.89930008E+02  0.72232E-04
 0.89980003E+02  0.51501E-04
 0.90030006E+02  0.17239E-04
 0.90080002E+02  0.91438E-06
 0.90130005E+02 -0.79581E-05
 0.90180008E+02 -0.24048E-04
 0.90230003E+02 -0.45169E-04
 0.90280006E+02 -0.62371E-04
 0.90330002E+02 -0.68808E-04
 0.90380005E+02 -0.61728E-04
 0.90430008E+02 -0.46931E-04
 0.90480003E+02 -0.29655E-04
 0.90530006E+02 -0.14788E-04
 0.90580002E+02 -0.11380E-04
 0.90630005E+02 -0.21624E-06
 0.90680008E+02  0.13818E-04
 0.90730003E+02  0.12480E-04
 0.90780006E+02 -0.57744E-05
 0.90830002E+02 -0.39487E-04
 0.90880005E+02 -0.55417E-04
 0.90930008E+02 -0.38223E-04
 0.90980003E+02  0.10886E-04
 0.91030006E+02  0.72349E-04
 0.91080002E+02  0.10746E-03
 0.91130005E+02  0.10472E-03
 0.91180008E+02  0.80659E-04
 0.91230003E+02  0.50261E-04
 0.91280006E+02  0.40512E-05
 0.91330002E+02 -0.37828E-04
 0.91380005E+02 -0.59684E-04
 0.91430008E+02 -0.67551E-04
 0.91480003E+02 -0.52312E-04
 0.91530006E+02 -0.28287E-04
 0.91580002E+02 -0.14335E-04
 0.91630005E+02  0.77177E-06
 0.91680008E+02  0.20788E-04
 0.91730003E+02  0.24876E-04
 0.91780006E+02  0.17124E-04
 0.91830002E+02  0.75327E-05
 0.91880005E+02 -0.61986E-05
 0.91930008E+02 -0.51619E-05
 0.91980003E+02  0.12682E-04
 0.92030006E+02  0.25617E-04
 0.92080002E+02  0.34547E-04
 0.92130005E+02  0.45430E-04
 0.92180008E+02  0.48786E-04
 0.92230003E+02  0.40045E-04
 0.92280006E+02  0.17496E-04
 0.92330002E+02 -0.10585E-04
 0.92380005E+02 -0.22423E-04
 0.92430008E+02 -0.21426E-04
 0.92480003E+02 -0.16635E-04
 0.92530006E+02 -0.78679E-05
 0.92580002E+02 -0.80769E-05
 0.92630005E+02 -0.78084E-05
 0.92680008E+02 -0.70551E-05
 0.92730003E+02 -0.23346E-04
 0.92780006E+02 -0.33957E-04
 0.92830002E+02 -0.38109E-04
 0.92880005E+02 -0.53950E-04
 0.92930008E+02 -0.71816E-04
 0.92980003E+02 -0.84493E-04
 0.93030006E+02 -0.75326E-04
 0.93080002E+02 -0.32908E-04
 0.93130005E+02  0.12682E-04
 0.93180008E+02  0.27725E-04
 0.93230003E+02  0.19830E-04
 0.93280006E+02  0.77962E-05
 0.93330002E+02  0.46888E-05
 0.93380005E+02  0.17763E-04
 0.93430008E+02  0.35783E-04
 0.93480003E+02  0.51756E-04
 0.93530006E+02  0.69293E-04
 0.93580002E+02  0.89779E-04
 0.93630005E+02  0.96841E-04
 0.93680008E+02  0.83305E-04
 0.93730003E+02  0.63138E-04
 0.93780006E+02  0.38606E-04
 0.93830002E+02  0.11819E-04
 0.93880005E+02 -0.41733E-05
 0.93930008E+02 -0.12114E-05
 0.93980003E+02 -0.41416E-05
 0.94030006E+02 -0.32012E-04
 0.94080002E+02 -0.66913E-04
 0.94130005E+02 -0.94708E-04
 0.94180008E+02 -0.10551E-03
 0.94230003E+02 -0.99836E-04
 0.94280006E+02 -0.87979E-04
 0.94330002E+02 -0.68363E-04
 0.94380005E+02 -0.41111E-04
 0.94430008E+02 -0.96495E-05
 0.94480003E+02  0.24546E-04
 0.94530006E+02  0.53312E-04
 0.94580002E+02  0.73316E-04
 0.94630005E+02  0.81175E-04
 0.94680008E+02  0.81529E-04
 0.94730003E+02  0.84263E-04
 0.94780006E+02  0.77273E-04
 0.94830002E+02  0.61725E-04
 0.94880005E+02  0.44943E-04
 0.94930008E+02  0.22862E-04
 0.94980003E+02 -0.57807E-06
 0.95030006E+02 -0.27533E-04
 0.95080002E+02 -0.65077E-04
 0.95130005E+02 -0.10248E-03
 0.95180008E+02 -0.11548E-03
 0.95230003E+02 -0.10598E-03
 0.95280006E+02 -0.91718E-04
 0.95330002E+02 -0.76918E-04
 0.95380005E+02 -0.54881E-04
 0.95430008E+02 -0.18294E-04
 0.95480003E+02  0.28617E-04
 0.95530006E+02  0.75449E-04
 0.95580002E+02  0.10539E-03
 0.95630005E+02  0.11288E-03
 0.95680008E+02  0.10897E-03
 0.95730003E+02  0.95043E-04
 0.95780006E+02  0.76550E-04
 0.95830002E+02  0.60455E-04
 0.95880005E+02  0.28518E-04
 0.95930008E+02 -0.11035E-04
 0.95980003E+02 -0.41352E-04
 0.96030006E+02 -0.75159E-04
 0.96080002E+02 -0.95974E-04
 0.96130005E+02 -0.99254E-04
 0.96180008E+02 -0.10265E-03
 0.96230003E+02 -0.10104E-03
 0.96280006E+02 -0.96401E-04
 0.96330002E+02 -0.86688E-04
 0.96380005E+02 -0.56323E-04
 0.96430008E+02 -0.17019E-04
 0.96480003E+02  0.14783E-04
 0.96530006E+02  0.45010E-04
 0.96580002E+02  0.64548E-04
 0.96630005E+02  0.72564E-04
 0.96680008E+02  0.76671E-04
 0.96730003E+02  0.63775E-04
 0.96780006E+02  0.43409E-04
 0.96830002E+02  0.44167E-04
 0.96880005E+02  0.65050E-04
 0.96930008E+02  0.90774E-04
 0.96980003E+02  0.11573E-03
 0.97030006E+02  0.11389E-03
 0.97080002E+02  0.72311E-04
 0.97130005E+02  0.16033E-04
 0.97180008E+02 -0.40573E-04
 0.97230003E+02 -0.74892E-04
 0.97280006E+02 -0.76751E-04
 0.97330002E+02 -0.76179E-04
 0.97380005E+02 -0.78973E-04
 0.97430008E+02 -0.74520E-04
 0.97480003E+02 -0.56971E-04
 0.97530006E+02 -0.27795E-04
 0.97580002E+02 -0.10747E-04
 0.97630005E+02 -0.10021E-04
 0.97680008E+02 -0.10657E-04
 0.97730003E+02 -0.44325E-05
 0.97780006E+02  0.47921E-05
 0.97830002E+02  0.52239E-05
 0.97880005E+02 -0.31787E-05
 0.97930008E+02 -0.14652E-04
 0.97980003E+02 -0.22671E-04
 0.98030006E+02 -0.24921E-04
 0.98080002E+02 -0.14145E-04
 0.98130005E+02  0.58943E-05
 0.98180008E+02  0.19128E-04
 0.98230003E+02  0.29560E-04
 0.98280006E+02  0.38723E-04
 0.98330002E+02  0.50463E-04
 0.98380005E+02  0.57075E-04
 0.98430008E+02  0.50792E-04
 0.98480003E+02  0.40322E-04
 0.98530006E+02  0.24271E-04
 0.98580002E+02  0.11870E-04
 0.98630005E+02  0.34976E-05
 0.98680008E+02 -0.63259E-05
 0.98730003E+02 -0.21136E-04
 0.98780006E+02 -0.36352E-04
 0.98830002E+02 -0.37737E-04
 0.98880005E+02 -0.28749E-04
 0.98930008E+02 -0.12511E-04
 0.98980003E+02  0.37129E-05
 0.99030006E+02  0.14033E-04
 0.99080002E+02  0.14910E-04
 0.99130005E+02 -0.40751E-06
 0.99180008E+02 -0.19475E-04
 0.99230003E+02 -0.30751E-04
 0.99280006E+02 -0.34393E-04
 0.99330002E+02 -0.23425E-04
 0.99380005E+02 -0.22032E-05
 0.99430008E+02  0.15479E-04
 0.99480003E+02  0.26567E-04
 0.99530006E+02  0.26709E-04
 0.99580002E+02  0.17678E-04
 0.99630005E+02  0.55922E-05
 0.99680008E+02 -0.15167E-04
 0.99730003E+02 -0.43575E-04
 0.99780006E+02 -0.59552E-04
 0.99830002E+02 -0.65214E-04
 0.99880005E+02 -0.69349E-04
 0.99930008E+02 -0.55598E-04
 0.99980003E+02 -0.26531E-04
