-0.19996643E-01  0.30487E-06
 0.30003358E-01  0.14504E-06
 0.80003358E-01  0.71465E-07
 0.13000336E+00  0.46103E-08
 0.18000336E+00 -0.54553E-07
 0.23000336E+00 -0.74587E-07
 0.28000337E+00 -0.10174E-06
 0.33000335E+00 -0.78349E-07
 0.38000336E+00 -0.72573E-07
 0.43000337E+00 -0.68609E-07
 0.48000336E+00 -0.51404E-07
 0.53000337E+00 -0.60909E-07
 0.58000338E+00 -0.11579E-07
 0.63000339E+00  0.14622E-07
 0.68000335E+00  0.15132E-07
 0.73000336E+00  0.13049E-07
 0.78000337E+00 -0.88314E-08
 0.83000338E+00  0.17236E-07
 0.88000339E+00  0.36151E-07
 0.93000335E+00  0.28667E-07
 0.98000336E+00  0.10821E-07
 0.10300034E+01 -0.12635E-07
 0.10800034E+01 -0.17910E-07
 0.11300033E+01 -0.87135E-08
 0.11800034E+01 -0.45025E-08
 0.12300034E+01  0.15153E-09
 0.12800034E+01  0.47158E-08
 0.13300034E+01 -0.78557E-08
 0.13800033E+01 -0.27224E-07
 0.14300034E+01 -0.33878E-07
 0.14800034E+01 -0.17121E-07
 0.15300034E+01 -0.22368E-09
 0.15800034E+01  0.12621E-07
 0.16300033E+01 -0.49785E-10
 0.16800034E+01 -0.69785E-08
 0.17300034E+01  0.82374E-08
 0.17800034E+01 -0.89268E-08
 0.18300034E+01 -0.21605E-07
 0.18800033E+01 -0.26011E-07
 0.19300034E+01 -0.14413E-07
 0.19800034E+01  0.15183E-09
 0.20300033E+01 -0.46652E-09
 0.20800035E+01 -0.44067E-08
 0.21300035E+01 -0.36422E-07
 0.21800034E+01 -0.14637E-07
 0.22300034E+01  0.19211E-07
 0.22800033E+01  0.15105E-07
 0.23300035E+01  0.27970E-07
 0.23800035E+01  0.27209E-07
 0.24300034E+01  0.60744E-07
 0.24800034E+01  0.64242E-07
 0.25300033E+01  0.11587E-07
 0.25800035E+01 -0.12769E-07
 0.26300035E+01 -0.14631E-07
 0.26800034E+01  0.12805E-07
 0.27300034E+01  0.23404E-07
 0.27800033E+01 -0.15207E-08
 0.28300035E+01 -0.38472E-07
 0.28800035E+01 -0.53112E-07
 0.29300034E+01 -0.54654E-07
 0.29800034E+01 -0.65974E-07
 0.30300033E+01 -0.62364E-07
 0.30800035E+01 -0.49468E-07
 0.31300035E+01 -0.19318E-07
 0.31800034E+01 -0.87748E-08
 0.32300034E+01 -0.10459E-07
 0.32800033E+01  0.21132E-07
 0.33300035E+01  0.42083E-07
 0.33800035E+01  0.46966E-07
 0.34300034E+01  0.51498E-07
 0.34800034E+01  0.48278E-07
 0.35300033E+01  0.57455E-07
 0.35800035E+01  0.66682E-07
 0.36300035E+01  0.66846E-07
 0.36800034E+01  0.56806E-07
 0.37300034E+01  0.38243E-07
 0.37800033E+01  0.33611E-07
 0.38300035E+01  0.31919E-07
 0.38800035E+01  0.29066E-07
 0.39300034E+01  0.81892E-08
 0.39800034E+01 -0.16601E-07
 0.40300035E+01 -0.33952E-07
 0.40800033E+01 -0.53096E-07
 0.41300035E+01 -0.28481E-07
 0.41800036E+01 -0.84166E-08
 0.42300034E+01 -0.84007E-08
 0.42800035E+01  0.18339E-08
 0.43300033E+01 -0.18011E-07
 0.43800035E+01 -0.24118E-07
 0.44300036E+01 -0.30202E-08
 0.44800034E+01 -0.31423E-07
 0.45300035E+01 -0.71386E-07
 0.45800033E+01 -0.65021E-07
 0.46300035E+01 -0.60092E-07
 0.46800036E+01 -0.61653E-07
 0.47300034E+01 -0.67251E-07
 0.47800035E+01 -0.49921E-07
 0.48300033E+01 -0.18482E-07
 0.48800035E+01  0.15745E-08
 0.49300036E+01  0.41766E-07
 0.49800034E+01  0.37131E-07
 0.50300035E+01  0.25605E-07
 0.50800033E+01  0.47589E-07
 0.51300035E+01  0.61447E-07
 0.51800036E+01  0.68184E-07
 0.52300034E+01  0.37981E-07
 0.52800035E+01  0.31474E-07
 0.53300033E+01  0.51432E-07
 0.53800035E+01  0.35829E-07
 0.54300036E+01  0.28116E-07
 0.54800034E+01  0.38816E-07
 0.55300035E+01  0.29430E-07
 0.55800033E+01  0.33380E-07
 0.56300035E+01  0.63472E-07
 0.56800036E+01  0.74092E-07
 0.57300034E+01  0.56250E-07
 0.57800035E+01  0.14823E-07
 0.58300033E+01  0.98893E-09
 0.58800035E+01 -0.17114E-07
 0.59300036E+01 -0.57192E-07
 0.59800034E+01 -0.80689E-07
 0.60300035E+01 -0.11156E-06
 0.60800033E+01 -0.10807E-06
 0.61300035E+01 -0.79247E-07
 0.61800036E+01 -0.75085E-07
 0.62300034E+01 -0.65191E-07
 0.62800035E+01 -0.65544E-07
 0.63300033E+01 -0.68464E-07
 0.63800035E+01 -0.19476E-07
 0.64300036E+01 -0.13550E-07
 0.64800034E+01 -0.14232E-07
 0.65300035E+01  0.12736E-07
 0.65800033E+01  0.63282E-08
 0.66300035E+01  0.23197E-07
 0.66800036E+01  0.94718E-08
 0.67300034E+01  0.82642E-08
 0.67800035E+01  0.10805E-07
 0.68300033E+01 -0.76856E-09
 0.68800035E+01  0.52748E-07
 0.69300036E+01  0.58563E-07
 0.69800034E+01  0.46446E-07
 0.70300035E+01  0.51257E-07
 0.70800033E+01  0.38289E-07
 0.71300035E+01  0.26895E-07
 0.71800036E+01 -0.60481E-08
 0.72300034E+01 -0.10377E-07
 0.72800035E+01 -0.29827E-07
 0.73300033E+01 -0.31549E-07
 0.73800035E+01 -0.22958E-07
 0.74300036E+01 -0.76083E-07
 0.74800034E+01 -0.49133E-07
 0.75300035E+01 -0.26311E-07
 0.75800033E+01 -0.27067E-07
 0.76300035E+01  0.13616E-07
 0.76800036E+01  0.47932E-08
 0.77300034E+01  0.23021E-07
 0.77800035E+01  0.44003E-07
 0.78300033E+01  0.34429E-07
 0.78800035E+01  0.25522E-07
 0.79300036E+01  0.94038E-08
 0.79800034E+01  0.16614E-07
 0.80300035E+01  0.35899E-08
 0.80800037E+01  0.12854E-07
 0.81300039E+01  0.33280E-07
 0.81800032E+01  0.19436E-07
 0.82300034E+01  0.41623E-07
 0.82800035E+01  0.19086E-07
 0.83300037E+01 -0.80430E-08
 0.83800039E+01  0.29716E-07
 0.84300032E+01  0.43985E-07
 0.84800034E+01  0.48012E-07
 0.85300035E+01  0.40371E-07
 0.85800037E+01  0.14720E-07
 0.86300039E+01 -0.10872E-07
 0.86800032E+01 -0.32380E-07
 0.87300034E+01 -0.26066E-07
 0.87800035E+01 -0.33053E-07
 0.88300037E+01 -0.60344E-07
 0.88800039E+01 -0.30027E-07
 0.89300032E+01 -0.69771E-08
 0.89800034E+01 -0.39381E-07
 0.90300035E+01 -0.39492E-07
 0.90800037E+01 -0.20475E-07
 0.91300039E+01 -0.10613E-07
 0.91800032E+01 -0.62202E-08
 0.92300034E+01  0.22164E-07
 0.92800035E+01  0.50127E-07
 0.93300037E+01  0.23051E-07
 0.93800039E+01  0.28105E-07
 0.94300032E+01  0.31079E-07
 0.94800034E+01  0.20940E-07
 0.95300035E+01  0.20713E-07
 0.95800037E+01 -0.45727E-08
 0.96300039E+01  0.33691E-07
 0.96800032E+01  0.44783E-07
 0.97300034E+01  0.17447E-08
 0.97800035E+01 -0.45115E-08
 0.98300037E+01 -0.53763E-08
 0.98800039E+01 -0.66927E-08
 0.99300032E+01 -0.21324E-07
 0.99800034E+01 -0.27005E-07
 0.10030004E+02 -0.18134E-07
 0.10080004E+02 -0.17752E-07
 0.10130004E+02 -0.36771E-07
 0.10180003E+02 -0.48403E-07
 0.10230003E+02 -0.50383E-07
 0.10280004E+02 -0.58746E-07
 0.10330004E+02 -0.39894E-07
 0.10380004E+02 -0.54993E-08
 0.10430003E+02  0.17797E-07
 0.10480003E+02  0.18647E-08
 0.10530004E+02  0.28899E-07
 0.10580004E+02  0.43517E-07
 0.10630004E+02  0.27911E-07
 0.10680003E+02  0.54653E-07
 0.10730003E+02  0.28818E-07
 0.10780004E+02  0.79443E-08
 0.10830004E+02 -0.19610E-07
 0.10880004E+02 -0.26555E-07
 0.10930003E+02 -0.57978E-08
 0.10980003E+02 -0.17087E-07
 0.11030004E+02 -0.10620E-07
 0.11080004E+02 -0.12383E-07
 0.11130004E+02 -0.37657E-08
 0.11180003E+02  0.60427E-08
 0.11230003E+02  0.12246E-07
 0.11280004E+02  0.17119E-08
 0.11330004E+02  0.55616E-08
 0.11380004E+02  0.29468E-07
 0.11430003E+02  0.19753E-07
 0.11480003E+02  0.22679E-07
 0.11530004E+02 -0.71086E-08
 0.11580004E+02 -0.14899E-07
 0.11630004E+02 -0.11536E-07
 0.11680003E+02 -0.33520E-07
 0.11730003E+02 -0.35455E-08
 0.11780004E+02 -0.34569E-07
 0.11830004E+02 -0.46914E-07
 0.11880004E+02 -0.10478E-07
 0.11930003E+02 -0.22476E-07
 0.11980003E+02 -0.36962E-08
 0.12030004E+02 -0.13637E-07
 0.12080004E+02 -0.29262E-07
 0.12130004E+02 -0.19177E-08
 0.12180003E+02 -0.12875E-07
 0.12230003E+02 -0.24836E-07
 0.12280004E+02 -0.86284E-08
 0.12330004E+02 -0.31759E-07
 0.12380004E+02 -0.43645E-07
 0.12430003E+02  0.47603E-08
 0.12480003E+02 -0.11836E-08
 0.12530004E+02 -0.45028E-08
 0.12580004E+02  0.18002E-07
 0.12630004E+02  0.13482E-07
 0.12680003E+02  0.60430E-07
 0.12730003E+02  0.85686E-07
 0.12780004E+02  0.72718E-07
 0.12830004E+02  0.52591E-07
 0.12880004E+02  0.26704E-07
 0.12930003E+02  0.31432E-07
 0.12980003E+02  0.46661E-07
 0.13030004E+02  0.37162E-07
 0.13080004E+02  0.23220E-09
 0.13130004E+02 -0.11933E-07
 0.13180003E+02 -0.17583E-07
 0.13230003E+02 -0.20987E-07
 0.13280004E+02 -0.11537E-07
 0.13330004E+02  0.34444E-07
 0.13380004E+02  0.59177E-07
 0.13430003E+02  0.26916E-07
 0.13480003E+02  0.31517E-07
 0.13530004E+02  0.33528E-07
 0.13580004E+02  0.42470E-07
 0.13630004E+02  0.29275E-07
 0.13680003E+02 -0.70049E-08
 0.13730003E+02  0.80898E-08
 0.13780004E+02  0.19906E-07
 0.13830004E+02  0.11163E-07
 0.13880004E+02 -0.16429E-07
 0.13930003E+02 -0.33999E-07
 0.13980003E+02 -0.34977E-07
 0.14030004E+02 -0.41945E-07
 0.14080004E+02 -0.46626E-07
 0.14130004E+02 -0.62594E-07
 0.14180003E+02 -0.76560E-07
 0.14230003E+02 -0.59075E-07
 0.14280004E+02 -0.49083E-07
 0.14330004E+02 -0.53056E-07
 0.14380004E+02 -0.50944E-07
 0.14430003E+02 -0.43508E-07
 0.14480003E+02 -0.15746E-07
 0.14530004E+02  0.61089E-08
 0.14580004E+02  0.50273E-07
 0.14630004E+02  0.67397E-07
 0.14680003E+02  0.41929E-07
 0.14730003E+02  0.35755E-07
 0.14780004E+02  0.16987E-07
 0.14830004E+02  0.19899E-07
 0.14880004E+02  0.16189E-07
 0.14930003E+02 -0.61923E-08
 0.14980003E+02  0.42227E-08
 0.15030004E+02 -0.45569E-08
 0.15080004E+02 -0.13801E-07
 0.15130004E+02  0.92323E-08
 0.15180003E+02  0.53575E-08
 0.15230003E+02 -0.10291E-07
 0.15280004E+02 -0.13531E-07
 0.15330004E+02 -0.77587E-08
 0.15380004E+02  0.57185E-08
 0.15430003E+02  0.87301E-08
 0.15480003E+02  0.12348E-07
 0.15530004E+02  0.45243E-08
 0.15580004E+02 -0.27516E-07
 0.15630004E+02 -0.29540E-07
 0.15680003E+02 -0.34036E-07
 0.15730003E+02 -0.39358E-07
 0.15780004E+02 -0.18919E-07
 0.15830004E+02 -0.54425E-07
 0.15880004E+02 -0.59297E-07
 0.15930003E+02 -0.63626E-07
 0.15980003E+02 -0.97500E-07
 0.16030005E+02 -0.75979E-07
 0.16080004E+02 -0.61246E-07
 0.16130003E+02 -0.37328E-07
 0.16180004E+02 -0.11827E-07
 0.16230003E+02  0.70702E-08
 0.16280005E+02  0.21407E-07
 0.16330004E+02  0.20924E-07
 0.16380003E+02  0.33656E-07
 0.16430004E+02  0.56625E-07
 0.16480003E+02  0.79142E-07
 0.16530005E+02  0.83645E-07
 0.16580004E+02  0.62306E-07
 0.16630003E+02  0.59928E-07
 0.16680004E+02  0.69903E-07
 0.16730003E+02  0.38455E-07
 0.16780005E+02  0.34694E-07
 0.16830004E+02  0.50583E-07
 0.16880003E+02  0.29255E-07
 0.16930004E+02  0.26357E-07
 0.16980003E+02  0.22380E-07
 0.17030005E+02  0.13209E-08
 0.17080004E+02  0.44607E-07
 0.17130003E+02  0.69979E-07
 0.17180004E+02  0.66703E-07
 0.17230003E+02  0.86699E-07
 0.17280005E+02  0.54360E-07
 0.17330004E+02  0.52729E-07
 0.17380003E+02  0.24368E-07
 0.17430004E+02 -0.17662E-07
 0.17480003E+02 -0.11766E-07
 0.17530005E+02 -0.20568E-07
 0.17580004E+02 -0.94406E-08
 0.17630003E+02 -0.18655E-07
 0.17680004E+02 -0.14710E-07
 0.17730003E+02 -0.28506E-07
 0.17780005E+02 -0.57346E-07
 0.17830004E+02 -0.53331E-07
 0.17880003E+02 -0.64376E-07
 0.17930004E+02 -0.33662E-07
 0.17980003E+02 -0.13646E-07
 0.18030005E+02 -0.41889E-07
 0.18080004E+02 -0.27592E-07
 0.18130003E+02  0.36891E-08
 0.18180004E+02 -0.79788E-08
 0.18230003E+02 -0.27156E-07
 0.18280005E+02 -0.32897E-07
 0.18330004E+02 -0.12450E-07
 0.18380003E+02 -0.11864E-07
 0.18430004E+02 -0.47142E-07
 0.18480003E+02 -0.56033E-07
 0.18530005E+02 -0.52459E-07
 0.18580004E+02 -0.53115E-07
 0.18630003E+02 -0.58420E-07
 0.18680004E+02 -0.47978E-07
 0.18730003E+02 -0.40036E-08
 0.18780005E+02  0.33673E-07
 0.18830004E+02  0.23698E-07
 0.18880003E+02  0.18580E-07
 0.18930004E+02  0.30118E-07
 0.18980003E+02  0.43853E-07
 0.19030005E+02  0.64657E-07
 0.19080004E+02  0.63653E-07
 0.19130003E+02  0.38797E-07
 0.19180004E+02  0.13373E-07
 0.19230003E+02  0.67360E-08
 0.19280005E+02 -0.32679E-07
 0.19330004E+02 -0.23898E-07
 0.19380003E+02  0.19557E-08
 0.19430004E+02 -0.33346E-07
 0.19480003E+02 -0.36597E-07
 0.19530005E+02 -0.37731E-07
 0.19580004E+02 -0.71767E-08
 0.19630003E+02  0.14568E-08
 0.19680004E+02 -0.82431E-08
 0.19730003E+02  0.12439E-09
 0.19780005E+02  0.14235E-07
 0.19830004E+02  0.20947E-07
 0.19880003E+02  0.15611E-07
 0.19930004E+02  0.61604E-08
 0.19980003E+02 -0.52918E-07
 0.20030005E+02 -0.18052E-08
 0.20080004E+02 -0.11133E-06
 0.20130003E+02 -0.12669E-07
 0.20180004E+02 -0.64962E-07
 0.20230003E+02  0.41208E-07
 0.20280005E+02  0.26012E-07
 0.20330004E+02 -0.30653E-06
 0.20380003E+02 -0.90341E-06
 0.20430004E+02 -0.20632E-05
 0.20480003E+02 -0.42503E-05
 0.20530005E+02 -0.78474E-05
 0.20580004E+02 -0.12642E-04
 0.20630003E+02 -0.17085E-04
 0.20680004E+02 -0.12702E-04
 0.20730003E+02 -0.81759E-05
 0.20780005E+02 -0.53419E-05
 0.20830004E+02  0.64173E-05
 0.20880003E+02  0.12056E-04
 0.20930004E+02  0.12772E-04
 0.20980003E+02  0.27889E-04
 0.21030005E+02  0.26361E-04
 0.21080004E+02  0.66918E-04
 0.21130003E+02  0.11557E-03
 0.21180004E+02  0.75354E-04
 0.21230003E+02  0.71449E-04
 0.21280005E+02  0.28652E-04
 0.21330004E+02 -0.52633E-04
 0.21380003E+02 -0.11438E-03
 0.21430004E+02 -0.20740E-03
 0.21480003E+02 -0.17070E-03
 0.21530005E+02 -0.11058E-03
 0.21580004E+02 -0.15581E-03
 0.21630003E+02 -0.45682E-04
 0.21680004E+02  0.15333E-03
 0.21730003E+02  0.17083E-03
 0.21780005E+02  0.16504E-03
 0.21830004E+02  0.11603E-03
 0.21880003E+02  0.86652E-05
 0.21930004E+02 -0.31425E-04
 0.21980003E+02 -0.11065E-03
 0.22030005E+02 -0.40630E-04
 0.22080004E+02  0.97960E-04
 0.22130003E+02  0.36200E-04
 0.22180004E+02 -0.19393E-04
 0.22230003E+02 -0.40550E-04
 0.22280005E+02 -0.22718E-04
 0.22330004E+02 -0.43146E-05
 0.22380003E+02  0.48422E-05
 0.22430004E+02  0.10656E-03
 0.22480003E+02  0.90868E-04
 0.22530005E+02  0.42222E-04
 0.22580004E+02 -0.65533E-04
 0.22630003E+02 -0.17150E-03
 0.22680004E+02 -0.70113E-04
 0.22730003E+02 -0.58577E-04
 0.22780005E+02 -0.84075E-04
 0.22830004E+02 -0.40474E-04
 0.22880003E+02  0.43148E-04
 0.22930004E+02  0.83050E-04
 0.22980003E+02  0.75847E-04
 0.23030005E+02  0.15007E-03
 0.23080004E+02  0.12173E-03
 0.23130003E+02  0.15762E-04
 0.23180004E+02 -0.55630E-04
 0.23230003E+02 -0.14296E-03
 0.23280005E+02 -0.12067E-03
 0.23330004E+02  0.23341E-04
 0.23380003E+02  0.76758E-04
 0.23430004E+02  0.83173E-04
 0.23480003E+02 -0.38500E-04
 0.23530005E+02 -0.17686E-03
 0.23580004E+02 -0.11704E-03
 0.23630003E+02 -0.85674E-05
 0.23680004E+02  0.12725E-03
 0.23730003E+02  0.85376E-04
 0.23780005E+02  0.32983E-04
 0.23830004E+02  0.29206E-04
 0.23880003E+02 -0.11917E-03
 0.23930004E+02  0.10423E-04
 0.23980003E+02  0.18036E-03
 0.24030005E+02  0.17413E-03
 0.24080004E+02  0.92151E-04
 0.24130003E+02 -0.15327E-03
 0.24180004E+02 -0.12237E-03
 0.24230003E+02 -0.44198E-04
 0.24280005E+02 -0.74479E-04
 0.24330004E+02  0.27349E-04
 0.24380003E+02  0.93303E-04
 0.24430004E+02  0.11709E-03
 0.24480003E+02  0.13780E-04
 0.24530005E+02 -0.63192E-04
 0.24580004E+02 -0.15125E-03
 0.24630003E+02 -0.19132E-03
 0.24680004E+02 -0.98562E-04
 0.24730003E+02 -0.50216E-04
 0.24780005E+02 -0.83194E-04
 0.24830004E+02 -0.88644E-04
 0.24880003E+02  0.17607E-03
 0.24930004E+02  0.16200E-03
 0.24980003E+02  0.14356E-05
 0.25030005E+02  0.50405E-04
 0.25080004E+02  0.74004E-04
 0.25130003E+02  0.59035E-04
 0.25180004E+02  0.69974E-04
 0.25230003E+02  0.11150E-03
 0.25280005E+02 -0.46883E-05
 0.25330004E+02 -0.38811E-04
 0.25380003E+02 -0.55210E-04
 0.25430004E+02  0.83203E-04
 0.25480003E+02  0.46842E-04
 0.25530005E+02 -0.30529E-03
 0.25580004E+02 -0.16025E-03
 0.25630003E+02  0.52458E-04
 0.25680004E+02  0.25156E-03
 0.25730003E+02  0.33087E-03
 0.25780005E+02  0.52878E-04
 0.25830004E+02 -0.67359E-04
 0.25880003E+02 -0.16923E-03
 0.25930004E+02 -0.91299E-04
 0.25980003E+02 -0.96890E-04
 0.26030005E+02 -0.24906E-03
 0.26080004E+02 -0.15122E-03
 0.26130003E+02 -0.27445E-03
 0.26180004E+02 -0.18735E-03
 0.26230003E+02  0.11471E-03
 0.26280005E+02  0.18334E-03
 0.26330004E+02  0.16428E-03
 0.26380003E+02  0.20697E-03
 0.26430004E+02  0.35861E-03
 0.26480003E+02  0.19889E-03
 0.26530005E+02  0.13463E-03
 0.26580004E+02  0.23815E-03
 0.26630003E+02  0.17499E-04
 0.26680004E+02 -0.25428E-03
 0.26730003E+02 -0.40712E-03
 0.26780005E+02 -0.33088E-03
 0.26830004E+02 -0.87180E-04
 0.26880003E+02  0.14636E-03
 0.26930004E+02  0.15088E-03
 0.26980003E+02  0.20747E-04
 0.27030005E+02  0.48201E-04
 0.27080004E+02  0.10389E-03
 0.27130003E+02  0.72650E-04
 0.27180004E+02 -0.51446E-04
 0.27230003E+02 -0.22932E-03
 0.27280005E+02 -0.38587E-03
 0.27330004E+02 -0.18399E-03
 0.27380003E+02  0.15651E-03
 0.27430004E+02  0.28898E-03
 0.27480003E+02  0.33702E-03
 0.27530005E+02  0.20370E-03
 0.27580004E+02  0.14891E-03
 0.27630003E+02  0.12233E-04
 0.27680004E+02 -0.22453E-03
 0.27730003E+02 -0.22409E-03
 0.27780005E+02 -0.27759E-03
 0.27830004E+02 -0.21835E-03
 0.27880003E+02 -0.83194E-04
 0.27930004E+02 -0.85094E-04
 0.27980003E+02 -0.14028E-04
 0.28030005E+02  0.87538E-04
 0.28080004E+02  0.60565E-04
 0.28130003E+02  0.65412E-04
 0.28180004E+02  0.19439E-03
 0.28230003E+02  0.22672E-03
 0.28280005E+02  0.15165E-03
 0.28330004E+02  0.48069E-04
 0.28380003E+02 -0.31936E-04
 0.28430004E+02  0.36354E-04
 0.28480003E+02  0.20991E-03
 0.28530005E+02  0.14032E-04
 0.28580004E+02 -0.15824E-03
 0.28630003E+02  0.78269E-04
 0.28680004E+02  0.84209E-04
 0.28730003E+02 -0.92863E-04
 0.28780005E+02 -0.19921E-03
 0.28830004E+02 -0.16053E-03
 0.28880003E+02 -0.15251E-03
 0.28930004E+02 -0.19343E-03
 0.28980003E+02 -0.59832E-04
 0.29030005E+02 -0.44585E-04
 0.29080004E+02 -0.94908E-04
 0.29130003E+02 -0.11049E-03
 0.29180004E+02 -0.20308E-04
 0.29230003E+02  0.82919E-04
 0.29280005E+02  0.54407E-04
 0.29330004E+02  0.28320E-03
 0.29380003E+02  0.39178E-03
 0.29430004E+02  0.26268E-03
 0.29480003E+02  0.16206E-03
 0.29530005E+02 -0.76563E-05
 0.29580004E+02 -0.35637E-04
 0.29630003E+02 -0.15328E-03
 0.29680004E+02 -0.28414E-03
 0.29730003E+02 -0.17921E-03
 0.29780005E+02 -0.10371E-03
 0.29830004E+02  0.22886E-04
 0.29880003E+02  0.20183E-03
 0.29930004E+02  0.75900E-04
 0.29980003E+02 -0.12963E-03
 0.30030005E+02 -0.49880E-04
 0.30080004E+02 -0.49749E-04
 0.30130003E+02 -0.22827E-04
 0.30180004E+02  0.59425E-04
 0.30230003E+02 -0.18396E-04
 0.30280005E+02 -0.59983E-05
 0.30330004E+02  0.11737E-03
 0.30380003E+02  0.25966E-03
 0.30430004E+02  0.71237E-04
 0.30480003E+02 -0.32086E-04
 0.30530005E+02  0.15277E-04
 0.30580004E+02 -0.57415E-04
 0.30630003E+02 -0.81130E-04
 0.30680004E+02 -0.32617E-03
 0.30730003E+02 -0.21675E-03
 0.30780005E+02 -0.19087E-03
 0.30830004E+02 -0.29361E-03
 0.30880003E+02  0.33473E-04
 0.30930004E+02  0.72296E-04
 0.30980003E+02  0.15436E-03
 0.31030005E+02  0.34597E-03
 0.31080004E+02  0.37894E-03
 0.31130003E+02  0.13925E-03
 0.31180004E+02 -0.34021E-04
 0.31230003E+02  0.11751E-03
 0.31280005E+02  0.36524E-04
 0.31330004E+02  0.57140E-04
 0.31380003E+02 -0.53000E-04
 0.31430004E+02 -0.26393E-03
 0.31480003E+02 -0.33645E-03
 0.31530005E+02 -0.34174E-03
 0.31580004E+02  0.13466E-03
 0.31630003E+02  0.26745E-03
 0.31680004E+02  0.21319E-03
 0.31730003E+02  0.24297E-03
 0.31780005E+02  0.16121E-04
 0.31830004E+02 -0.25401E-05
 0.31880003E+02 -0.12839E-03
 0.31930004E+02 -0.13793E-03
 0.31980003E+02 -0.76968E-04
 0.32030003E+02 -0.12376E-03
 0.32080006E+02 -0.15010E-03
 0.32130005E+02 -0.28427E-03
 0.32180004E+02 -0.24597E-03
 0.32230003E+02 -0.18992E-03
 0.32280003E+02  0.18255E-03
 0.32330006E+02  0.43337E-03
 0.32380005E+02  0.33999E-03
 0.32430004E+02  0.40190E-03
 0.32480003E+02  0.76366E-04
 0.32530003E+02 -0.13694E-03
 0.32580006E+02 -0.80510E-04
 0.32630005E+02 -0.13324E-03
 0.32680004E+02  0.19941E-04
 0.32730003E+02  0.96001E-04
 0.32780003E+02  0.66231E-04
 0.32830006E+02 -0.31562E-04
 0.32880005E+02 -0.13396E-03
 0.32930004E+02  0.60277E-07
 0.32980003E+02  0.41875E-04
 0.33030003E+02  0.38655E-04
 0.33080006E+02  0.32255E-04
 0.33130005E+02 -0.48740E-04
 0.33180004E+02 -0.47090E-04
 0.33230003E+02  0.34966E-04
 0.33280003E+02  0.11711E-03
 0.33330006E+02 -0.72786E-04
 0.33380005E+02 -0.12730E-03
 0.33430004E+02 -0.39315E-04
 0.33480003E+02 -0.66292E-04
 0.33530003E+02  0.12902E-04
 0.33580006E+02 -0.45471E-04
 0.33630005E+02 -0.36117E-04
 0.33680004E+02 -0.10013E-03
 0.33730003E+02 -0.38986E-03
 0.33780003E+02 -0.33517E-03
 0.33830006E+02  0.81196E-04
 0.33880005E+02  0.36180E-03
 0.33930004E+02  0.38440E-03
 0.33980003E+02  0.37453E-03
 0.34030003E+02  0.23921E-03
 0.34080006E+02  0.14051E-03
 0.34130005E+02  0.79792E-04
 0.34180004E+02 -0.13182E-03
 0.34230003E+02 -0.38134E-03
 0.34280003E+02 -0.34151E-03
 0.34330006E+02 -0.48291E-05
 0.34380005E+02  0.20050E-04
 0.34430004E+02 -0.32601E-04
 0.34480003E+02  0.71642E-04
 0.34530003E+02  0.12753E-03
 0.34580006E+02  0.16842E-03
 0.34630005E+02  0.18537E-03
 0.34680004E+02  0.66303E-06
 0.34730003E+02 -0.15018E-03
 0.34780003E+02  0.77482E-04
 0.34830006E+02  0.87166E-04
 0.34880005E+02 -0.16338E-03
 0.34930004E+02 -0.38898E-03
 0.34980003E+02 -0.26854E-03
 0.35030003E+02  0.73872E-04
 0.35080006E+02  0.30337E-04
 0.35130005E+02  0.85651E-04
 0.35180004E+02  0.34567E-03
 0.35230003E+02  0.29943E-03
 0.35280003E+02  0.93572E-04
 0.35330006E+02 -0.44998E-05
 0.35380005E+02 -0.96778E-04
 0.35430004E+02  0.32505E-04
 0.35480003E+02  0.20623E-03
 0.35530003E+02  0.18619E-03
 0.35580006E+02  0.25289E-03
 0.35630005E+02  0.23564E-03
 0.35680004E+02  0.79540E-04
 0.35730003E+02 -0.12305E-03
 0.35780003E+02 -0.41774E-03
 0.35830006E+02 -0.99662E-03
 0.35880005E+02 -0.17156E-02
 0.35930004E+02 -0.21163E-02
 0.35980003E+02 -0.24709E-02
 0.36030003E+02 -0.24503E-02
 0.36080006E+02 -0.16045E-02
 0.36130005E+02 -0.28686E-03
 0.36180004E+02  0.14095E-02
 0.36230003E+02  0.25050E-02
 0.36280003E+02  0.37457E-02
 0.36330006E+02  0.59016E-02
 0.36380005E+02  0.65417E-02
 0.36430004E+02  0.48509E-02
 0.36480003E+02  0.16596E-02
 0.36530003E+02 -0.16164E-02
 0.36580006E+02 -0.31106E-02
 0.36630005E+02 -0.33972E-02
 0.36680004E+02 -0.37369E-02
 0.36730003E+02 -0.37843E-02
 0.36780003E+02 -0.38210E-02
 0.36830006E+02 -0.22947E-02
 0.36880005E+02  0.28004E-03
 0.36930004E+02  0.87208E-03
 0.36980003E+02  0.72807E-03
 0.37030003E+02  0.16342E-03
 0.37080006E+02  0.47936E-03
 0.37130005E+02  0.17249E-02
 0.37180004E+02  0.15539E-02
 0.37230003E+02 -0.23065E-03
 0.37280003E+02 -0.18381E-02
 0.37330006E+02 -0.18248E-02
 0.37380005E+02 -0.21457E-02
 0.37430004E+02 -0.11428E-02
 0.37480003E+02  0.13195E-02
 0.37530003E+02  0.33966E-02
 0.37580006E+02  0.49453E-02
 0.37630005E+02  0.43416E-02
 0.37680004E+02  0.23573E-02
 0.37730003E+02  0.51053E-03
 0.37780003E+02 -0.83268E-03
 0.37830006E+02 -0.19901E-02
 0.37880005E+02 -0.25525E-02
 0.37930004E+02 -0.22138E-02
 0.37980003E+02 -0.16760E-02
 0.38030003E+02 -0.15949E-02
 0.38080006E+02 -0.91167E-03
 0.38130005E+02 -0.19879E-03
 0.38180004E+02 -0.86668E-03
 0.38230003E+02 -0.61360E-03
 0.38280003E+02  0.29031E-03
 0.38330006E+02  0.87530E-03
 0.38380005E+02  0.70692E-03
 0.38430004E+02  0.35301E-03
 0.38480003E+02  0.72505E-03
 0.38530003E+02  0.31606E-03
 0.38580006E+02  0.31734E-04
 0.38630005E+02  0.32511E-03
 0.38680004E+02  0.79290E-03
 0.38730003E+02  0.72742E-03
 0.38780003E+02  0.10617E-04
 0.38830006E+02  0.14768E-03
 0.38880005E+02 -0.21427E-03
 0.38930004E+02 -0.10109E-02
 0.38980003E+02 -0.59913E-03
 0.39030003E+02 -0.27479E-03
 0.39080006E+02 -0.63626E-03
 0.39130005E+02 -0.40314E-03
 0.39180004E+02  0.37927E-03
 0.39230003E+02  0.68077E-03
 0.39280003E+02  0.75979E-03
 0.39330006E+02  0.35603E-03
 0.39380005E+02 -0.94801E-04
 0.39430004E+02 -0.10007E-03
 0.39480003E+02 -0.99925E-04
 0.39530003E+02  0.66881E-03
 0.39580006E+02  0.10945E-02
 0.39630005E+02  0.62604E-03
 0.39680004E+02 -0.66320E-04
 0.39730003E+02 -0.13718E-02
 0.39780003E+02 -0.19708E-02
 0.39830006E+02 -0.10735E-02
 0.39880005E+02 -0.76321E-04
 0.39930004E+02  0.89144E-03
 0.39980003E+02  0.17312E-02
 0.40030003E+02  0.14376E-02
 0.40080006E+02  0.14132E-03
 0.40130005E+02 -0.14292E-02
 0.40180004E+02 -0.17261E-02
 0.40230003E+02 -0.81050E-03
 0.40280003E+02 -0.63047E-03
 0.40330006E+02 -0.82812E-03
 0.40380005E+02 -0.42837E-03
 0.40430004E+02  0.10519E-03
 0.40480003E+02  0.60239E-03
 0.40530003E+02  0.16833E-02
 0.40580006E+02  0.29317E-02
 0.40630005E+02  0.22303E-02
 0.40680004E+02  0.63198E-03
 0.40730003E+02 -0.65216E-03
 0.40780003E+02 -0.21389E-02
 0.40830006E+02 -0.21492E-02
 0.40880005E+02 -0.14569E-02
 0.40930004E+02 -0.51543E-03
 0.40980003E+02  0.20366E-03
 0.41030003E+02  0.34699E-03
 0.41080006E+02  0.13962E-02
 0.41130005E+02  0.15400E-02
 0.41180004E+02  0.73892E-03
 0.41230003E+02 -0.22103E-04
 0.41280003E+02 -0.76021E-03
 0.41330006E+02 -0.87639E-03
 0.41380005E+02 -0.88714E-03
 0.41430004E+02 -0.25417E-03
 0.41480003E+02  0.68233E-03
 0.41530003E+02  0.37684E-03
 0.41580006E+02  0.37409E-03
 0.41630005E+02  0.96763E-03
 0.41680004E+02  0.10357E-02
 0.41730003E+02  0.16313E-02
 0.41780003E+02  0.94314E-03
 0.41830006E+02 -0.15832E-02
 0.41880005E+02 -0.23711E-02
 0.41930004E+02 -0.20865E-02
 0.41980003E+02 -0.21033E-02
 0.42030003E+02 -0.13133E-02
 0.42080006E+02 -0.13045E-02
 0.42130005E+02 -0.15512E-02
 0.42180004E+02 -0.79577E-03
 0.42230003E+02 -0.21742E-03
 0.42280003E+02  0.11622E-02
 0.42330006E+02  0.27526E-02
 0.42380005E+02  0.33904E-02
 0.42430004E+02  0.41771E-02
 0.42480003E+02  0.43139E-02
 0.42530003E+02  0.28172E-02
 0.42580006E+02  0.65761E-03
 0.42630005E+02 -0.18681E-02
 0.42680004E+02 -0.36861E-02
 0.42730003E+02 -0.40576E-02
 0.42780003E+02 -0.41056E-02
 0.42830006E+02 -0.28443E-02
 0.42880005E+02 -0.42349E-03
 0.42930004E+02  0.15297E-02
 0.42980003E+02  0.28731E-02
 0.43030003E+02  0.27748E-02
 0.43080006E+02  0.19215E-02
 0.43130005E+02  0.97272E-03
 0.43180004E+02 -0.13420E-03
 0.43230003E+02 -0.73227E-03
 0.43280003E+02 -0.17106E-02
 0.43330006E+02 -0.23723E-02
 0.43380005E+02 -0.20779E-02
 0.43430004E+02 -0.12912E-02
 0.43480003E+02 -0.16898E-04
 0.43530003E+02  0.76487E-03
 0.43580006E+02  0.10866E-02
 0.43630005E+02  0.10378E-02
 0.43680004E+02  0.73475E-03
 0.43730003E+02  0.77842E-03
 0.43780003E+02  0.10736E-02
 0.43830006E+02  0.98819E-03
 0.43880005E+02  0.75533E-03
 0.43930004E+02  0.76533E-03
 0.43980003E+02 -0.39404E-03
 0.44030003E+02 -0.16695E-02
 0.44080006E+02 -0.16806E-02
 0.44130005E+02 -0.18082E-02
 0.44180004E+02 -0.13447E-02
 0.44230003E+02 -0.43467E-03
 0.44280003E+02 -0.33644E-03
 0.44330006E+02  0.28749E-04
 0.44380005E+02  0.76735E-03
 0.44430004E+02  0.11179E-02
 0.44480003E+02  0.99147E-03
 0.44530003E+02  0.91502E-03
 0.44580006E+02  0.13771E-02
 0.44630005E+02  0.13343E-02
 0.44680004E+02  0.11220E-02
 0.44730003E+02  0.10864E-02
 0.44780003E+02  0.19138E-03
 0.44830006E+02 -0.52128E-03
 0.44880005E+02 -0.96796E-03
 0.44930004E+02 -0.13944E-02
 0.44980003E+02 -0.17571E-02
 0.45030003E+02 -0.21286E-02
 0.45080006E+02 -0.17237E-02
 0.45130005E+02 -0.11311E-02
 0.45180004E+02  0.85102E-04
 0.45230003E+02  0.14812E-02
 0.45280003E+02  0.16371E-02
 0.45330006E+02  0.14706E-02
 0.45380005E+02  0.10358E-02
 0.45430004E+02  0.18626E-03
 0.45480003E+02 -0.35404E-03
 0.45530003E+02 -0.10598E-02
 0.45580006E+02 -0.19636E-02
 0.45630005E+02 -0.18562E-02
 0.45680004E+02 -0.84729E-03
 0.45730003E+02  0.77758E-03
 0.45780003E+02  0.24149E-02
 0.45830006E+02  0.23265E-02
 0.45880005E+02  0.16435E-02
 0.45930004E+02  0.15803E-02
 0.45980003E+02  0.11940E-02
 0.46030003E+02  0.38396E-03
 0.46080006E+02 -0.91915E-04
 0.46130005E+02 -0.59305E-04
 0.46180004E+02 -0.37446E-03
 0.46230003E+02 -0.96771E-03
 0.46280003E+02 -0.16689E-02
 0.46330006E+02 -0.23099E-02
 0.46380005E+02 -0.24862E-02
 0.46430004E+02 -0.23827E-02
 0.46480003E+02 -0.19982E-02
 0.46530003E+02 -0.13601E-02
 0.46580006E+02 -0.32021E-03
 0.46630005E+02  0.10506E-02
 0.46680004E+02  0.21827E-02
 0.46730003E+02  0.26086E-02
 0.46780003E+02  0.25841E-02
 0.46830006E+02  0.20636E-02
 0.46880005E+02  0.11859E-02
 0.46930004E+02  0.91770E-03
 0.46980003E+02  0.64922E-03
 0.47030003E+02 -0.19701E-03
 0.47080006E+02 -0.43152E-03
 0.47130005E+02 -0.38516E-03
 0.47180004E+02 -0.82287E-03
 0.47230003E+02 -0.72783E-03
 0.47280003E+02 -0.78669E-03
 0.47330006E+02 -0.10195E-02
 0.47380005E+02 -0.54742E-03
 0.47430004E+02 -0.45100E-03
 0.47480003E+02 -0.59280E-03
 0.47530003E+02 -0.68093E-03
 0.47580006E+02 -0.83280E-03
 0.47630005E+02 -0.20612E-03
 0.47680004E+02  0.75408E-03
 0.47730003E+02  0.10766E-02
 0.47780003E+02  0.11363E-02
 0.47830006E+02  0.77880E-03
 0.47880005E+02 -0.80709E-04
 0.47930004E+02 -0.62001E-03
 0.47980003E+02 -0.58545E-03
 0.48030003E+02 -0.60519E-03
 0.48080006E+02 -0.41150E-03
 0.48130005E+02  0.28426E-03
 0.48180004E+02  0.40566E-03
 0.48230003E+02  0.55814E-03
 0.48280003E+02  0.79769E-03
 0.48330006E+02  0.15840E-03
 0.48380005E+02 -0.32873E-03
 0.48430004E+02 -0.10242E-04
 0.48480003E+02  0.28318E-03
 0.48530003E+02  0.27368E-03
 0.48580006E+02  0.12415E-03
 0.48630005E+02 -0.28024E-03
 0.48680004E+02 -0.42903E-03
 0.48730003E+02 -0.30610E-03
 0.48780003E+02 -0.16867E-03
 0.48830006E+02 -0.46456E-04
 0.48880005E+02 -0.10610E-03
 0.48930004E+02  0.61737E-04
 0.48980003E+02  0.35842E-03
 0.49030003E+02  0.30584E-03
 0.49080006E+02 -0.57923E-04
 0.49130005E+02 -0.43219E-03
 0.49180004E+02 -0.22501E-03
 0.49230003E+02  0.31601E-03
 0.49280003E+02  0.25931E-03
 0.49330006E+02  0.14054E-04
 0.49380005E+02 -0.48316E-04
 0.49430004E+02 -0.35952E-03
 0.49480003E+02 -0.50581E-03
 0.49530003E+02 -0.38714E-03
 0.49580006E+02 -0.42226E-03
 0.49630005E+02 -0.16501E-03
 0.49680004E+02  0.36950E-03
 0.49730003E+02  0.64435E-03
 0.49780003E+02  0.71310E-03
 0.49830006E+02  0.44570E-03
 0.49880005E+02  0.13485E-03
 0.49930004E+02  0.16043E-03
 0.49980003E+02  0.84230E-04
 0.50030003E+02 -0.11295E-04
 0.50080006E+02 -0.32157E-04
 0.50130005E+02 -0.12324E-03
 0.50180004E+02 -0.20669E-03
 0.50230003E+02 -0.28507E-03
 0.50280003E+02 -0.26035E-03
 0.50330006E+02 -0.26486E-03
 0.50380005E+02 -0.14954E-03
 0.50430004E+02 -0.13951E-03
 0.50480003E+02 -0.21618E-03
 0.50530003E+02  0.31924E-04
 0.50580006E+02  0.53300E-04
 0.50630005E+02  0.42734E-04
 0.50680004E+02  0.95644E-04
 0.50730003E+02  0.34303E-05
 0.50780003E+02  0.39126E-04
 0.50830006E+02 -0.70897E-04
 0.50880005E+02 -0.21401E-03
 0.50930004E+02 -0.83731E-04
 0.50980003E+02 -0.11183E-04
 0.51030003E+02 -0.29506E-04
 0.51080006E+02  0.24098E-03
 0.51130005E+02  0.75927E-03
 0.51180004E+02  0.88844E-03
 0.51230003E+02  0.54093E-03
 0.51280003E+02  0.18575E-03
 0.51330006E+02 -0.33290E-03
 0.51380005E+02 -0.76041E-03
 0.51430004E+02 -0.64967E-03
 0.51480003E+02 -0.39153E-03
 0.51530003E+02 -0.24292E-03
 0.51580006E+02  0.36353E-04
 0.51630005E+02  0.34579E-03
 0.51680004E+02  0.40728E-03
 0.51730003E+02  0.43025E-03
 0.51780003E+02  0.23335E-03
 0.51830006E+02 -0.19585E-03
 0.51880005E+02 -0.36362E-03
 0.51930004E+02 -0.35378E-03
 0.51980003E+02 -0.34287E-03
 0.52030003E+02 -0.22829E-03
 0.52080006E+02 -0.21446E-03
 0.52130005E+02 -0.47068E-03
 0.52180004E+02 -0.45163E-03
 0.52230003E+02 -0.13397E-03
 0.52280003E+02  0.15370E-03
 0.52330006E+02  0.45506E-03
 0.52380005E+02  0.71554E-03
 0.52430004E+02  0.85338E-03
 0.52480003E+02  0.83183E-03
 0.52530003E+02  0.70427E-03
 0.52580006E+02  0.27457E-03
 0.52630005E+02 -0.62964E-04
 0.52680004E+02  0.67406E-05
 0.52730003E+02 -0.73418E-04
 0.52780003E+02 -0.27842E-03
 0.52830006E+02 -0.46356E-03
 0.52880005E+02 -0.65411E-03
 0.52930004E+02 -0.70049E-03
 0.52980003E+02 -0.58189E-03
 0.53030003E+02 -0.56106E-03
 0.53080006E+02 -0.73277E-03
 0.53130005E+02 -0.57563E-03
 0.53180004E+02 -0.42778E-04
 0.53230003E+02  0.46812E-03
 0.53280003E+02  0.86869E-03
 0.53330006E+02  0.10535E-02
 0.53380005E+02  0.88342E-03
 0.53430004E+02  0.59826E-03
 0.53480003E+02  0.42277E-03
 0.53530003E+02  0.14193E-03
 0.53580006E+02 -0.73634E-04
 0.53630005E+02 -0.83825E-04
 0.53680004E+02 -0.14743E-03
 0.53730003E+02 -0.25249E-03
 0.53780003E+02 -0.33356E-03
 0.53830006E+02 -0.40719E-03
 0.53880005E+02 -0.71204E-03
 0.53930004E+02 -0.10311E-02
 0.53980003E+02 -0.91118E-03
 0.54030003E+02 -0.58844E-03
 0.54080006E+02 -0.38900E-04
 0.54130005E+02  0.34652E-03
 0.54180004E+02  0.32106E-03
 0.54230003E+02  0.49454E-03
 0.54280003E+02  0.57598E-03
 0.54330006E+02  0.57532E-03
 0.54380005E+02  0.83466E-03
 0.54430004E+02  0.10174E-02
 0.54480003E+02  0.93898E-03
 0.54530003E+02  0.50656E-03
 0.54580006E+02 -0.10352E-03
 0.54630005E+02 -0.54843E-03
 0.54680004E+02 -0.76885E-03
 0.54730003E+02 -0.87264E-03
 0.54780003E+02 -0.78251E-03
 0.54830006E+02 -0.40102E-03
 0.54880005E+02 -0.77090E-04
 0.54930004E+02  0.56660E-05
 0.54980003E+02  0.29504E-04
 0.55030003E+02  0.18690E-04
 0.55080006E+02  0.44759E-04
 0.55130005E+02  0.15013E-03
 0.55180004E+02  0.16114E-03
 0.55230003E+02  0.37554E-04
 0.55280003E+02 -0.48863E-04
 0.55330006E+02 -0.62476E-04
 0.55380005E+02 -0.10829E-03
 0.55430004E+02 -0.12988E-04
 0.55480003E+02  0.17956E-03
 0.55530003E+02  0.12717E-03
 0.55580006E+02  0.59484E-04
 0.55630005E+02  0.91270E-04
 0.55680004E+02  0.22077E-04
 0.55730003E+02  0.24303E-04
 0.55780003E+02  0.97589E-04
 0.55830006E+02  0.24936E-03
 0.55880005E+02  0.34672E-03
 0.55930004E+02  0.23943E-03
 0.55980003E+02  0.16059E-03
 0.56030003E+02  0.58576E-04
 0.56080006E+02 -0.76813E-04
 0.56130005E+02 -0.22770E-03
 0.56180004E+02 -0.37873E-03
 0.56230003E+02 -0.33776E-03
 0.56280003E+02 -0.19378E-03
 0.56330006E+02 -0.31300E-03
 0.56380005E+02 -0.57816E-03
 0.56430004E+02 -0.53473E-03
 0.56480003E+02 -0.21304E-03
 0.56530003E+02  0.12184E-03
 0.56580006E+02  0.35541E-03
 0.56630005E+02  0.50670E-03
 0.56680004E+02  0.52444E-03
 0.56730003E+02  0.43081E-03
 0.56780003E+02  0.34667E-03
 0.56830006E+02  0.28501E-03
 0.56880005E+02  0.15487E-03
 0.56930004E+02 -0.51361E-04
 0.56980003E+02 -0.28305E-03
 0.57030003E+02 -0.54003E-03
 0.57080006E+02 -0.56983E-03
 0.57130005E+02 -0.29076E-03
 0.57180004E+02 -0.55107E-04
 0.57230003E+02  0.23734E-04
 0.57280003E+02  0.11629E-03
 0.57330006E+02  0.30082E-03
 0.57380005E+02  0.34654E-03
 0.57430004E+02  0.28680E-03
 0.57480003E+02  0.44544E-03
 0.57530003E+02  0.38879E-03
 0.57580006E+02  0.10589E-03
 0.57630005E+02 -0.79141E-04
 0.57680004E+02 -0.43872E-03
 0.57730003E+02 -0.60829E-03
 0.57780003E+02 -0.45441E-03
 0.57830006E+02 -0.31193E-03
 0.57880005E+02 -0.15802E-03
 0.57930004E+02  0.31121E-05
 0.57980003E+02  0.13925E-03
 0.58030003E+02  0.14481E-03
 0.58080006E+02  0.22978E-03
 0.58130005E+02  0.36917E-03
 0.58180004E+02  0.26662E-03
 0.58230003E+02  0.18794E-03
 0.58280003E+02  0.11043E-03
 0.58330006E+02 -0.58218E-04
 0.58380005E+02 -0.20301E-03
 0.58430004E+02 -0.26278E-03
 0.58480003E+02 -0.11944E-03
 0.58530003E+02  0.20928E-04
 0.58580006E+02  0.28847E-04
 0.58630005E+02 -0.52635E-05
 0.58680004E+02 -0.36527E-04
 0.58730003E+02 -0.12670E-03
 0.58780003E+02 -0.20767E-03
 0.58830006E+02 -0.20172E-03
 0.58880005E+02 -0.25514E-03
 0.58930004E+02 -0.23147E-03
 0.58980003E+02 -0.31704E-04
 0.59030003E+02  0.16406E-03
 0.59080006E+02  0.25538E-03
 0.59130005E+02  0.31295E-03
 0.59180004E+02  0.25276E-03
 0.59230003E+02  0.10192E-03
 0.59280003E+02  0.13086E-03
 0.59330006E+02  0.23027E-03
 0.59380005E+02  0.30441E-03
 0.59430004E+02  0.29177E-03
 0.59480003E+02  0.16704E-03
 0.59530003E+02 -0.32650E-04
 0.59580006E+02 -0.28327E-03
 0.59630005E+02 -0.44578E-03
 0.59680004E+02 -0.47124E-03
 0.59730003E+02 -0.37942E-03
 0.59780003E+02 -0.36585E-03
 0.59830006E+02 -0.31376E-03
 0.59880005E+02 -0.14981E-03
 0.59930004E+02  0.86594E-04
 0.59980003E+02  0.39781E-03
 0.60030003E+02  0.54430E-03
 0.60080006E+02  0.53778E-03
 0.60130005E+02  0.41392E-03
 0.60180004E+02  0.17220E-03
 0.60230003E+02 -0.74808E-04
 0.60280003E+02 -0.20347E-03
 0.60330006E+02 -0.30927E-03
 0.60380005E+02 -0.33333E-03
 0.60430004E+02 -0.30105E-03
 0.60480003E+02 -0.27186E-03
 0.60530003E+02 -0.95099E-04
 0.60580006E+02  0.74515E-04
 0.60630005E+02  0.28847E-03
 0.60680004E+02  0.29993E-03
 0.60730003E+02  0.58521E-04
 0.60780003E+02 -0.13457E-04
 0.60830006E+02  0.34409E-05
 0.60880005E+02  0.17845E-04
 0.60930004E+02  0.40267E-04
 0.60980003E+02  0.78090E-04
 0.61030003E+02  0.51000E-04
 0.61080006E+02 -0.43902E-05
 0.61130005E+02  0.41172E-04
 0.61180004E+02  0.65767E-04
 0.61230003E+02  0.95245E-04
 0.61280003E+02  0.97913E-04
 0.61330006E+02 -0.47127E-04
 0.61380005E+02 -0.14035E-03
 0.61430004E+02 -0.93734E-04
 0.61480003E+02  0.20916E-04
 0.61530003E+02  0.47715E-04
 0.61580006E+02 -0.55188E-04
 0.61630005E+02 -0.57237E-04
 0.61680004E+02 -0.27252E-04
 0.61730003E+02 -0.39574E-04
 0.61780003E+02 -0.79663E-04
 0.61830006E+02 -0.13426E-03
 0.61880005E+02 -0.21753E-03
 0.61930004E+02 -0.33594E-03
 0.61980003E+02 -0.20054E-03
 0.62030003E+02  0.12492E-04
 0.62080006E+02  0.11895E-03
 0.62130005E+02  0.26356E-03
 0.62180004E+02  0.33630E-03
 0.62230003E+02  0.35740E-03
 0.62280003E+02  0.30251E-03
 0.62330006E+02  0.14811E-03
 0.62380005E+02 -0.14174E-04
 0.62430004E+02 -0.11530E-03
 0.62480003E+02 -0.15592E-03
 0.62530003E+02 -0.21909E-03
 0.62580006E+02 -0.25825E-03
 0.62630005E+02 -0.29916E-03
 0.62680004E+02 -0.24141E-03
 0.62730003E+02 -0.55849E-04
 0.62780003E+02  0.66348E-04
 0.62830006E+02  0.16507E-03
 0.62880005E+02  0.30863E-03
 0.62930004E+02  0.43608E-03
 0.62980003E+02  0.42317E-03
 0.63030003E+02  0.26377E-03
 0.63080006E+02 -0.14377E-04
 0.63130005E+02 -0.31407E-03
 0.63180004E+02 -0.44041E-03
 0.63230003E+02 -0.47187E-03
 0.63280003E+02 -0.44705E-03
 0.63330006E+02 -0.36582E-03
 0.63380005E+02 -0.24033E-03
 0.63430004E+02  0.41675E-04
 0.63480003E+02  0.32579E-03
 0.63530003E+02  0.42904E-03
 0.63580006E+02  0.39267E-03
 0.63630005E+02  0.36336E-03
 0.63680004E+02  0.25594E-03
 0.63730003E+02  0.54573E-04
 0.63780003E+02 -0.17844E-04
 0.63830006E+02 -0.13147E-03
 0.63880005E+02 -0.23754E-03
 0.63930004E+02 -0.18947E-03
 0.63980003E+02 -0.13237E-03
 0.64030006E+02 -0.34509E-04
 0.64080002E+02  0.14379E-03
 0.64130005E+02  0.29890E-03
 0.64180008E+02  0.29079E-03
 0.64230003E+02  0.22236E-03
 0.64280006E+02  0.14197E-03
 0.64330002E+02 -0.47828E-04
 0.64380005E+02 -0.21762E-03
 0.64430008E+02 -0.34037E-03
 0.64480003E+02 -0.40762E-03
 0.64530006E+02 -0.31370E-03
 0.64580002E+02 -0.19132E-03
 0.64630005E+02 -0.34161E-04
 0.64680008E+02  0.14327E-03
 0.64730003E+02  0.18633E-03
 0.64780006E+02  0.25563E-03
 0.64830002E+02  0.37511E-03
 0.64880005E+02  0.38744E-03
 0.64930008E+02  0.18087E-03
 0.64980003E+02 -0.60103E-04
 0.65030006E+02 -0.20920E-03
 0.65080002E+02 -0.42207E-03
 0.65130005E+02 -0.48218E-03
 0.65180008E+02 -0.37661E-03
 0.65230003E+02 -0.23391E-03
 0.65280006E+02 -0.11765E-03
 0.65330002E+02 -0.10286E-03
 0.65380005E+02 -0.48549E-05
 0.65430008E+02  0.10663E-03
 0.65480003E+02  0.16452E-03
 0.65530006E+02  0.22926E-03
 0.65580002E+02  0.26161E-03
 0.65630005E+02  0.26112E-03
 0.65680008E+02  0.18426E-03
 0.65730003E+02  0.13414E-03
 0.65780006E+02  0.15470E-03
 0.65830002E+02  0.15273E-03
 0.65880005E+02  0.12452E-03
 0.65930008E+02  0.57321E-04
 0.65980003E+02  0.30481E-04
 0.66030006E+02  0.63971E-04
 0.66080002E+02  0.88108E-04
 0.66130005E+02  0.10166E-03
 0.66180008E+02  0.89203E-04
 0.66230003E+02 -0.94034E-05
 0.66280006E+02 -0.14585E-03
 0.66330002E+02 -0.20021E-03
 0.66380005E+02 -0.26413E-03
 0.66430008E+02 -0.33076E-03
 0.66480003E+02 -0.32943E-03
 0.66530006E+02 -0.34132E-03
 0.66580002E+02 -0.30952E-03
 0.66630005E+02 -0.24364E-03
 0.66680008E+02 -0.19129E-03
 0.66730003E+02 -0.80549E-04
 0.66780006E+02  0.10730E-04
 0.66830002E+02  0.10752E-03
 0.66880005E+02  0.28029E-03
 0.66930008E+02  0.34296E-03
 0.66980003E+02  0.29977E-03
 0.67030006E+02  0.27934E-03
 0.67080002E+02  0.28381E-03
 0.67130005E+02  0.27334E-03
 0.67180008E+02  0.20872E-03
 0.67230003E+02  0.12091E-03
 0.67280006E+02  0.31231E-04
 0.67330002E+02  0.37741E-05
 0.67380005E+02 -0.50957E-04
 0.67430008E+02 -0.18779E-03
 0.67480003E+02 -0.27127E-03
 0.67530006E+02 -0.32603E-03
 0.67580002E+02 -0.31928E-03
 0.67630005E+02 -0.23381E-03
 0.67680008E+02 -0.17000E-03
 0.67730003E+02 -0.14912E-03
 0.67780006E+02 -0.52817E-04
 0.67830002E+02  0.13836E-03
 0.67880005E+02  0.25936E-03
 0.67930008E+02  0.34774E-03
 0.67980003E+02  0.37171E-03
 0.68030006E+02  0.26376E-03
 0.68080002E+02  0.12892E-03
 0.68130005E+02  0.13257E-05
 0.68180008E+02 -0.61135E-04
 0.68230003E+02 -0.11066E-03
 0.68280006E+02 -0.13608E-03
 0.68330002E+02 -0.93171E-04
 0.68380005E+02 -0.10783E-03
 0.68430008E+02 -0.10513E-03
 0.68480003E+02 -0.67049E-04
 0.68530006E+02 -0.47629E-04
 0.68580002E+02 -0.40723E-05
 0.68630005E+02 -0.88164E-05
 0.68680008E+02 -0.20500E-04
 0.68730003E+02 -0.21938E-04
 0.68780006E+02 -0.99088E-04
 0.68830002E+02 -0.18995E-03
 0.68880005E+02 -0.21055E-03
 0.68930008E+02 -0.99873E-04
 0.68980003E+02  0.10569E-03
 0.69030006E+02  0.23842E-03
 0.69080002E+02  0.31991E-03
 0.69130005E+02  0.43100E-03
 0.69180008E+02  0.37738E-03
 0.69230003E+02  0.19941E-03
 0.69280006E+02  0.52286E-04
 0.69330002E+02 -0.99905E-04
 0.69380005E+02 -0.22359E-03
 0.69430008E+02 -0.33069E-03
 0.69480003E+02 -0.36582E-03
 0.69530006E+02 -0.29273E-03
 0.69580002E+02 -0.15279E-03
 0.69630005E+02 -0.35153E-04
 0.69680008E+02  0.52369E-05
 0.69730003E+02  0.73062E-04
 0.69780006E+02  0.17207E-03
 0.69830002E+02  0.23872E-03
 0.69880005E+02  0.21592E-03
 0.69930008E+02  0.11436E-03
 0.69980003E+02  0.50567E-04
 0.70030006E+02 -0.80684E-05
 0.70080002E+02 -0.89158E-04
 0.70130005E+02 -0.10815E-03
 0.70180008E+02 -0.14261E-03
 0.70230003E+02 -0.18278E-03
 0.70280006E+02 -0.15016E-03
 0.70330002E+02 -0.10504E-03
 0.70380005E+02 -0.56159E-04
 0.70430008E+02  0.50131E-05
 0.70480003E+02  0.89534E-04
 0.70530006E+02  0.17751E-03
 0.70580002E+02  0.19918E-03
 0.70630005E+02  0.17790E-03
 0.70680008E+02  0.19366E-03
 0.70730003E+02  0.21543E-03
 0.70780006E+02  0.17212E-03
 0.70830002E+02  0.54474E-04
 0.70880005E+02 -0.65032E-04
 0.70930008E+02 -0.11418E-03
 0.70980003E+02 -0.17177E-03
 0.71030006E+02 -0.27412E-03
 0.71080002E+02 -0.29928E-03
 0.71130005E+02 -0.20146E-03
 0.71180008E+02 -0.12807E-03
 0.71230003E+02 -0.86639E-04
 0.71280006E+02  0.63898E-05
 0.71330002E+02  0.91735E-04
 0.71380005E+02  0.15196E-03
 0.71430008E+02  0.20422E-03
 0.71480003E+02  0.26107E-03
 0.71530006E+02  0.24479E-03
 0.71580002E+02  0.15285E-03
 0.71630005E+02  0.46286E-04
 0.71680008E+02 -0.12292E-03
 0.71730003E+02 -0.26048E-03
 0.71780006E+02 -0.29440E-03
 0.71830002E+02 -0.27533E-03
 0.71880005E+02 -0.25746E-03
 0.71930008E+02 -0.19647E-03
 0.71980003E+02 -0.31697E-04
 0.72030006E+02  0.11587E-03
 0.72080002E+02  0.21589E-03
 0.72130005E+02  0.27103E-03
 0.72180008E+02  0.26764E-03
 0.72230003E+02  0.23411E-03
 0.72280006E+02  0.16377E-03
 0.72330002E+02  0.87189E-04
 0.72380005E+02 -0.19671E-04
 0.72430008E+02 -0.13226E-03
 0.72480003E+02 -0.18905E-03
 0.72530006E+02 -0.21581E-03
 0.72580002E+02 -0.20380E-03
 0.72630005E+02 -0.11403E-03
 0.72680008E+02  0.72887E-06
 0.72730003E+02  0.57394E-04
 0.72780006E+02  0.10053E-03
 0.72830002E+02  0.16023E-03
 0.72880005E+02  0.20626E-03
 0.72930008E+02  0.20014E-03
 0.72980003E+02  0.13342E-03
 0.73030006E+02  0.86926E-04
 0.73080002E+02  0.83034E-05
 0.73130005E+02 -0.11419E-03
 0.73180008E+02 -0.20011E-03
 0.73230003E+02 -0.26756E-03
 0.73280006E+02 -0.26702E-03
 0.73330002E+02 -0.17854E-03
 0.73380005E+02 -0.74443E-04
 0.73430008E+02  0.20164E-04
 0.73480003E+02  0.11787E-03
 0.73530006E+02  0.13684E-03
 0.73580002E+02  0.98717E-04
 0.73630005E+02  0.11849E-03
 0.73680008E+02  0.11670E-03
 0.73730003E+02  0.98709E-04
 0.73780006E+02  0.93932E-04
 0.73830002E+02  0.64174E-04
 0.73880005E+02  0.64816E-04
 0.73930008E+02  0.73129E-04
 0.73980003E+02  0.26099E-05
 0.74030006E+02 -0.95786E-04
 0.74080002E+02 -0.12770E-03
 0.74130005E+02 -0.17154E-03
 0.74180008E+02 -0.21502E-03
 0.74230003E+02 -0.21774E-03
 0.74280006E+02 -0.18516E-03
 0.74330002E+02 -0.63378E-04
 0.74380005E+02  0.45481E-04
 0.74430008E+02  0.10092E-03
 0.74480003E+02  0.10257E-03
 0.74530006E+02  0.81217E-04
 0.74580002E+02  0.11423E-03
 0.74630005E+02  0.12329E-03
 0.74680008E+02  0.90413E-04
 0.74730003E+02  0.23721E-04
 0.74780006E+02 -0.52236E-04
 0.74830002E+02 -0.67289E-04
 0.74880005E+02 -0.66720E-04
 0.74930008E+02 -0.67648E-04
 0.74980003E+02 -0.52125E-04
 0.75030006E+02 -0.36754E-04
 0.75080002E+02 -0.14122E-04
 0.75130005E+02  0.41212E-04
 0.75180008E+02  0.13684E-03
 0.75230003E+02  0.21979E-03
 0.75280006E+02  0.25171E-03
 0.75330002E+02  0.19932E-03
 0.75380005E+02  0.11849E-03
 0.75430008E+02  0.85476E-04
 0.75480003E+02  0.56841E-04
 0.75530006E+02  0.37045E-04
 0.75580002E+02 -0.43205E-04
 0.75630005E+02 -0.17977E-03
 0.75680008E+02 -0.27148E-03
 0.75730003E+02 -0.32036E-03
 0.75780006E+02 -0.30142E-03
 0.75830002E+02 -0.22713E-03
 0.75880005E+02 -0.13675E-03
 0.75930008E+02 -0.84667E-04
 0.75980003E+02 -0.64824E-04
 0.76030006E+02 -0.29722E-04
 0.76080002E+02  0.47992E-04
 0.76130005E+02  0.13862E-03
 0.76180008E+02  0.14185E-03
 0.76230003E+02  0.11657E-03
 0.76280006E+02  0.84374E-04
 0.76330002E+02  0.23708E-04
 0.76380005E+02 -0.46691E-05
 0.76430008E+02  0.31140E-05
 0.76480003E+02  0.16462E-04
 0.76530006E+02  0.41316E-04
 0.76580002E+02  0.15059E-03
 0.76630005E+02  0.23942E-03
 0.76680008E+02  0.22270E-03
 0.76730003E+02  0.18402E-03
 0.76780006E+02  0.97340E-04
 0.76830002E+02 -0.11734E-04
 0.76880005E+02 -0.12021E-03
 0.76930008E+02 -0.25519E-03
 0.76980003E+02 -0.33279E-03
 0.77030006E+02 -0.34215E-03
 0.77080002E+02 -0.34977E-03
 0.77130005E+02 -0.27892E-03
 0.77180008E+02 -0.74129E-04
 0.77230003E+02  0.12323E-03
 0.77280006E+02  0.25804E-03
 0.77330002E+02  0.36315E-03
 0.77380005E+02  0.36318E-03
 0.77430008E+02  0.26758E-03
 0.77480003E+02  0.18291E-03
 0.77530006E+02  0.13373E-03
 0.77580002E+02  0.72016E-04
 0.77630005E+02 -0.21606E-04
 0.77680008E+02 -0.82875E-04
 0.77730003E+02 -0.10654E-03
 0.77780006E+02 -0.12630E-03
 0.77830002E+02 -0.12038E-03
 0.77880005E+02 -0.10970E-03
 0.77930008E+02 -0.73597E-04
 0.77980003E+02  0.58007E-05
 0.78030006E+02  0.65069E-04
 0.78080002E+02  0.69149E-04
 0.78130005E+02  0.13266E-04
 0.78180008E+02 -0.69785E-04
 0.78230003E+02 -0.15324E-03
 0.78280006E+02 -0.21418E-03
 0.78330002E+02 -0.22633E-03
 0.78380005E+02 -0.20268E-03
 0.78430008E+02 -0.16425E-03
 0.78480003E+02 -0.96001E-04
 0.78530006E+02  0.79594E-05
 0.78580002E+02  0.12059E-03
 0.78630005E+02  0.22237E-03
 0.78680008E+02  0.26791E-03
 0.78730003E+02  0.24615E-03
 0.78780006E+02  0.18972E-03
 0.78830002E+02  0.14899E-03
 0.78880005E+02  0.10474E-03
 0.78930008E+02  0.44583E-04
 0.78980003E+02  0.11334E-04
 0.79030006E+02 -0.27189E-04
 0.79080002E+02 -0.31736E-04
 0.79130005E+02 -0.56952E-05
 0.79180008E+02 -0.33099E-05
 0.79230003E+02 -0.37945E-04
 0.79280006E+02 -0.10706E-03
 0.79330002E+02 -0.16084E-03
 0.79380005E+02 -0.20096E-03
 0.79430008E+02 -0.20750E-03
 0.79480003E+02 -0.18013E-03
 0.79530006E+02 -0.13115E-03
 0.79580002E+02 -0.52874E-04
 0.79630005E+02  0.11244E-04
 0.79680008E+02  0.83597E-04
 0.79730003E+02  0.15992E-03
 0.79780006E+02  0.18547E-03
 0.79830002E+02  0.20299E-03
 0.79880005E+02  0.22415E-03
 0.79930008E+02  0.20202E-03
 0.79980003E+02  0.13571E-03
 0.80030006E+02  0.64883E-04
 0.80080002E+02 -0.20334E-05
 0.80130005E+02 -0.74677E-04
 0.80180008E+02 -0.14084E-03
 0.80230003E+02 -0.19430E-03
 0.80280006E+02 -0.19299E-03
 0.80330002E+02 -0.11627E-03
 0.80380005E+02 -0.22497E-04
 0.80430008E+02  0.64775E-05
 0.80480003E+02 -0.20467E-04
 0.80530006E+02 -0.38896E-04
 0.80580002E+02 -0.36951E-04
 0.80630005E+02 -0.14504E-04
 0.80680008E+02  0.26245E-04
 0.80730003E+02  0.49156E-04
 0.80780006E+02  0.57461E-04
 0.80830002E+02  0.75865E-04
 0.80880005E+02  0.51276E-04
 0.80930008E+02  0.58982E-05
 0.80980003E+02 -0.18891E-05
 0.81030006E+02  0.11433E-04
 0.81080002E+02  0.15025E-04
 0.81130005E+02 -0.38256E-06
 0.81180008E+02 -0.54157E-05
 0.81230003E+02 -0.30247E-04
 0.81280006E+02 -0.67497E-04
 0.81330002E+02 -0.58363E-04
 0.81380005E+02 -0.20859E-04
 0.81430008E+02  0.47304E-04
 0.81480003E+02  0.11961E-03
 0.81530006E+02  0.14935E-03
 0.81580002E+02  0.14608E-03
 0.81630005E+02  0.10522E-03
 0.81680008E+02  0.43293E-04
 0.81730003E+02 -0.28293E-04
 0.81780006E+02 -0.10500E-03
 0.81830002E+02 -0.17606E-03
 0.81880005E+02 -0.25437E-03
 0.81930008E+02 -0.28195E-03
 0.81980003E+02 -0.19901E-03
 0.82030006E+02 -0.68521E-04
 0.82080002E+02  0.48275E-04
 0.82130005E+02  0.11215E-03
 0.82180008E+02  0.97160E-04
 0.82230003E+02  0.79998E-04
 0.82280006E+02  0.96021E-04
 0.82330002E+02  0.92115E-04
 0.82380005E+02  0.71191E-04
 0.82430008E+02  0.49006E-04
 0.82480003E+02  0.82154E-05
 0.82530006E+02 -0.94053E-05
 0.82580002E+02 -0.11174E-04
 0.82630005E+02 -0.26327E-04
 0.82680008E+02 -0.10984E-04
 0.82730003E+02  0.54820E-06
 0.82780006E+02  0.27136E-04
 0.82830002E+02  0.11142E-03
 0.82880005E+02  0.18099E-03
 0.82930008E+02  0.17216E-03
 0.82980003E+02  0.96190E-04
 0.83030006E+02 -0.75934E-05
 0.83080002E+02 -0.11485E-03
 0.83130005E+02 -0.16341E-03
 0.83180008E+02 -0.13993E-03
 0.83230003E+02 -0.85026E-04
 0.83280006E+02 -0.42005E-04
 0.83330002E+02 -0.42678E-04
 0.83380005E+02 -0.55348E-04
 0.83430008E+02 -0.51886E-04
 0.83480003E+02 -0.45995E-04
 0.83530006E+02 -0.17697E-04
 0.83580002E+02  0.62715E-04
 0.83630005E+02  0.11114E-03
 0.83680008E+02  0.89469E-04
 0.83730003E+02  0.55561E-04
 0.83780006E+02  0.34925E-04
 0.83830002E+02  0.26773E-04
 0.83880005E+02  0.40570E-05
 0.83930008E+02 -0.17540E-04
 0.83980003E+02 -0.41938E-04
 0.84030006E+02 -0.71094E-04
 0.84080002E+02 -0.69734E-04
 0.84130005E+02 -0.65146E-04
 0.84180008E+02 -0.60986E-04
 0.84230003E+02 -0.63657E-04
 0.84280006E+02 -0.84245E-04
 0.84330002E+02 -0.91064E-04
 0.84380005E+02 -0.87406E-04
 0.84430008E+02 -0.77382E-04
 0.84480003E+02 -0.43612E-04
 0.84530006E+02  0.25695E-04
 0.84580002E+02  0.10663E-03
 0.84630005E+02  0.16877E-03
 0.84680008E+02  0.20973E-03
 0.84730003E+02  0.19917E-03
 0.84780006E+02  0.13725E-03
 0.84830002E+02  0.72830E-04
 0.84880005E+02  0.27318E-04
 0.84930008E+02 -0.74972E-05
 0.84980003E+02 -0.37857E-04
 0.85030006E+02 -0.45420E-04
 0.85080002E+02 -0.98881E-05
 0.85130005E+02  0.41122E-04
 0.85180008E+02  0.75109E-04
 0.85230003E+02  0.94203E-04
 0.85280006E+02  0.72229E-04
 0.85330002E+02  0.17198E-04
 0.85380005E+02 -0.29905E-04
 0.85430008E+02 -0.79101E-04
 0.85480003E+02 -0.13228E-03
 0.85530006E+02 -0.14543E-03
 0.85580002E+02 -0.13698E-03
 0.85630005E+02 -0.16855E-03
 0.85680008E+02 -0.19164E-03
 0.85730003E+02 -0.17044E-03
 0.85780006E+02 -0.12676E-03
 0.85830002E+02 -0.64235E-04
 0.85880005E+02  0.28796E-05
 0.85930008E+02  0.61645E-04
 0.85980003E+02  0.10355E-03
 0.86030006E+02  0.15197E-03
 0.86080002E+02  0.19624E-03
 0.86130005E+02  0.21808E-03
 0.86180008E+02  0.23206E-03
 0.86230003E+02  0.18536E-03
 0.86280006E+02  0.82273E-04
 0.86330002E+02 -0.17082E-04
 0.86380005E+02 -0.76357E-04
 0.86430008E+02 -0.76602E-04
 0.86480003E+02 -0.71195E-04
 0.86530006E+02 -0.62595E-04
 0.86580002E+02 -0.54310E-04
 0.86630005E+02 -0.78257E-04
 0.86680008E+02 -0.10651E-03
 0.86730003E+02 -0.12294E-03
 0.86780006E+02 -0.11347E-03
 0.86830002E+02 -0.83411E-04
 0.86880005E+02 -0.41343E-04
 0.86930008E+02  0.68473E-05
 0.86980003E+02  0.50360E-04
 0.87030006E+02  0.79793E-04
 0.87080002E+02  0.93792E-04
 0.87130005E+02  0.87327E-04
 0.87180008E+02  0.58391E-04
 0.87230003E+02  0.42183E-04
 0.87280006E+02  0.12601E-04
 0.87330002E+02 -0.49553E-05
 0.87380005E+02  0.16985E-04
 0.87430008E+02  0.21690E-04
 0.87480003E+02  0.30936E-04
 0.87530006E+02  0.43653E-04
 0.87580002E+02  0.43983E-04
 0.87630005E+02  0.24874E-04
 0.87680008E+02 -0.12654E-04
 0.87730003E+02 -0.38918E-04
 0.87780006E+02 -0.79864E-04
 0.87830002E+02 -0.11630E-03
 0.87880005E+02 -0.10125E-03
 0.87930008E+02 -0.55534E-04
 0.87980003E+02 -0.13297E-04
 0.88030006E+02  0.12147E-04
 0.88080002E+02  0.28337E-04
 0.88130005E+02  0.35852E-04
 0.88180008E+02  0.44978E-04
 0.88230003E+02  0.68122E-04
 0.88280006E+02  0.60985E-04
 0.88330002E+02  0.41507E-04
 0.88380005E+02  0.38775E-04
 0.88430008E+02  0.16349E-04
 0.88480003E+02  0.69528E-05
 0.88530006E+02  0.15962E-05
 0.88580002E+02 -0.55097E-04
 0.88630005E+02 -0.12668E-03
 0.88680008E+02 -0.14612E-03
 0.88730003E+02 -0.11643E-03
 0.88780006E+02 -0.89989E-04
 0.88830002E+02 -0.69427E-04
 0.88880005E+02 -0.21373E-04
 0.88930008E+02  0.48875E-04
 0.88980003E+02  0.11292E-03
 0.89030006E+02  0.16452E-03
 0.89080002E+02  0.18792E-03
 0.89130005E+02  0.15957E-03
 0.89180008E+02  0.11098E-03
 0.89230003E+02  0.67267E-04
 0.89280006E+02 -0.45658E-05
 0.89330002E+02 -0.74305E-04
 0.89380005E+02 -0.82684E-04
 0.89430008E+02 -0.52275E-04
 0.89480003E+02 -0.26043E-04
 0.89530006E+02 -0.28667E-04
 0.89580002E+02 -0.23350E-04
 0.89630005E+02  0.31430E-05
 0.89680008E+02 -0.22345E-06
 0.89730003E+02 -0.34357E-04
 0.89780006E+02 -0.81790E-04
 0.89830002E+02 -0.97584E-04
 0.89880005E+02 -0.84088E-04
 0.89930008E+02 -0.86751E-04
 0.89980003E+02 -0.75778E-04
 0.90030006E+02 -0.41451E-04
 0.90080002E+02  0.13000E-04
 0.90130005E+02  0.73298E-04
 0.90180008E+02  0.96967E-04
 0.90230003E+02  0.11203E-03
 0.90280006E+02  0.11814E-03
 0.90330002E+02  0.79644E-04
 0.90380005E+02  0.50832E-04
 0.90430008E+02  0.41655E-04
 0.90480003E+02  0.95717E-05
 0.90530006E+02 -0.16919E-04
 0.90580002E+02 -0.16478E-04
 0.90630005E+02 -0.55276E-05
 0.90680008E+02 -0.19509E-05
 0.90730003E+02 -0.16668E-04
 0.90780006E+02 -0.45902E-04
 0.90830002E+02 -0.87317E-04
 0.90880005E+02 -0.11205E-03
 0.90930008E+02 -0.10885E-03
 0.90980003E+02 -0.96485E-04
 0.91030006E+02 -0.62605E-04
 0.91080002E+02 -0.22565E-04
 0.91130005E+02  0.33787E-04
 0.91180008E+02  0.11165E-03
 0.91230003E+02  0.14763E-03
 0.91280006E+02  0.14776E-03
 0.91330002E+02  0.12625E-03
 0.91380005E+02  0.88465E-04
 0.91430008E+02  0.66046E-04
 0.91480003E+02  0.38262E-04
 0.91530006E+02  0.14852E-04
 0.91580002E+02  0.15407E-04
 0.91630005E+02 -0.11325E-04
 0.91680008E+02 -0.64892E-04
 0.91730003E+02 -0.93699E-04
 0.91780006E+02 -0.11068E-03
 0.91830002E+02 -0.11572E-03
 0.91880005E+02 -0.91260E-04
 0.91930008E+02 -0.71897E-04
 0.91980003E+02 -0.63623E-04
 0.92030006E+02 -0.50793E-04
 0.92080002E+02 -0.29483E-04
 0.92130005E+02 -0.56860E-05
 0.92180008E+02  0.52330E-05
 0.92230003E+02  0.95204E-05
 0.92280006E+02  0.16984E-04
 0.92330002E+02  0.28102E-04
 0.92380005E+02  0.38854E-04
 0.92430008E+02  0.52719E-04
 0.92480003E+02  0.64486E-04
 0.92530006E+02  0.64900E-04
 0.92580002E+02  0.54938E-04
 0.92630005E+02  0.64130E-04
 0.92680008E+02  0.97810E-04
 0.92730003E+02  0.96059E-04
 0.92780006E+02  0.66044E-04
 0.92830002E+02  0.18792E-04
 0.92880005E+02 -0.34823E-04
 0.92930008E+02 -0.52607E-04
 0.92980003E+02 -0.69741E-04
 0.93030006E+02 -0.91994E-04
 0.93080002E+02 -0.91574E-04
 0.93130005E+02 -0.63284E-04
 0.93180008E+02 -0.35544E-04
 0.93230003E+02 -0.27432E-04
 0.93280006E+02 -0.10131E-04
 0.93330002E+02 -0.10693E-04
 0.93380005E+02 -0.47431E-04
 0.93430008E+02 -0.81822E-04
 0.93480003E+02 -0.80544E-04
 0.93530006E+02 -0.38933E-04
 0.93580002E+02  0.16706E-04
 0.93630005E+02  0.74291E-04
 0.93680008E+02  0.12592E-03
 0.93730003E+02  0.14867E-03
 0.93780006E+02  0.15018E-03
 0.93830002E+02  0.14273E-03
 0.93880005E+02  0.11817E-03
 0.93930008E+02  0.59882E-04
 0.93980003E+02 -0.28542E-04
 0.94030006E+02 -0.89054E-04
 0.94080002E+02 -0.10402E-03
 0.94130005E+02 -0.10768E-03
 0.94180008E+02 -0.11433E-03
 0.94230003E+02 -0.11462E-03
 0.94280006E+02 -0.10049E-03
 0.94330002E+02 -0.79909E-04
 0.94380005E+02 -0.54057E-04
 0.94430008E+02 -0.26581E-04
 0.94480003E+02 -0.46999E-05
 0.94530006E+02  0.21268E-04
 0.94580002E+02  0.63298E-04
 0.94630005E+02  0.11290E-03
 0.94680008E+02  0.15727E-03
 0.94730003E+02  0.16575E-03
 0.94780006E+02  0.13169E-03
 0.94830002E+02  0.90826E-04
 0.94880005E+02  0.25974E-04
 0.94930008E+02 -0.52497E-04
 0.94980003E+02 -0.10411E-03
 0.95030006E+02 -0.13504E-03
 0.95080002E+02 -0.14187E-03
 0.95130005E+02 -0.13388E-03
 0.95180008E+02 -0.11899E-03
 0.95230003E+02 -0.89113E-04
 0.95280006E+02 -0.46406E-04
 0.95330002E+02  0.89649E-05
 0.95380005E+02  0.71998E-04
 0.95430008E+02  0.11599E-03
 0.95480003E+02  0.13044E-03
 0.95530006E+02  0.14232E-03
 0.95580002E+02  0.13789E-03
 0.95630005E+02  0.97555E-04
 0.95680008E+02  0.45325E-04
 0.95730003E+02 -0.38500E-05
 0.95780006E+02 -0.49577E-04
 0.95830002E+02 -0.88164E-04
 0.95880005E+02 -0.10599E-03
 0.95930008E+02 -0.10294E-03
 0.95980003E+02 -0.87343E-04
 0.96030006E+02 -0.53636E-04
 0.96080002E+02 -0.30118E-04
 0.96130005E+02 -0.39009E-04
 0.96180008E+02 -0.32520E-04
 0.96230003E+02 -0.54800E-05
 0.96280006E+02  0.27830E-04
 0.96330002E+02  0.68366E-04
 0.96380005E+02  0.81562E-04
 0.96430008E+02  0.70360E-04
 0.96480003E+02  0.51527E-04
 0.96530006E+02  0.45825E-04
 0.96580002E+02  0.44283E-04
 0.96630005E+02  0.28693E-04
 0.96680008E+02  0.14939E-04
 0.96730003E+02 -0.64927E-05
 0.96780006E+02 -0.17981E-04
 0.96830002E+02 -0.99393E-05
 0.96880005E+02  0.14351E-04
 0.96930008E+02  0.44366E-04
 0.96980003E+02  0.45628E-04
 0.97030006E+02  0.25490E-04
 0.97080002E+02  0.40730E-05
 0.97130005E+02 -0.19821E-04
 0.97180008E+02 -0.51431E-04
 0.97230003E+02 -0.66502E-04
 0.97280006E+02 -0.74174E-04
 0.97330002E+02 -0.10081E-03
 0.97380005E+02 -0.11564E-03
 0.97430008E+02 -0.12034E-03
 0.97480003E+02 -0.11566E-03
 0.97530006E+02 -0.83156E-04
 0.97580002E+02 -0.46195E-04
 0.97630005E+02 -0.24249E-05
 0.97680008E+02  0.46644E-04
 0.97730003E+02  0.88356E-04
 0.97780006E+02  0.12877E-03
 0.97830002E+02  0.13821E-03
 0.97880005E+02  0.12402E-03
 0.97930008E+02  0.11256E-03
 0.97980003E+02  0.94945E-04
 0.98030006E+02  0.77701E-04
 0.98080002E+02  0.42256E-04
 0.98130005E+02 -0.18797E-04
 0.98180008E+02 -0.76375E-04
 0.98230003E+02 -0.12157E-03
 0.98280006E+02 -0.14289E-03
 0.98330002E+02 -0.12894E-03
 0.98380005E+02 -0.90114E-04
 0.98430008E+02 -0.50955E-04
 0.98480003E+02 -0.22349E-04
 0.98530006E+02 -0.16527E-05
 0.98580002E+02  0.16396E-04
 0.98630005E+02  0.34889E-04
 0.98680008E+02  0.50919E-04
 0.98730003E+02  0.75793E-04
 0.98780006E+02  0.10409E-03
 0.98830002E+02  0.11011E-03
 0.98880005E+02  0.86558E-04
 0.98930008E+02  0.67782E-04
 0.98980003E+02  0.57867E-04
 0.99030006E+02  0.37159E-04
 0.99080002E+02  0.21211E-04
 0.99130005E+02 -0.90982E-06
 0.99180008E+02 -0.26670E-04
 0.99230003E+02 -0.39451E-04
 0.99280006E+02 -0.38993E-04
 0.99330002E+02 -0.23476E-04
 0.99380005E+02 -0.30397E-05
 0.99430008E+02  0.87709E-05
 0.99480003E+02  0.32502E-05
 0.99530006E+02 -0.98775E-05
 0.99580002E+02 -0.31807E-04
 0.99630005E+02 -0.76355E-04
 0.99680008E+02 -0.11691E-03
 0.99730003E+02 -0.13034E-03
 0.99780006E+02 -0.12567E-03
 0.99830002E+02 -0.10591E-03
 0.99880005E+02 -0.75731E-04
 0.99930008E+02 -0.41861E-04
 0.99980003E+02 -0.27090E-05
