-0.19996643E-01 -0.24101E-06
 0.30003358E-01 -0.14240E-06
 0.80003358E-01 -0.82043E-07
 0.13000336E+00 -0.19631E-07
 0.18000336E+00  0.76494E-08
 0.23000336E+00  0.38856E-07
 0.28000337E+00  0.59329E-07
 0.33000335E+00  0.41831E-07
 0.38000336E+00  0.31625E-07
 0.43000337E+00  0.22539E-07
 0.48000336E+00  0.10126E-07
 0.53000337E+00  0.45344E-08
 0.58000338E+00  0.13715E-07
 0.63000339E+00  0.10543E-07
 0.68000335E+00 -0.19395E-07
 0.73000336E+00 -0.11175E-07
 0.78000337E+00  0.77277E-08
 0.83000338E+00  0.11272E-07
 0.88000339E+00  0.74672E-08
 0.93000335E+00  0.40238E-07
 0.98000336E+00  0.40913E-07
 0.10300034E+01  0.39651E-07
 0.10800034E+01  0.64305E-07
 0.11300033E+01  0.30784E-07
 0.11800034E+01  0.50979E-07
 0.12300034E+01  0.43124E-07
 0.12800034E+01  0.33429E-07
 0.13300034E+01  0.20148E-07
 0.13800033E+01 -0.19432E-07
 0.14300034E+01  0.26375E-07
 0.14800034E+01  0.11061E-07
 0.15300034E+01 -0.31084E-07
 0.15800034E+01 -0.32140E-07
 0.16300033E+01 -0.99431E-08
 0.16800034E+01  0.82748E-08
 0.17300034E+01 -0.41816E-08
 0.17800034E+01  0.19201E-07
 0.18300034E+01  0.31064E-07
 0.18800033E+01 -0.60006E-08
 0.19300034E+01 -0.24117E-07
 0.19800034E+01 -0.31609E-08
 0.20300033E+01 -0.49845E-08
 0.20800035E+01 -0.49579E-08
 0.21300035E+01  0.19729E-07
 0.21800034E+01 -0.11383E-07
 0.22300034E+01 -0.35197E-07
 0.22800033E+01 -0.24565E-07
 0.23300035E+01 -0.17364E-07
 0.23800035E+01 -0.13738E-07
 0.24300034E+01 -0.48507E-07
 0.24800034E+01 -0.38659E-07
 0.25300033E+01 -0.35205E-07
 0.25800035E+01 -0.54832E-07
 0.26300035E+01 -0.47895E-07
 0.26800034E+01 -0.51932E-07
 0.27300034E+01 -0.32047E-07
 0.27800033E+01 -0.42184E-07
 0.28300035E+01 -0.34156E-07
 0.28800035E+01  0.15893E-08
 0.29300034E+01  0.13092E-08
 0.29800034E+01  0.18201E-08
 0.30300033E+01  0.63784E-08
 0.30800035E+01  0.30276E-07
 0.31300035E+01  0.39987E-07
 0.31800034E+01  0.68866E-07
 0.32300034E+01  0.88222E-07
 0.32800033E+01  0.62513E-07
 0.33300035E+01  0.59703E-07
 0.33800035E+01  0.64247E-07
 0.34300034E+01  0.51654E-07
 0.34800034E+01  0.33062E-07
 0.35300033E+01  0.35591E-07
 0.35800035E+01  0.14061E-07
 0.36300035E+01  0.86733E-08
 0.36800034E+01  0.25609E-07
 0.37300034E+01  0.45718E-08
 0.37800033E+01  0.20952E-07
 0.38300035E+01  0.33355E-07
 0.38800035E+01  0.16349E-07
 0.39300034E+01  0.61177E-08
 0.39800034E+01 -0.37542E-07
 0.40300035E+01 -0.56957E-07
 0.40800033E+01 -0.32205E-07
 0.41300035E+01 -0.18121E-07
 0.41800036E+01 -0.19967E-07
 0.42300034E+01 -0.18751E-07
 0.42800035E+01 -0.19648E-07
 0.43300033E+01 -0.19838E-07
 0.43800035E+01  0.94857E-08
 0.44300036E+01  0.12013E-07
 0.44800034E+01  0.13464E-07
 0.45300035E+01  0.22863E-07
 0.45800033E+01  0.51700E-08
 0.46300035E+01 -0.20917E-07
 0.46800036E+01 -0.36763E-07
 0.47300034E+01  0.69575E-08
 0.47800035E+01  0.27675E-07
 0.48300033E+01  0.18048E-07
 0.48800035E+01  0.19178E-07
 0.49300036E+01  0.52312E-08
 0.49800034E+01  0.42220E-08
 0.50300035E+01  0.21141E-07
 0.50800033E+01  0.37456E-07
 0.51300035E+01  0.32178E-07
 0.51800036E+01  0.27003E-07
 0.52300034E+01  0.17934E-07
 0.52800035E+01  0.11075E-07
 0.53300033E+01  0.23692E-07
 0.53800035E+01 -0.13490E-07
 0.54300036E+01 -0.48190E-07
 0.54800034E+01 -0.33549E-07
 0.55300035E+01 -0.40562E-07
 0.55800033E+01 -0.46178E-07
 0.56300035E+01 -0.44081E-07
 0.56800036E+01 -0.63069E-07
 0.57300034E+01 -0.82117E-07
 0.57800035E+01 -0.60680E-07
 0.58300033E+01 -0.27732E-07
 0.58800035E+01 -0.40582E-07
 0.59300036E+01 -0.38401E-07
 0.59800034E+01 -0.27153E-07
 0.60300035E+01 -0.26909E-07
 0.60800033E+01 -0.14246E-07
 0.61300035E+01 -0.27660E-07
 0.61800036E+01 -0.18921E-07
 0.62300034E+01  0.23616E-07
 0.62800035E+01  0.21944E-07
 0.63300033E+01 -0.38876E-09
 0.63800035E+01 -0.10304E-07
 0.64300036E+01 -0.19814E-07
 0.64800034E+01 -0.28350E-08
 0.65300035E+01  0.11863E-07
 0.65800033E+01 -0.75172E-09
 0.66300035E+01 -0.11169E-07
 0.66800036E+01  0.10104E-07
 0.67300034E+01  0.30893E-07
 0.67800035E+01  0.24635E-07
 0.68300033E+01  0.32967E-07
 0.68800035E+01  0.34469E-07
 0.69300036E+01  0.30275E-07
 0.69800034E+01  0.47038E-07
 0.70300035E+01  0.30932E-07
 0.70800033E+01  0.57830E-08
 0.71300035E+01  0.35132E-08
 0.71800036E+01 -0.10559E-07
 0.72300034E+01  0.47390E-08
 0.72800035E+01 -0.49289E-08
 0.73300033E+01 -0.15906E-07
 0.73800035E+01  0.85715E-08
 0.74300036E+01  0.68700E-08
 0.74800034E+01  0.33080E-07
 0.75300035E+01  0.42059E-07
 0.75800033E+01  0.35288E-07
 0.76300035E+01  0.43230E-07
 0.76800036E+01  0.55992E-07
 0.77300034E+01  0.60873E-07
 0.77800035E+01  0.22507E-07
 0.78300033E+01  0.29118E-07
 0.78800035E+01  0.17092E-07
 0.79300036E+01 -0.16663E-07
 0.79800034E+01  0.99783E-08
 0.80300035E+01  0.22682E-07
 0.80800037E+01  0.87149E-08
 0.81300039E+01 -0.13278E-07
 0.81800032E+01  0.34276E-09
 0.82300034E+01  0.22579E-07
 0.82800035E+01  0.13143E-07
 0.83300037E+01  0.28714E-07
 0.83800039E+01  0.45148E-07
 0.84300032E+01  0.32963E-07
 0.84800034E+01  0.21703E-07
 0.85300035E+01  0.11998E-08
 0.85800037E+01 -0.19607E-07
 0.86300039E+01 -0.14266E-07
 0.86800032E+01 -0.33289E-08
 0.87300034E+01 -0.79835E-08
 0.87800035E+01 -0.25845E-07
 0.88300037E+01 -0.36021E-07
 0.88800039E+01 -0.26920E-07
 0.89300032E+01 -0.36826E-07
 0.89800034E+01 -0.41813E-07
 0.90300035E+01 -0.38469E-07
 0.90800037E+01 -0.45966E-07
 0.91300039E+01 -0.26790E-07
 0.91800032E+01 -0.49741E-07
 0.92300034E+01 -0.78768E-07
 0.92800035E+01 -0.65591E-07
 0.93300037E+01 -0.57442E-07
 0.93800039E+01 -0.47203E-07
 0.94300032E+01 -0.53158E-07
 0.94800034E+01 -0.69418E-07
 0.95300035E+01 -0.61537E-07
 0.95800037E+01 -0.37613E-07
 0.96300039E+01 -0.44713E-07
 0.96800032E+01 -0.27770E-07
 0.97300034E+01 -0.55203E-08
 0.97800035E+01 -0.24628E-07
 0.98300037E+01 -0.14214E-07
 0.98800039E+01  0.33794E-07
 0.99300032E+01  0.34813E-07
 0.99800034E+01  0.25109E-07
 0.10030004E+02  0.43926E-07
 0.10080004E+02  0.12676E-07
 0.10130004E+02  0.43739E-07
 0.10180003E+02  0.63729E-07
 0.10230003E+02  0.58697E-07
 0.10280004E+02  0.76220E-07
 0.10330004E+02  0.37169E-07
 0.10380004E+02  0.48927E-07
 0.10430003E+02  0.43386E-07
 0.10480003E+02  0.12474E-07
 0.10530004E+02  0.25467E-07
 0.10580004E+02  0.19021E-07
 0.10630004E+02 -0.85247E-08
 0.10680003E+02 -0.10784E-07
 0.10730003E+02  0.25589E-08
 0.10780004E+02  0.96371E-09
 0.10830004E+02  0.22145E-07
 0.10880004E+02  0.32360E-07
 0.10930003E+02  0.10846E-07
 0.10980003E+02  0.10501E-07
 0.11030004E+02 -0.12448E-07
 0.11080004E+02  0.20387E-07
 0.11130004E+02  0.41002E-07
 0.11180003E+02 -0.12336E-07
 0.11230003E+02  0.41837E-08
 0.11280004E+02 -0.27336E-07
 0.11330004E+02 -0.41775E-07
 0.11380004E+02 -0.78895E-08
 0.11430003E+02 -0.24915E-07
 0.11480003E+02 -0.19111E-07
 0.11530004E+02 -0.26585E-07
 0.11580004E+02 -0.41976E-07
 0.11630004E+02 -0.19031E-07
 0.11680003E+02 -0.10744E-07
 0.11730003E+02  0.14024E-08
 0.11780004E+02  0.23404E-07
 0.11830004E+02  0.12955E-07
 0.11880004E+02  0.37044E-07
 0.11930003E+02  0.19676E-07
 0.11980003E+02  0.24065E-07
 0.12030004E+02  0.73092E-07
 0.12080004E+02  0.25054E-07
 0.12130004E+02  0.24859E-07
 0.12180003E+02  0.34674E-07
 0.12230003E+02  0.13116E-07
 0.12280004E+02  0.50001E-08
 0.12330004E+02 -0.15329E-07
 0.12380004E+02 -0.31114E-07
 0.12430003E+02 -0.59827E-07
 0.12480003E+02 -0.74232E-07
 0.12530004E+02 -0.52440E-07
 0.12580004E+02 -0.67958E-08
 0.12630004E+02 -0.20745E-07
 0.12680003E+02 -0.24841E-07
 0.12730003E+02 -0.63737E-08
 0.12780004E+02 -0.23462E-07
 0.12830004E+02 -0.10652E-07
 0.12880004E+02  0.16324E-07
 0.12930003E+02  0.24754E-07
 0.12980003E+02 -0.76386E-08
 0.13030004E+02 -0.22229E-07
 0.13080004E+02 -0.21446E-07
 0.13130004E+02 -0.26780E-07
 0.13180003E+02 -0.15318E-07
 0.13230003E+02  0.22311E-07
 0.13280004E+02  0.32705E-08
 0.13330004E+02 -0.26711E-07
 0.13380004E+02  0.24246E-07
 0.13430003E+02  0.52426E-08
 0.13480003E+02  0.41727E-08
 0.13530004E+02  0.22648E-07
 0.13580004E+02  0.13579E-07
 0.13630004E+02  0.36514E-07
 0.13680003E+02  0.23222E-07
 0.13730003E+02  0.33523E-07
 0.13780004E+02  0.35845E-07
 0.13830004E+02  0.37637E-07
 0.13880004E+02  0.58841E-07
 0.13930003E+02  0.51400E-07
 0.13980003E+02  0.25787E-07
 0.14030004E+02  0.21155E-08
 0.14080004E+02  0.59976E-07
 0.14130004E+02  0.66007E-07
 0.14180003E+02  0.23190E-07
 0.14230003E+02  0.14558E-07
 0.14280004E+02 -0.20001E-07
 0.14330004E+02  0.59953E-08
 0.14380004E+02  0.13831E-07
 0.14430003E+02 -0.10108E-07
 0.14480003E+02 -0.67437E-08
 0.14530004E+02 -0.24735E-07
 0.14580004E+02 -0.27522E-07
 0.14630004E+02 -0.33465E-07
 0.14680003E+02 -0.13898E-07
 0.14730003E+02 -0.10179E-07
 0.14780004E+02 -0.46368E-07
 0.14830004E+02 -0.35215E-07
 0.14880004E+02 -0.60248E-07
 0.14930003E+02 -0.86981E-07
 0.14980003E+02 -0.65307E-07
 0.15030004E+02 -0.65259E-07
 0.15080004E+02 -0.75503E-07
 0.15130004E+02 -0.86751E-07
 0.15180003E+02 -0.85405E-07
 0.15230003E+02 -0.59775E-07
 0.15280004E+02 -0.55247E-07
 0.15330004E+02 -0.39549E-07
 0.15380004E+02 -0.18346E-07
 0.15430003E+02 -0.27545E-07
 0.15480003E+02 -0.10940E-07
 0.15530004E+02  0.97406E-08
 0.15580004E+02  0.21824E-07
 0.15630004E+02  0.21056E-07
 0.15680003E+02  0.51101E-07
 0.15730003E+02  0.55523E-07
 0.15780004E+02  0.35197E-07
 0.15830004E+02  0.58327E-07
 0.15880004E+02  0.78026E-07
 0.15930003E+02  0.10747E-06
 0.15980003E+02  0.82705E-07
 0.16030005E+02  0.54607E-07
 0.16080004E+02  0.50504E-07
 0.16130003E+02  0.34265E-07
 0.16180004E+02  0.42584E-07
 0.16230003E+02  0.42907E-07
 0.16280005E+02  0.35290E-07
 0.16330004E+02  0.92672E-08
 0.16380003E+02 -0.21696E-07
 0.16430004E+02 -0.59898E-08
 0.16480003E+02 -0.85661E-08
 0.16530005E+02 -0.13509E-07
 0.16580004E+02  0.10667E-07
 0.16630003E+02  0.62163E-08
 0.16680004E+02  0.16688E-08
 0.16730003E+02 -0.19685E-07
 0.16780005E+02 -0.67314E-08
 0.16830004E+02  0.10075E-07
 0.16880003E+02 -0.46251E-08
 0.16930004E+02  0.14386E-08
 0.16980003E+02 -0.91122E-08
 0.17030005E+02 -0.13158E-07
 0.17080004E+02 -0.95223E-08
 0.17130003E+02 -0.20492E-08
 0.17180004E+02 -0.13405E-07
 0.17230003E+02 -0.15633E-07
 0.17280005E+02 -0.24161E-07
 0.17330004E+02 -0.27292E-07
 0.17380003E+02  0.55197E-08
 0.17430004E+02 -0.37219E-08
 0.17480003E+02  0.17910E-08
 0.17530005E+02 -0.99371E-08
 0.17580004E+02 -0.28200E-07
 0.17630003E+02 -0.18150E-07
 0.17680004E+02 -0.20990E-07
 0.17730003E+02 -0.32198E-08
 0.17780005E+02  0.79967E-10
 0.17830004E+02  0.49751E-08
 0.17880003E+02  0.23233E-07
 0.17930004E+02  0.32678E-07
 0.17980003E+02  0.21389E-07
 0.18030005E+02  0.11236E-07
 0.18080004E+02  0.21728E-07
 0.18130003E+02  0.31883E-07
 0.18180004E+02  0.29867E-07
 0.18230003E+02  0.18217E-07
 0.18280005E+02  0.11271E-07
 0.18330004E+02 -0.26319E-07
 0.18380003E+02 -0.44732E-07
 0.18430004E+02 -0.52549E-07
 0.18480003E+02 -0.72839E-07
 0.18530005E+02 -0.63288E-07
 0.18580004E+02 -0.53273E-07
 0.18630003E+02 -0.44957E-07
 0.18680004E+02 -0.42378E-07
 0.18730003E+02 -0.27771E-07
 0.18780005E+02 -0.20946E-07
 0.18830004E+02 -0.21535E-08
 0.18880003E+02 -0.17383E-07
 0.18930004E+02 -0.23764E-07
 0.18980003E+02  0.13046E-07
 0.19030005E+02 -0.41983E-07
 0.19080004E+02 -0.44460E-07
 0.19130003E+02 -0.26163E-07
 0.19180004E+02 -0.36598E-07
 0.19230003E+02  0.77953E-08
 0.19280005E+02  0.17337E-07
 0.19330004E+02  0.22462E-07
 0.19380003E+02  0.18772E-07
 0.19430004E+02  0.47525E-07
 0.19480003E+02  0.95172E-07
 0.19530005E+02  0.64768E-07
 0.19580004E+02  0.59960E-07
 0.19630003E+02  0.38929E-07
 0.19680004E+02  0.19130E-07
 0.19730003E+02  0.66967E-07
 0.19780005E+02  0.28206E-07
 0.19830004E+02  0.33311E-07
 0.19880003E+02  0.16799E-07
 0.19930004E+02  0.50618E-07
 0.19980003E+02 -0.33620E-07
 0.20030005E+02  0.73019E-07
 0.20080004E+02  0.34451E-08
 0.20130003E+02  0.54042E-07
 0.20180004E+02  0.22864E-07
 0.20230003E+02 -0.80934E-07
 0.20280005E+02  0.13379E-07
 0.20330004E+02 -0.57379E-06
 0.20380003E+02 -0.10037E-05
 0.20430004E+02 -0.32237E-05
 0.20480003E+02 -0.46182E-05
 0.20530005E+02 -0.96528E-05
 0.20580004E+02 -0.13251E-04
 0.20630003E+02 -0.19333E-04
 0.20680004E+02 -0.87138E-05
 0.20730003E+02  0.16411E-04
 0.20780005E+02  0.18314E-04
 0.20830004E+02  0.10051E-04
 0.20880003E+02 -0.97524E-06
 0.20930004E+02  0.82889E-05
 0.20980003E+02  0.27243E-04
 0.21030005E+02  0.50631E-04
 0.21080004E+02  0.44543E-04
 0.21130003E+02  0.56847E-04
 0.21180004E+02  0.37059E-04
 0.21230003E+02 -0.36872E-04
 0.21280005E+02 -0.20291E-04
 0.21330004E+02 -0.15253E-04
 0.21380003E+02 -0.18916E-04
 0.21430004E+02 -0.11918E-03
 0.21480003E+02 -0.20706E-03
 0.21530005E+02 -0.81616E-04
 0.21580004E+02  0.38705E-04
 0.21630003E+02  0.20308E-04
 0.21680004E+02  0.52658E-04
 0.21730003E+02  0.13132E-03
 0.21780005E+02  0.37283E-04
 0.21830004E+02 -0.31191E-04
 0.21880003E+02 -0.91169E-04
 0.21930004E+02  0.37078E-04
 0.21980003E+02  0.20590E-03
 0.22030005E+02  0.60923E-04
 0.22080004E+02 -0.22739E-04
 0.22130003E+02 -0.33017E-04
 0.22180004E+02  0.59095E-04
 0.22230003E+02  0.42750E-04
 0.22280005E+02 -0.11205E-03
 0.22330004E+02 -0.13413E-04
 0.22380003E+02  0.42223E-04
 0.22430004E+02 -0.96265E-04
 0.22480003E+02 -0.85389E-04
 0.22530005E+02 -0.75858E-05
 0.22580004E+02 -0.18462E-04
 0.22630003E+02 -0.45528E-04
 0.22680004E+02 -0.10572E-03
 0.22730003E+02  0.25644E-04
 0.22780005E+02  0.17317E-03
 0.22830004E+02  0.43003E-04
 0.22880003E+02 -0.99672E-04
 0.22930004E+02 -0.34327E-06
 0.22980003E+02  0.84900E-04
 0.23030005E+02  0.26585E-04
 0.23080004E+02  0.53654E-04
 0.23130003E+02 -0.35757E-04
 0.23180004E+02 -0.10029E-04
 0.23230003E+02  0.51366E-04
 0.23280005E+02 -0.17297E-03
 0.23330004E+02 -0.38751E-04
 0.23380003E+02  0.11626E-03
 0.23430004E+02  0.46719E-04
 0.23480003E+02  0.84760E-04
 0.23530005E+02 -0.89764E-04
 0.23580004E+02 -0.88936E-04
 0.23630003E+02  0.56966E-04
 0.23680004E+02  0.20806E-04
 0.23730003E+02 -0.32880E-04
 0.23780005E+02 -0.12482E-03
 0.23830004E+02 -0.11526E-04
 0.23880003E+02  0.18221E-03
 0.23930004E+02  0.19712E-03
 0.23980003E+02  0.20474E-04
 0.24030005E+02 -0.49778E-04
 0.24080004E+02  0.45948E-04
 0.24130003E+02 -0.78744E-04
 0.24180004E+02 -0.12670E-03
 0.24230003E+02 -0.69183E-04
 0.24280005E+02  0.47379E-04
 0.24330004E+02  0.86586E-04
 0.24380003E+02 -0.19785E-03
 0.24430004E+02 -0.15740E-03
 0.24480003E+02  0.11068E-03
 0.24530005E+02  0.96886E-04
 0.24580004E+02 -0.12079E-03
 0.24630003E+02 -0.22780E-03
 0.24680004E+02 -0.35057E-05
 0.24730003E+02  0.21658E-03
 0.24780005E+02  0.19722E-03
 0.24830004E+02 -0.50855E-04
 0.24880003E+02 -0.46684E-04
 0.24930004E+02  0.14887E-03
 0.24980003E+02  0.61398E-04
 0.25030005E+02  0.35249E-04
 0.25080004E+02  0.10089E-03
 0.25130003E+02  0.26622E-04
 0.25180004E+02 -0.16099E-03
 0.25230003E+02 -0.12265E-03
 0.25280005E+02 -0.21479E-04
 0.25330004E+02  0.50945E-04
 0.25380003E+02  0.14677E-04
 0.25430004E+02 -0.22643E-03
 0.25480003E+02 -0.64229E-04
 0.25530005E+02 -0.77520E-05
 0.25580004E+02  0.25527E-04
 0.25630003E+02  0.21963E-03
 0.25680004E+02  0.20790E-03
 0.25730003E+02  0.15887E-03
 0.25780005E+02 -0.23175E-03
 0.25830004E+02 -0.29610E-03
 0.25880003E+02  0.33956E-04
 0.25930004E+02  0.91937E-04
 0.25980003E+02  0.47014E-04
 0.26030005E+02 -0.56116E-04
 0.26080004E+02 -0.12162E-03
 0.26130003E+02 -0.44222E-05
 0.26180004E+02  0.46714E-04
 0.26230003E+02 -0.10541E-03
 0.26280005E+02 -0.70423E-04
 0.26330004E+02 -0.11012E-04
 0.26380003E+02  0.15417E-03
 0.26430004E+02  0.27425E-03
 0.26480003E+02  0.22928E-03
 0.26530005E+02  0.21547E-03
 0.26580004E+02 -0.15377E-03
 0.26630003E+02 -0.24987E-03
 0.26680004E+02 -0.22213E-04
 0.26730003E+02  0.51070E-04
 0.26780005E+02 -0.61905E-04
 0.26830004E+02 -0.11226E-03
 0.26880003E+02  0.34917E-04
 0.26930004E+02  0.24042E-04
 0.26980003E+02  0.57846E-04
 0.27030005E+02 -0.68980E-06
 0.27080004E+02 -0.29053E-04
 0.27130003E+02 -0.32372E-04
 0.27180004E+02 -0.25132E-03
 0.27230003E+02 -0.15268E-03
 0.27280005E+02  0.64305E-04
 0.27330004E+02 -0.44156E-04
 0.27380003E+02 -0.81957E-04
 0.27430004E+02  0.19554E-03
 0.27480003E+02  0.37963E-03
 0.27530005E+02  0.14444E-03
 0.27580004E+02 -0.22011E-03
 0.27630003E+02 -0.20934E-03
 0.27680004E+02 -0.12048E-03
 0.27730003E+02 -0.70508E-04
 0.27780005E+02  0.24190E-04
 0.27830004E+02  0.19800E-03
 0.27880003E+02  0.26806E-03
 0.27930004E+02 -0.10014E-03
 0.27980003E+02 -0.80619E-04
 0.28030005E+02  0.18457E-03
 0.28080004E+02  0.90006E-04
 0.28130003E+02 -0.12715E-03
 0.28180004E+02 -0.82062E-04
 0.28230003E+02  0.30850E-04
 0.28280005E+02 -0.58408E-04
 0.28330004E+02 -0.31405E-05
 0.28380003E+02 -0.99574E-04
 0.28430004E+02 -0.10960E-03
 0.28480003E+02  0.56567E-04
 0.28530005E+02  0.15487E-04
 0.28580004E+02 -0.15210E-03
 0.28630003E+02 -0.10215E-03
 0.28680004E+02  0.20942E-03
 0.28730003E+02  0.15749E-03
 0.28780005E+02  0.30414E-04
 0.28830004E+02  0.70800E-04
 0.28880003E+02 -0.29153E-05
 0.28930004E+02 -0.75093E-04
 0.28980003E+02  0.17447E-04
 0.29030005E+02 -0.26528E-04
 0.29080004E+02 -0.15549E-03
 0.29130003E+02  0.96105E-04
 0.29180004E+02  0.14946E-03
 0.29230003E+02 -0.62494E-04
 0.29280005E+02 -0.55124E-04
 0.29330004E+02 -0.86975E-04
 0.29380003E+02 -0.13943E-03
 0.29430004E+02  0.10700E-03
 0.29480003E+02  0.27113E-03
 0.29530005E+02 -0.52827E-04
 0.29580004E+02 -0.16319E-03
 0.29630003E+02  0.15257E-04
 0.29680004E+02  0.51824E-04
 0.29730003E+02  0.10764E-03
 0.29780005E+02 -0.38638E-04
 0.29830004E+02 -0.11370E-03
 0.29880003E+02 -0.37219E-04
 0.29930004E+02  0.31767E-04
 0.29980003E+02  0.60805E-04
 0.30030005E+02 -0.80541E-05
 0.30080004E+02  0.94261E-04
 0.30130003E+02  0.50788E-04
 0.30180004E+02 -0.42630E-04
 0.30230003E+02  0.86757E-04
 0.30280005E+02  0.24469E-03
 0.30330004E+02  0.87724E-04
 0.30380003E+02 -0.57420E-05
 0.30430004E+02 -0.12798E-03
 0.30480003E+02 -0.31923E-03
 0.30530005E+02 -0.18594E-03
 0.30580004E+02 -0.27244E-03
 0.30630003E+02 -0.21678E-03
 0.30680004E+02 -0.17399E-03
 0.30730003E+02 -0.12096E-04
 0.30780005E+02  0.11832E-03
 0.30830004E+02 -0.51633E-04
 0.30880003E+02  0.17918E-03
 0.30930004E+02  0.31903E-03
 0.30980003E+02  0.35609E-03
 0.31030005E+02  0.14232E-03
 0.31080004E+02 -0.99682E-06
 0.31130003E+02  0.22181E-03
 0.31180004E+02  0.90565E-04
 0.31230003E+02 -0.97789E-04
 0.31280005E+02 -0.26790E-03
 0.31330004E+02 -0.30796E-03
 0.31380003E+02 -0.19487E-03
 0.31430004E+02 -0.14797E-03
 0.31480003E+02  0.10921E-03
 0.31530005E+02  0.12879E-03
 0.31580004E+02  0.81814E-04
 0.31630003E+02  0.33727E-03
 0.31680004E+02  0.22061E-03
 0.31730003E+02 -0.11039E-03
 0.31780005E+02 -0.15814E-03
 0.31830004E+02 -0.77901E-04
 0.31880003E+02 -0.11455E-03
 0.31930004E+02 -0.82971E-04
 0.31980003E+02 -0.51775E-04
 0.32030003E+02 -0.75670E-05
 0.32080006E+02  0.12214E-03
 0.32130005E+02 -0.46300E-04
 0.32180004E+02 -0.59696E-04
 0.32230003E+02 -0.60043E-04
 0.32280003E+02 -0.40870E-04
 0.32330006E+02  0.17123E-03
 0.32380005E+02  0.77585E-04
 0.32430004E+02  0.89626E-04
 0.32480003E+02  0.65827E-04
 0.32530003E+02 -0.67822E-05
 0.32580006E+02  0.87657E-04
 0.32630005E+02 -0.15053E-04
 0.32680004E+02 -0.19150E-03
 0.32730003E+02 -0.19379E-03
 0.32780003E+02  0.51749E-04
 0.32830006E+02  0.12773E-03
 0.32880005E+02  0.20444E-04
 0.32930004E+02  0.11039E-03
 0.32980003E+02  0.37474E-04
 0.33030003E+02 -0.64414E-04
 0.33080006E+02 -0.54048E-04
 0.33130005E+02 -0.18416E-03
 0.33180004E+02 -0.11746E-03
 0.33230003E+02 -0.15066E-04
 0.33280003E+02 -0.82762E-04
 0.33330006E+02  0.14923E-03
 0.33380005E+02  0.28078E-03
 0.33430004E+02 -0.67639E-04
 0.33480003E+02 -0.54009E-04
 0.33530003E+02  0.29931E-03
 0.33580006E+02  0.19745E-03
 0.33630005E+02 -0.15929E-03
 0.33680004E+02 -0.45951E-03
 0.33730003E+02 -0.37694E-03
 0.33780003E+02  0.61084E-04
 0.33830006E+02  0.11813E-03
 0.33880005E+02  0.11319E-03
 0.33930004E+02  0.31803E-03
 0.33980003E+02  0.26312E-03
 0.34030003E+02  0.14407E-03
 0.34080006E+02 -0.28699E-04
 0.34130005E+02 -0.14535E-03
 0.34180004E+02 -0.51846E-04
 0.34230003E+02 -0.20686E-03
 0.34280003E+02 -0.12521E-03
 0.34330006E+02 -0.58023E-04
 0.34380005E+02 -0.26830E-03
 0.34430004E+02 -0.14539E-03
 0.34480003E+02 -0.87440E-04
 0.34530003E+02  0.50833E-04
 0.34580006E+02  0.20444E-03
 0.34630005E+02  0.23880E-03
 0.34680004E+02  0.36117E-03
 0.34730003E+02  0.22527E-03
 0.34780003E+02  0.23093E-04
 0.34830006E+02 -0.58362E-04
 0.34880005E+02  0.38460E-04
 0.34930004E+02  0.21355E-04
 0.34980003E+02 -0.25878E-03
 0.35030003E+02 -0.29196E-03
 0.35080006E+02 -0.13994E-03
 0.35130005E+02 -0.55748E-05
 0.35180004E+02 -0.12358E-03
 0.35230003E+02 -0.28901E-03
 0.35280003E+02 -0.28346E-03
 0.35330006E+02 -0.26380E-03
 0.35380005E+02 -0.29646E-03
 0.35430004E+02 -0.18809E-03
 0.35480003E+02 -0.26392E-04
 0.35530003E+02 -0.44850E-03
 0.35580006E+02 -0.87619E-03
 0.35630005E+02 -0.10860E-02
 0.35680004E+02 -0.87057E-03
 0.35730003E+02 -0.20478E-03
 0.35780003E+02  0.19281E-03
 0.35830006E+02  0.94206E-03
 0.35880005E+02  0.20934E-02
 0.35930004E+02  0.31613E-02
 0.35980003E+02  0.39230E-02
 0.36030003E+02  0.39693E-02
 0.36080006E+02  0.27358E-02
 0.36130005E+02  0.11424E-02
 0.36180004E+02  0.48277E-03
 0.36230003E+02 -0.86847E-03
 0.36280003E+02 -0.37965E-02
 0.36330006E+02 -0.62438E-02
 0.36380005E+02 -0.66139E-02
 0.36430004E+02 -0.45797E-02
 0.36480003E+02 -0.87260E-03
 0.36530003E+02  0.16685E-02
 0.36580006E+02  0.19469E-02
 0.36630005E+02  0.12080E-02
 0.36680004E+02  0.72355E-03
 0.36730003E+02  0.17047E-02
 0.36780003E+02  0.29516E-02
 0.36830006E+02  0.28355E-02
 0.36880005E+02  0.14084E-02
 0.36930004E+02  0.54531E-04
 0.36980003E+02 -0.58385E-03
 0.37030003E+02 -0.41239E-03
 0.37080006E+02 -0.87241E-03
 0.37130005E+02 -0.25434E-02
 0.37180004E+02 -0.33281E-02
 0.37230003E+02 -0.36995E-02
 0.37280003E+02 -0.24750E-02
 0.37330006E+02 -0.44189E-03
 0.37380005E+02  0.17685E-02
 0.37430004E+02  0.34339E-02
 0.37480003E+02  0.20605E-02
 0.37530003E+02  0.83669E-03
 0.37580006E+02  0.10561E-02
 0.37630005E+02  0.81585E-03
 0.37680004E+02  0.33126E-04
 0.37730003E+02  0.44034E-03
 0.37780003E+02  0.22524E-03
 0.37830006E+02 -0.21164E-03
 0.37880005E+02  0.21228E-03
 0.37930004E+02  0.38220E-03
 0.37980003E+02  0.15799E-02
 0.38030003E+02  0.21369E-02
 0.38080006E+02  0.15181E-02
 0.38130005E+02 -0.10615E-02
 0.38180004E+02 -0.28835E-02
 0.38230003E+02 -0.12713E-02
 0.38280003E+02 -0.82290E-03
 0.38330006E+02 -0.14434E-02
 0.38380005E+02 -0.71084E-03
 0.38430004E+02  0.49705E-03
 0.38480003E+02  0.81367E-03
 0.38530003E+02  0.13855E-03
 0.38580006E+02 -0.50151E-03
 0.38630005E+02 -0.95025E-03
 0.38680004E+02 -0.19648E-02
 0.38730003E+02 -0.17708E-02
 0.38780003E+02  0.20604E-03
 0.38830006E+02  0.11551E-02
 0.38880005E+02  0.19556E-02
 0.38930004E+02  0.21342E-02
 0.38980003E+02  0.36949E-03
 0.39030003E+02 -0.63568E-03
 0.39080006E+02  0.31588E-03
 0.39130005E+02  0.17574E-02
 0.39180004E+02  0.94566E-03
 0.39230003E+02 -0.16449E-02
 0.39280003E+02 -0.22415E-02
 0.39330006E+02 -0.72207E-03
 0.39380005E+02  0.56677E-03
 0.39430004E+02  0.11038E-02
 0.39480003E+02  0.14857E-02
 0.39530003E+02  0.10069E-02
 0.39580006E+02  0.83968E-04
 0.39630005E+02 -0.94355E-04
 0.39680004E+02 -0.88975E-03
 0.39730003E+02 -0.17376E-02
 0.39780003E+02 -0.23561E-02
 0.39830006E+02 -0.19934E-02
 0.39880005E+02 -0.21690E-03
 0.39930004E+02 -0.11165E-03
 0.39980003E+02 -0.39938E-03
 0.40030003E+02  0.55846E-03
 0.40080006E+02  0.20914E-02
 0.40130005E+02  0.22913E-02
 0.40180004E+02  0.17490E-02
 0.40230003E+02  0.26250E-02
 0.40280003E+02  0.20673E-02
 0.40330006E+02  0.70199E-03
 0.40380005E+02 -0.87758E-03
 0.40430004E+02 -0.27629E-02
 0.40480003E+02 -0.27379E-02
 0.40530003E+02 -0.18926E-02
 0.40580006E+02 -0.95944E-03
 0.40630005E+02 -0.57337E-03
 0.40680004E+02 -0.84395E-03
 0.40730003E+02 -0.14443E-03
 0.40780003E+02  0.12354E-02
 0.40830006E+02  0.17037E-02
 0.40880005E+02  0.13967E-02
 0.40930004E+02  0.11321E-02
 0.40980003E+02  0.45232E-03
 0.41030003E+02 -0.79958E-03
 0.41080006E+02 -0.11865E-02
 0.41130005E+02 -0.10296E-02
 0.41180004E+02 -0.10881E-02
 0.41230003E+02 -0.52378E-03
 0.41280003E+02 -0.37446E-03
 0.41330006E+02 -0.55557E-03
 0.41380005E+02  0.20917E-03
 0.41430004E+02  0.14071E-02
 0.41480003E+02  0.17614E-02
 0.41530003E+02  0.19915E-02
 0.41580006E+02  0.19077E-02
 0.41630005E+02  0.52726E-03
 0.41680004E+02 -0.33660E-03
 0.41730003E+02 -0.10660E-02
 0.41780003E+02 -0.12129E-02
 0.41830006E+02 -0.10242E-02
 0.41880005E+02 -0.13953E-02
 0.41930004E+02 -0.15031E-02
 0.41980003E+02 -0.11953E-02
 0.42030003E+02  0.25319E-03
 0.42080006E+02  0.61572E-03
 0.42130005E+02  0.37066E-03
 0.42180004E+02  0.57615E-03
 0.42230003E+02  0.42980E-03
 0.42280003E+02  0.86585E-03
 0.42330006E+02  0.89113E-03
 0.42380005E+02  0.37388E-04
 0.42430004E+02 -0.95107E-03
 0.42480003E+02 -0.69736E-03
 0.42530003E+02 -0.25106E-03
 0.42580006E+02 -0.90417E-03
 0.42630005E+02 -0.57175E-03
 0.42680004E+02  0.77684E-03
 0.42730003E+02  0.19735E-02
 0.42780003E+02  0.24550E-02
 0.42830006E+02  0.18850E-02
 0.42880005E+02  0.10545E-02
 0.42930004E+02  0.46978E-03
 0.42980003E+02 -0.58732E-03
 0.43030003E+02 -0.24505E-02
 0.43080006E+02 -0.33078E-02
 0.43130005E+02 -0.26227E-02
 0.43180004E+02 -0.84524E-03
 0.43230003E+02  0.85270E-03
 0.43280003E+02  0.49875E-03
 0.43330006E+02  0.76496E-03
 0.43380005E+02  0.14213E-02
 0.43430004E+02 -0.16492E-04
 0.43480003E+02 -0.69454E-03
 0.43530003E+02 -0.46310E-03
 0.43580006E+02 -0.50444E-03
 0.43630005E+02 -0.13794E-03
 0.43680004E+02  0.14440E-03
 0.43730003E+02  0.18920E-03
 0.43780003E+02  0.34256E-04
 0.43830006E+02  0.41494E-03
 0.43880005E+02  0.13464E-02
 0.43930004E+02  0.17680E-02
 0.43980003E+02  0.11594E-02
 0.44030003E+02  0.73004E-04
 0.44080006E+02 -0.31198E-03
 0.44130005E+02 -0.28782E-03
 0.44180004E+02 -0.18941E-03
 0.44230003E+02  0.58454E-04
 0.44280003E+02  0.43926E-03
 0.44330006E+02 -0.71364E-03
 0.44380005E+02 -0.21023E-02
 0.44430004E+02 -0.11321E-02
 0.44480003E+02 -0.55752E-03
 0.44530003E+02 -0.24082E-03
 0.44580006E+02  0.32442E-03
 0.44630005E+02  0.25991E-03
 0.44680004E+02  0.32245E-03
 0.44730003E+02 -0.36655E-04
 0.44780003E+02  0.17512E-03
 0.44830006E+02  0.51868E-03
 0.44880005E+02  0.18317E-03
 0.44930004E+02 -0.10741E-03
 0.44980003E+02 -0.18808E-03
 0.45030003E+02  0.24039E-03
 0.45080006E+02  0.20956E-03
 0.45130005E+02 -0.15667E-03
 0.45180004E+02  0.36091E-05
 0.45230003E+02 -0.10150E-04
 0.45280003E+02 -0.42116E-03
 0.45330006E+02 -0.41791E-03
 0.45380005E+02 -0.23671E-03
 0.45430004E+02 -0.39151E-04
 0.45480003E+02  0.54634E-03
 0.45530003E+02  0.84536E-03
 0.45580006E+02  0.11004E-02
 0.45630005E+02  0.15971E-02
 0.45680004E+02  0.12472E-02
 0.45730003E+02  0.29030E-03
 0.45780003E+02 -0.50549E-03
 0.45830006E+02 -0.13023E-02
 0.45880005E+02 -0.11086E-02
 0.45930004E+02 -0.76827E-03
 0.45980003E+02 -0.14428E-02
 0.46030003E+02 -0.16499E-02
 0.46080006E+02 -0.12051E-02
 0.46130005E+02 -0.53714E-03
 0.46180004E+02 -0.72256E-04
 0.46230003E+02  0.47878E-03
 0.46280003E+02  0.92137E-03
 0.46330006E+02  0.58897E-03
 0.46380005E+02  0.34573E-03
 0.46430004E+02  0.54977E-03
 0.46480003E+02  0.13987E-02
 0.46530003E+02  0.14817E-02
 0.46580006E+02  0.67336E-03
 0.46630005E+02  0.64534E-03
 0.46680004E+02  0.32289E-03
 0.46730003E+02 -0.32020E-03
 0.46780003E+02 -0.39355E-03
 0.46830006E+02 -0.56619E-03
 0.46880005E+02 -0.74796E-03
 0.46930004E+02 -0.78386E-03
 0.46980003E+02 -0.76788E-03
 0.47030003E+02 -0.37962E-03
 0.47080006E+02 -0.37756E-03
 0.47130005E+02 -0.30671E-03
 0.47180004E+02  0.44019E-03
 0.47230003E+02  0.61299E-03
 0.47280003E+02  0.54360E-03
 0.47330006E+02  0.48353E-03
 0.47380005E+02 -0.93297E-04
 0.47430004E+02 -0.41342E-03
 0.47480003E+02 -0.49701E-03
 0.47530003E+02 -0.45982E-03
 0.47580006E+02  0.11230E-03
 0.47630005E+02  0.42017E-03
 0.47680004E+02  0.48375E-03
 0.47730003E+02  0.67804E-03
 0.47780003E+02  0.73158E-03
 0.47830006E+02  0.56732E-03
 0.47880005E+02 -0.25691E-03
 0.47930004E+02 -0.11495E-02
 0.47980003E+02 -0.12772E-02
 0.48030003E+02 -0.10269E-02
 0.48080006E+02 -0.75395E-03
 0.48130005E+02 -0.45563E-03
 0.48180004E+02 -0.67008E-04
 0.48230003E+02  0.27827E-03
 0.48280003E+02  0.10497E-02
 0.48330006E+02  0.17629E-02
 0.48380005E+02  0.15312E-02
 0.48430004E+02  0.12285E-02
 0.48480003E+02  0.74094E-03
 0.48530003E+02  0.17613E-03
 0.48580006E+02 -0.24719E-03
 0.48630005E+02 -0.67157E-03
 0.48680004E+02 -0.93544E-03
 0.48730003E+02 -0.13211E-02
 0.48780003E+02 -0.12626E-02
 0.48830006E+02 -0.11729E-02
 0.48880005E+02 -0.10887E-02
 0.48930004E+02 -0.66932E-03
 0.48980003E+02 -0.15330E-03
 0.49030003E+02  0.54378E-03
 0.49080006E+02  0.98838E-03
 0.49130005E+02  0.98821E-03
 0.49180004E+02  0.65107E-03
 0.49230003E+02  0.48767E-03
 0.49280003E+02  0.29565E-03
 0.49330006E+02  0.13457E-04
 0.49380005E+02 -0.13532E-03
 0.49430004E+02 -0.54874E-04
 0.49480003E+02  0.39369E-03
 0.49530003E+02  0.72384E-03
 0.49580006E+02  0.74905E-03
 0.49630005E+02  0.98870E-04
 0.49680004E+02 -0.48864E-03
 0.49730003E+02 -0.54659E-03
 0.49780003E+02 -0.58190E-03
 0.49830006E+02 -0.22102E-03
 0.49880005E+02  0.22986E-03
 0.49930004E+02  0.17485E-03
 0.49980003E+02 -0.37634E-04
 0.50030003E+02 -0.37275E-04
 0.50080006E+02 -0.38149E-03
 0.50130005E+02 -0.71101E-03
 0.50180004E+02 -0.34488E-03
 0.50230003E+02 -0.31763E-04
 0.50280003E+02  0.46172E-04
 0.50330006E+02 -0.10680E-03
 0.50380005E+02 -0.27439E-03
 0.50430004E+02 -0.47845E-04
 0.50480003E+02  0.16046E-03
 0.50530003E+02  0.32027E-03
 0.50580006E+02  0.34958E-03
 0.50630005E+02  0.34821E-03
 0.50680004E+02  0.37167E-03
 0.50730003E+02  0.14666E-03
 0.50780003E+02  0.62760E-04
 0.50830006E+02  0.18446E-03
 0.50880005E+02  0.16697E-03
 0.50930004E+02  0.16809E-03
 0.50980003E+02  0.25506E-03
 0.51030003E+02  0.73055E-04
 0.51080006E+02 -0.20685E-03
 0.51130005E+02 -0.23600E-03
 0.51180004E+02 -0.27371E-03
 0.51230003E+02 -0.54882E-03
 0.51280003E+02 -0.59572E-03
 0.51330006E+02 -0.34904E-03
 0.51380005E+02 -0.30665E-03
 0.51430004E+02 -0.21572E-03
 0.51480003E+02 -0.20170E-05
 0.51530003E+02 -0.11683E-03
 0.51580006E+02 -0.23156E-03
 0.51630005E+02 -0.20495E-03
 0.51680004E+02 -0.65386E-04
 0.51730003E+02  0.39677E-03
 0.51780003E+02  0.66185E-03
 0.51830006E+02  0.80619E-03
 0.51880005E+02  0.97213E-03
 0.51930004E+02  0.85667E-03
 0.51980003E+02  0.56074E-03
 0.52030003E+02  0.30946E-03
 0.52080006E+02 -0.93789E-05
 0.52130005E+02 -0.58127E-03
 0.52180004E+02 -0.74363E-03
 0.52230003E+02 -0.52634E-03
 0.52280003E+02 -0.32908E-03
 0.52330006E+02 -0.11094E-03
 0.52380005E+02 -0.19972E-03
 0.52430004E+02 -0.54853E-03
 0.52480003E+02 -0.53206E-03
 0.52530003E+02 -0.13192E-03
 0.52580006E+02  0.63738E-04
 0.52630005E+02  0.60259E-04
 0.52680004E+02  0.44993E-04
 0.52730003E+02  0.45713E-04
 0.52780003E+02  0.41086E-04
 0.52830006E+02  0.97193E-04
 0.52880005E+02  0.18168E-03
 0.52930004E+02  0.20182E-03
 0.52980003E+02  0.27484E-03
 0.53030003E+02  0.38185E-03
 0.53080006E+02  0.47774E-03
 0.53130005E+02  0.53152E-03
 0.53180004E+02  0.38791E-03
 0.53230003E+02 -0.50343E-04
 0.53280003E+02 -0.34599E-03
 0.53330006E+02 -0.37826E-03
 0.53380005E+02 -0.45322E-03
 0.53430004E+02 -0.43289E-03
 0.53480003E+02 -0.27689E-03
 0.53530003E+02 -0.96656E-04
 0.53580006E+02 -0.29543E-04
 0.53630005E+02 -0.15105E-03
 0.53680004E+02 -0.21545E-03
 0.53730003E+02 -0.23072E-03
 0.53780003E+02 -0.21321E-03
 0.53830006E+02  0.94744E-04
 0.53880005E+02  0.54742E-03
 0.53930004E+02  0.77954E-03
 0.53980003E+02  0.65713E-03
 0.54030003E+02  0.34415E-03
 0.54080006E+02 -0.55576E-04
 0.54130005E+02 -0.31924E-03
 0.54180004E+02 -0.44210E-03
 0.54230003E+02 -0.60280E-03
 0.54280003E+02 -0.61236E-03
 0.54330006E+02 -0.53809E-03
 0.54380005E+02 -0.27040E-03
 0.54430004E+02  0.19778E-03
 0.54480003E+02  0.60905E-03
 0.54530003E+02  0.81506E-03
 0.54580006E+02  0.71400E-03
 0.54630005E+02  0.44996E-03
 0.54680004E+02  0.19166E-03
 0.54730003E+02  0.88079E-04
 0.54780003E+02  0.50041E-04
 0.54830006E+02 -0.11054E-03
 0.54880005E+02 -0.23510E-03
 0.54930004E+02 -0.19444E-03
 0.54980003E+02 -0.25773E-03
 0.55030003E+02 -0.41920E-03
 0.55080006E+02 -0.46487E-03
 0.55130005E+02 -0.56694E-03
 0.55180004E+02 -0.58754E-03
 0.55230003E+02 -0.35422E-03
 0.55280003E+02 -0.13478E-03
 0.55330006E+02  0.21160E-03
 0.55380005E+02  0.55012E-03
 0.55430004E+02  0.56243E-03
 0.55480003E+02  0.47546E-03
 0.55530003E+02  0.41820E-03
 0.55580006E+02  0.36680E-03
 0.55630005E+02  0.23939E-03
 0.55680004E+02  0.17860E-03
 0.55730003E+02  0.16874E-03
 0.55780003E+02  0.14286E-03
 0.55830006E+02  0.56951E-04
 0.55880005E+02 -0.36573E-03
 0.55930004E+02 -0.81587E-03
 0.55980003E+02 -0.94880E-03
 0.56030003E+02 -0.83856E-03
 0.56080006E+02 -0.56354E-03
 0.56130005E+02 -0.25274E-03
 0.56180004E+02  0.76383E-04
 0.56230003E+02  0.36664E-03
 0.56280003E+02  0.51739E-03
 0.56330006E+02  0.59272E-03
 0.56380005E+02  0.66234E-03
 0.56430004E+02  0.68494E-03
 0.56480003E+02  0.58426E-03
 0.56530003E+02  0.32582E-03
 0.56580006E+02  0.64402E-04
 0.56630005E+02 -0.51641E-04
 0.56680004E+02 -0.16488E-03
 0.56730003E+02 -0.47176E-04
 0.56780003E+02  0.27620E-04
 0.56830006E+02 -0.34367E-03
 0.56880005E+02 -0.55372E-03
 0.56930004E+02 -0.53159E-03
 0.56980003E+02 -0.53220E-03
 0.57030003E+02 -0.39099E-03
 0.57080006E+02 -0.16092E-03
 0.57130005E+02 -0.88606E-06
 0.57180004E+02  0.15893E-03
 0.57230003E+02  0.27589E-03
 0.57280003E+02  0.33626E-03
 0.57330006E+02  0.32971E-03
 0.57380005E+02  0.33113E-03
 0.57430004E+02  0.38283E-03
 0.57480003E+02  0.22607E-03
 0.57530003E+02  0.20043E-04
 0.57580006E+02 -0.10999E-03
 0.57630005E+02 -0.22835E-03
 0.57680004E+02 -0.34180E-03
 0.57730003E+02 -0.48587E-03
 0.57780003E+02 -0.40689E-03
 0.57830006E+02 -0.12812E-03
 0.57880005E+02  0.67176E-05
 0.57930004E+02  0.97842E-04
 0.57980003E+02  0.27671E-03
 0.58030003E+02  0.17853E-03
 0.58080006E+02 -0.14568E-03
 0.58130005E+02 -0.17968E-03
 0.58180004E+02 -0.95555E-04
 0.58230003E+02 -0.11497E-03
 0.58280003E+02 -0.24266E-04
 0.58330006E+02  0.14209E-03
 0.58380005E+02  0.28433E-03
 0.58430004E+02  0.37019E-03
 0.58480003E+02  0.34467E-03
 0.58530003E+02  0.35542E-03
 0.58580006E+02  0.48963E-03
 0.58630005E+02  0.41455E-03
 0.58680004E+02  0.15362E-03
 0.58730003E+02 -0.66719E-04
 0.58780003E+02 -0.32179E-03
 0.58830006E+02 -0.46011E-03
 0.58880005E+02 -0.55628E-03
 0.58930004E+02 -0.54351E-03
 0.58980003E+02 -0.34752E-03
 0.59030003E+02 -0.28338E-03
 0.59080006E+02 -0.31819E-03
 0.59130005E+02 -0.26773E-03
 0.59180004E+02 -0.30874E-04
 0.59230003E+02  0.11112E-03
 0.59280003E+02  0.15605E-03
 0.59330006E+02  0.27250E-03
 0.59380005E+02  0.38503E-03
 0.59430004E+02  0.46185E-03
 0.59480003E+02  0.45726E-03
 0.59530003E+02  0.43188E-03
 0.59580006E+02  0.24025E-03
 0.59630005E+02  0.10040E-04
 0.59680004E+02 -0.63334E-04
 0.59730003E+02 -0.76720E-04
 0.59780003E+02 -0.79734E-04
 0.59830006E+02 -0.10204E-06
 0.59880005E+02 -0.21820E-04
 0.59930004E+02 -0.21901E-03
 0.59980003E+02 -0.24919E-03
 0.60030003E+02 -0.23473E-03
 0.60080006E+02 -0.27607E-03
 0.60130005E+02 -0.27273E-03
 0.60180004E+02 -0.22307E-03
 0.60230003E+02 -0.11782E-03
 0.60280003E+02 -0.49194E-04
 0.60330006E+02 -0.30600E-04
 0.60380005E+02  0.22870E-04
 0.60430004E+02  0.13844E-03
 0.60480003E+02  0.25107E-03
 0.60530003E+02  0.19174E-03
 0.60580006E+02  0.76633E-04
 0.60630005E+02  0.12132E-03
 0.60680004E+02  0.13662E-03
 0.60730003E+02  0.89028E-04
 0.60780003E+02  0.11986E-03
 0.60830006E+02  0.15854E-03
 0.60880005E+02  0.98902E-04
 0.60930004E+02  0.26174E-04
 0.60980003E+02  0.13295E-04
 0.61030003E+02 -0.66640E-04
 0.61080006E+02 -0.20797E-03
 0.61130005E+02 -0.22687E-03
 0.61180004E+02 -0.15864E-03
 0.61230003E+02 -0.43470E-04
 0.61280003E+02  0.92452E-04
 0.61330006E+02  0.65204E-04
 0.61380005E+02  0.29680E-04
 0.61430004E+02 -0.11644E-04
 0.61480003E+02 -0.12119E-03
 0.61530003E+02 -0.11396E-03
 0.61580006E+02 -0.16756E-03
 0.61630005E+02 -0.28504E-03
 0.61680004E+02 -0.30793E-03
 0.61730003E+02 -0.29875E-03
 0.61780003E+02 -0.27844E-03
 0.61830006E+02 -0.19425E-03
 0.61880005E+02  0.13439E-03
 0.61930004E+02  0.53249E-03
 0.61980003E+02  0.67451E-03
 0.62030003E+02  0.64363E-03
 0.62080006E+02  0.52265E-03
 0.62130005E+02  0.33607E-03
 0.62180004E+02  0.18841E-03
 0.62230003E+02  0.11400E-03
 0.62280003E+02 -0.11297E-03
 0.62330006E+02 -0.38854E-03
 0.62380005E+02 -0.43095E-03
 0.62430004E+02 -0.40321E-03
 0.62480003E+02 -0.31389E-03
 0.62530003E+02 -0.19331E-03
 0.62580006E+02 -0.98832E-04
 0.62630005E+02 -0.10884E-04
 0.62680004E+02  0.19057E-04
 0.62730003E+02  0.10678E-03
 0.62780003E+02  0.24409E-03
 0.62830006E+02  0.35016E-03
 0.62880005E+02  0.35553E-03
 0.62930004E+02  0.24453E-03
 0.62980003E+02  0.85450E-04
 0.63030003E+02 -0.14894E-03
 0.63080006E+02 -0.35207E-03
 0.63130005E+02 -0.37425E-03
 0.63180004E+02 -0.32549E-03
 0.63230003E+02 -0.27449E-03
 0.63280003E+02 -0.18570E-03
 0.63330006E+02 -0.15939E-03
 0.63380005E+02 -0.12277E-03
 0.63430004E+02  0.36720E-04
 0.63480003E+02  0.13842E-03
 0.63530003E+02  0.22745E-03
 0.63580006E+02  0.34462E-03
 0.63630005E+02  0.29558E-03
 0.63680004E+02  0.26645E-03
 0.63730003E+02  0.28141E-03
 0.63780003E+02  0.22034E-03
 0.63830006E+02  0.18509E-03
 0.63880005E+02  0.10871E-03
 0.63930004E+02  0.12305E-04
 0.63980003E+02 -0.10391E-03
 0.64030006E+02 -0.22721E-03
 0.64080002E+02 -0.26483E-03
 0.64130005E+02 -0.30810E-03
 0.64180008E+02 -0.30939E-03
 0.64230003E+02 -0.17341E-03
 0.64280006E+02 -0.59950E-04
 0.64330002E+02 -0.70767E-04
 0.64380005E+02 -0.69462E-04
 0.64430008E+02 -0.10493E-03
 0.64480003E+02 -0.21233E-03
 0.64530006E+02 -0.16450E-03
 0.64580002E+02 -0.62742E-04
 0.64630005E+02 -0.34322E-05
 0.64680008E+02  0.12426E-03
 0.64730003E+02  0.23752E-03
 0.64780006E+02  0.29538E-03
 0.64830002E+02  0.29360E-03
 0.64880005E+02  0.20471E-03
 0.64930008E+02  0.10560E-03
 0.64980003E+02  0.69185E-04
 0.65030006E+02  0.36421E-04
 0.65080002E+02  0.15555E-04
 0.65130005E+02  0.67268E-04
 0.65180008E+02  0.12608E-03
 0.65230003E+02  0.16800E-03
 0.65280006E+02  0.12578E-03
 0.65330002E+02  0.40302E-04
 0.65380005E+02  0.31090E-04
 0.65430008E+02  0.31292E-04
 0.65480003E+02  0.43797E-04
 0.65530006E+02  0.28839E-04
 0.65580002E+02 -0.94125E-04
 0.65630005E+02 -0.22749E-03
 0.65680008E+02 -0.31464E-03
 0.65730003E+02 -0.39911E-03
 0.65780006E+02 -0.43721E-03
 0.65830002E+02 -0.35571E-03
 0.65880005E+02 -0.16232E-03
 0.65930008E+02  0.20357E-04
 0.65980003E+02  0.91744E-04
 0.66030006E+02  0.12702E-03
 0.66080002E+02  0.95550E-04
 0.66130005E+02 -0.40936E-04
 0.66180008E+02 -0.12094E-03
 0.66230003E+02 -0.93762E-04
 0.66280006E+02 -0.56384E-04
 0.66330002E+02 -0.14846E-04
 0.66380005E+02  0.39776E-04
 0.66430008E+02  0.85263E-04
 0.66480003E+02  0.26173E-03
 0.66530006E+02  0.50217E-03
 0.66580002E+02  0.58446E-03
 0.66630005E+02  0.53114E-03
 0.66680008E+02  0.35520E-03
 0.66730003E+02  0.16527E-03
 0.66780006E+02  0.44115E-04
 0.66830002E+02 -0.96093E-04
 0.66880005E+02 -0.22354E-03
 0.66930008E+02 -0.32156E-03
 0.66980003E+02 -0.40205E-03
 0.67030006E+02 -0.41975E-03
 0.67080002E+02 -0.40740E-03
 0.67130005E+02 -0.36333E-03
 0.67180008E+02 -0.29990E-03
 0.67230003E+02 -0.26807E-03
 0.67280006E+02 -0.15810E-03
 0.67330002E+02  0.13300E-04
 0.67380005E+02  0.20656E-03
 0.67430008E+02  0.38847E-03
 0.67480003E+02  0.46628E-03
 0.67530006E+02  0.49858E-03
 0.67580002E+02  0.39223E-03
 0.67630005E+02  0.21880E-03
 0.67680008E+02  0.76745E-04
 0.67730003E+02 -0.10816E-03
 0.67780006E+02 -0.19286E-03
 0.67830002E+02 -0.22443E-03
 0.67880005E+02 -0.21150E-03
 0.67930008E+02 -0.10029E-03
 0.67980003E+02  0.21783E-05
 0.68030006E+02  0.66709E-04
 0.68080002E+02  0.63499E-04
 0.68130005E+02  0.54266E-04
 0.68180008E+02 -0.28131E-05
 0.68230003E+02 -0.10246E-03
 0.68280006E+02 -0.15358E-03
 0.68330002E+02 -0.16787E-03
 0.68380005E+02 -0.11301E-03
 0.68430008E+02 -0.24763E-04
 0.68480003E+02  0.55261E-04
 0.68530006E+02  0.44663E-04
 0.68580002E+02 -0.15344E-05
 0.68630005E+02  0.48647E-04
 0.68680008E+02  0.11688E-03
 0.68730003E+02  0.11162E-03
 0.68780006E+02  0.26150E-04
 0.68830002E+02 -0.69628E-04
 0.68880005E+02 -0.64131E-04
 0.68930008E+02 -0.83220E-06
 0.68980003E+02 -0.25779E-04
 0.69030006E+02 -0.10366E-03
 0.69080002E+02 -0.17651E-03
 0.69130005E+02 -0.14270E-03
 0.69180008E+02 -0.37454E-04
 0.69230003E+02  0.32256E-04
 0.69280006E+02  0.15768E-03
 0.69330002E+02  0.25501E-03
 0.69380005E+02  0.30668E-03
 0.69430008E+02  0.31712E-03
 0.69480003E+02  0.26390E-03
 0.69530006E+02  0.18697E-03
 0.69580002E+02  0.68443E-04
 0.69630005E+02 -0.35406E-04
 0.69680008E+02 -0.12817E-03
 0.69730003E+02 -0.15008E-03
 0.69780006E+02 -0.12637E-03
 0.69830002E+02 -0.15862E-03
 0.69880005E+02 -0.18078E-03
 0.69930008E+02 -0.23489E-03
 0.69980003E+02 -0.34819E-03
 0.70030006E+02 -0.40422E-03
 0.70080002E+02 -0.34003E-03
 0.70130005E+02 -0.17409E-03
 0.70180008E+02 -0.50701E-05
 0.70230003E+02  0.93409E-04
 0.70280006E+02  0.14856E-03
 0.70330002E+02  0.22551E-03
 0.70380005E+02  0.27487E-03
 0.70430008E+02  0.18509E-03
 0.70480003E+02  0.85437E-04
 0.70530006E+02  0.65463E-04
 0.70580002E+02  0.96201E-04
 0.70630005E+02  0.17485E-03
 0.70680008E+02  0.18246E-03
 0.70730003E+02  0.16469E-03
 0.70780006E+02  0.17591E-03
 0.70830002E+02  0.13440E-03
 0.70880005E+02  0.53134E-04
 0.70930008E+02 -0.36304E-04
 0.70980003E+02 -0.10611E-03
 0.71030006E+02 -0.12506E-03
 0.71080002E+02 -0.10976E-03
 0.71130005E+02 -0.12468E-03
 0.71180008E+02 -0.12635E-03
 0.71230003E+02 -0.12531E-03
 0.71280006E+02 -0.16209E-03
 0.71330002E+02 -0.17211E-03
 0.71380005E+02 -0.18991E-03
 0.71430008E+02 -0.17256E-03
 0.71480003E+02 -0.82739E-04
 0.71530006E+02  0.27022E-04
 0.71580002E+02  0.12032E-03
 0.71630005E+02  0.14341E-03
 0.71680008E+02  0.14981E-03
 0.71730003E+02  0.19151E-03
 0.71780006E+02  0.21332E-03
 0.71830002E+02  0.13989E-03
 0.71880005E+02  0.48629E-04
 0.71930008E+02  0.26470E-04
 0.71980003E+02 -0.36596E-05
 0.72030006E+02 -0.85173E-04
 0.72080002E+02 -0.10901E-03
 0.72130005E+02 -0.84093E-04
 0.72180008E+02 -0.11410E-03
 0.72230003E+02 -0.12835E-03
 0.72280006E+02 -0.10063E-03
 0.72330002E+02  0.88205E-05
 0.72380005E+02  0.12318E-03
 0.72430008E+02  0.14023E-03
 0.72480003E+02  0.15982E-03
 0.72530006E+02  0.18227E-03
 0.72580002E+02  0.14068E-03
 0.72630005E+02  0.46508E-04
 0.72680008E+02 -0.41733E-04
 0.72730003E+02 -0.10491E-03
 0.72780006E+02 -0.14559E-03
 0.72830002E+02 -0.14457E-03
 0.72880005E+02 -0.60577E-04
 0.72930008E+02 -0.79416E-05
 0.72980003E+02 -0.55066E-04
 0.73030006E+02 -0.98828E-04
 0.73080002E+02 -0.12945E-03
 0.73130005E+02 -0.10287E-03
 0.73180008E+02 -0.37840E-04
 0.73230003E+02 -0.79348E-05
 0.73280006E+02 -0.20330E-04
 0.73330002E+02 -0.60072E-04
 0.73380005E+02 -0.39144E-04
 0.73430008E+02  0.88999E-05
 0.73480003E+02  0.54180E-04
 0.73530006E+02  0.95041E-04
 0.73580002E+02  0.92341E-04
 0.73630005E+02  0.94081E-04
 0.73680008E+02  0.72244E-04
 0.73730003E+02  0.10527E-03
 0.73780006E+02  0.19123E-03
 0.73830002E+02  0.18043E-03
 0.73880005E+02  0.11474E-03
 0.73930008E+02  0.31967E-04
 0.73980003E+02 -0.93463E-05
 0.74030006E+02 -0.23513E-04
 0.74080002E+02 -0.56828E-04
 0.74130005E+02 -0.84676E-04
 0.74180008E+02 -0.13185E-03
 0.74230003E+02 -0.15443E-03
 0.74280006E+02 -0.13424E-03
 0.74330002E+02 -0.66695E-04
 0.74380005E+02  0.93344E-06
 0.74430008E+02  0.46185E-04
 0.74480003E+02  0.10049E-03
 0.74530006E+02  0.10964E-03
 0.74580002E+02  0.99335E-04
 0.74630005E+02  0.85891E-04
 0.74680008E+02  0.48626E-04
 0.74730003E+02  0.14342E-04
 0.74780006E+02  0.69788E-05
 0.74830002E+02  0.17100E-04
 0.74880005E+02 -0.24676E-04
 0.74930008E+02 -0.93070E-04
 0.74980003E+02 -0.12596E-03
 0.75030006E+02 -0.14961E-03
 0.75080002E+02 -0.11563E-03
 0.75130005E+02 -0.69750E-04
 0.75180008E+02 -0.75937E-04
 0.75230003E+02 -0.91946E-04
 0.75280006E+02 -0.94120E-04
 0.75330002E+02 -0.32085E-04
 0.75380005E+02  0.30499E-04
 0.75430008E+02  0.57539E-04
 0.75480003E+02  0.52937E-04
 0.75530006E+02  0.25041E-04
 0.75580002E+02 -0.65718E-05
 0.75630005E+02 -0.49115E-04
 0.75680008E+02 -0.27371E-04
 0.75730003E+02  0.41806E-04
 0.75780006E+02  0.10729E-03
 0.75830002E+02  0.15829E-03
 0.75880005E+02  0.17850E-03
 0.75930008E+02  0.16358E-03
 0.75980003E+02  0.11142E-03
 0.76030006E+02  0.50719E-04
 0.76080002E+02  0.32680E-04
 0.76130005E+02  0.37581E-04
 0.76180008E+02  0.10525E-04
 0.76230003E+02 -0.30007E-04
 0.76280006E+02 -0.76210E-04
 0.76330002E+02 -0.10138E-03
 0.76380005E+02 -0.86322E-04
 0.76430008E+02 -0.53013E-04
 0.76480003E+02 -0.27733E-04
 0.76530006E+02 -0.46044E-04
 0.76580002E+02 -0.65005E-04
 0.76630005E+02 -0.29128E-04
 0.76680008E+02  0.52542E-04
 0.76730003E+02  0.10769E-03
 0.76780006E+02  0.12051E-03
 0.76830002E+02  0.79880E-04
 0.76880005E+02 -0.34628E-04
 0.76930008E+02 -0.11653E-03
 0.76980003E+02 -0.16495E-03
 0.77030006E+02 -0.17637E-03
 0.77080002E+02 -0.14128E-03
 0.77130005E+02 -0.13162E-03
 0.77180008E+02 -0.11084E-03
 0.77230003E+02 -0.31311E-04
 0.77280006E+02  0.60039E-04
 0.77330002E+02  0.12761E-03
 0.77380005E+02  0.18101E-03
 0.77430008E+02  0.19328E-03
 0.77480003E+02  0.19840E-03
 0.77530006E+02  0.19353E-03
 0.77580002E+02  0.13739E-03
 0.77630005E+02  0.65916E-04
 0.77680008E+02 -0.24466E-04
 0.77730003E+02 -0.14347E-03
 0.77780006E+02 -0.22446E-03
 0.77830002E+02 -0.20754E-03
 0.77880005E+02 -0.15997E-03
 0.77930008E+02 -0.16478E-03
 0.77980003E+02 -0.17079E-03
 0.78030006E+02 -0.11387E-03
 0.78080002E+02 -0.20078E-04
 0.78130005E+02  0.65908E-04
 0.78180008E+02  0.12863E-03
 0.78230003E+02  0.14245E-03
 0.78280006E+02  0.12301E-03
 0.78330002E+02  0.10682E-03
 0.78380005E+02  0.40566E-04
 0.78430008E+02 -0.31482E-04
 0.78480003E+02 -0.47752E-04
 0.78530006E+02 -0.37448E-04
 0.78580002E+02  0.11781E-04
 0.78630005E+02  0.93798E-04
 0.78680008E+02  0.18456E-03
 0.78730003E+02  0.23109E-03
 0.78780006E+02  0.19720E-03
 0.78830002E+02  0.12192E-03
 0.78880005E+02  0.58354E-04
 0.78930008E+02 -0.48872E-05
 0.78980003E+02 -0.68527E-04
 0.79030006E+02 -0.11413E-03
 0.79080002E+02 -0.14536E-03
 0.79130005E+02 -0.15314E-03
 0.79180008E+02 -0.16690E-03
 0.79230003E+02 -0.17042E-03
 0.79280006E+02 -0.15372E-03
 0.79330002E+02 -0.14026E-03
 0.79380005E+02 -0.10755E-03
 0.79430008E+02 -0.44149E-04
 0.79480003E+02  0.19095E-04
 0.79530006E+02  0.50442E-04
 0.79580002E+02  0.64606E-04
 0.79630005E+02  0.62576E-04
 0.79680008E+02  0.40258E-04
 0.79730003E+02  0.48910E-04
 0.79780006E+02  0.84763E-04
 0.79830002E+02  0.67553E-04
 0.79880005E+02  0.13513E-04
 0.79930008E+02 -0.44138E-05
 0.79980003E+02  0.16497E-04
 0.80030006E+02  0.41351E-04
 0.80080002E+02  0.30518E-04
 0.80130005E+02 -0.89777E-05
 0.80180008E+02 -0.43166E-04
 0.80230003E+02 -0.63367E-04
 0.80280006E+02 -0.24218E-04
 0.80330002E+02  0.61257E-04
 0.80380005E+02  0.12817E-03
 0.80430008E+02  0.15321E-03
 0.80480003E+02  0.12010E-03
 0.80530006E+02  0.80180E-04
 0.80580002E+02  0.61004E-04
 0.80630005E+02  0.37106E-04
 0.80680008E+02 -0.35224E-05
 0.80730003E+02 -0.59037E-04
 0.80780006E+02 -0.82068E-04
 0.80830002E+02 -0.80084E-04
 0.80880005E+02 -0.80580E-04
 0.80930008E+02 -0.73388E-04
 0.80980003E+02 -0.89841E-04
 0.81030006E+02 -0.10492E-03
 0.81080002E+02 -0.78982E-04
 0.81130005E+02 -0.33619E-04
 0.81180008E+02 -0.93813E-06
 0.81230003E+02 -0.52653E-05
 0.81280006E+02 -0.74549E-05
 0.81330002E+02  0.37697E-05
 0.81380005E+02  0.18414E-04
 0.81430008E+02  0.36486E-04
 0.81480003E+02  0.62729E-04
 0.81530006E+02  0.95188E-04
 0.81580002E+02  0.77226E-04
 0.81630005E+02  0.20182E-04
 0.81680008E+02 -0.31795E-04
 0.81730003E+02 -0.67943E-04
 0.81780006E+02 -0.80835E-04
 0.81830002E+02 -0.68582E-04
 0.81880005E+02 -0.29658E-04
 0.81930008E+02  0.24268E-04
 0.81980003E+02  0.63250E-04
 0.82030006E+02  0.78432E-04
 0.82080002E+02  0.78769E-04
 0.82130005E+02  0.77209E-04
 0.82180008E+02  0.77193E-04
 0.82230003E+02  0.53738E-04
 0.82280006E+02  0.28035E-04
 0.82330002E+02 -0.71230E-05
 0.82380005E+02 -0.62237E-04
 0.82430008E+02 -0.78708E-04
 0.82480003E+02 -0.39440E-04
 0.82530006E+02 -0.10847E-04
 0.82580002E+02 -0.31907E-04
 0.82630005E+02 -0.78608E-04
 0.82680008E+02 -0.13770E-03
 0.82730003E+02 -0.16272E-03
 0.82780006E+02 -0.15092E-03
 0.82830002E+02 -0.10013E-03
 0.82880005E+02 -0.93351E-05
 0.82930008E+02  0.48423E-04
 0.82980003E+02  0.67262E-04
 0.83030006E+02  0.70858E-04
 0.83080002E+02  0.90519E-04
 0.83130005E+02  0.11939E-03
 0.83180008E+02  0.12305E-03
 0.83230003E+02  0.10660E-03
 0.83280006E+02  0.74699E-04
 0.83330002E+02  0.73205E-04
 0.83380005E+02  0.10388E-03
 0.83430008E+02  0.11651E-03
 0.83480003E+02  0.78518E-04
 0.83530006E+02  0.19257E-04
 0.83580002E+02 -0.29102E-04
 0.83630005E+02 -0.82470E-04
 0.83680008E+02 -0.95687E-04
 0.83730003E+02 -0.10499E-03
 0.83780006E+02 -0.13904E-03
 0.83830002E+02 -0.13218E-03
 0.83880005E+02 -0.12404E-03
 0.83930008E+02 -0.13514E-03
 0.83980003E+02 -0.12564E-03
 0.84030006E+02 -0.10191E-03
 0.84080002E+02 -0.57329E-04
 0.84130005E+02  0.87627E-05
 0.84180008E+02  0.66858E-04
 0.84230003E+02  0.11122E-03
 0.84280006E+02  0.12608E-03
 0.84330002E+02  0.14288E-03
 0.84380005E+02  0.15020E-03
 0.84430008E+02  0.10227E-03
 0.84480003E+02  0.64712E-04
 0.84530006E+02  0.54567E-04
 0.84580002E+02  0.67137E-04
 0.84630005E+02  0.98837E-04
 0.84680008E+02  0.88738E-04
 0.84730003E+02  0.38238E-04
 0.84780006E+02 -0.34357E-05
 0.84830002E+02 -0.41136E-04
 0.84880005E+02 -0.74284E-04
 0.84930008E+02 -0.94347E-04
 0.84980003E+02 -0.11646E-03
 0.85030006E+02 -0.14048E-03
 0.85080002E+02 -0.16447E-03
 0.85130005E+02 -0.18289E-03
 0.85180008E+02 -0.18356E-03
 0.85230003E+02 -0.14934E-03
 0.85280006E+02 -0.94978E-04
 0.85330002E+02 -0.34600E-04
 0.85380005E+02  0.34174E-04
 0.85430008E+02  0.92660E-04
 0.85480003E+02  0.14918E-03
 0.85530006E+02  0.19744E-03
 0.85580002E+02  0.18671E-03
 0.85630005E+02  0.13990E-03
 0.85680008E+02  0.10006E-03
 0.85730003E+02  0.67950E-04
 0.85780006E+02  0.59268E-04
 0.85830002E+02  0.45168E-04
 0.85880005E+02  0.43110E-05
 0.85930008E+02 -0.32236E-04
 0.85980003E+02 -0.30445E-04
 0.86030006E+02  0.12505E-04
 0.86080002E+02  0.50997E-04
 0.86130005E+02  0.48777E-04
 0.86180008E+02 -0.56018E-05
 0.86230003E+02 -0.66558E-04
 0.86280006E+02 -0.77277E-04
 0.86330002E+02 -0.64456E-04
 0.86380005E+02 -0.69623E-04
 0.86430008E+02 -0.10606E-03
 0.86480003E+02 -0.13988E-03
 0.86530006E+02 -0.12081E-03
 0.86580002E+02 -0.70454E-04
 0.86630005E+02 -0.21753E-04
 0.86680008E+02  0.38374E-05
 0.86730003E+02  0.12194E-04
 0.86780006E+02  0.26008E-04
 0.86830002E+02  0.51399E-04
 0.86880005E+02  0.92482E-04
 0.86930008E+02  0.88648E-04
 0.86980003E+02  0.42128E-04
 0.87030006E+02  0.22407E-04
 0.87080002E+02  0.23464E-04
 0.87130005E+02  0.39477E-04
 0.87180008E+02  0.66785E-04
 0.87230003E+02  0.96095E-04
 0.87280006E+02  0.94123E-04
 0.87330002E+02  0.34410E-04
 0.87380005E+02  0.50271E-07
 0.87430008E+02  0.55496E-05
 0.87480003E+02 -0.83318E-05
 0.87530006E+02 -0.46211E-04
 0.87580002E+02 -0.10831E-03
 0.87630005E+02 -0.14273E-03
 0.87680008E+02 -0.12312E-03
 0.87730003E+02 -0.83129E-04
 0.87780006E+02 -0.47829E-04
 0.87830002E+02 -0.19357E-04
 0.87880005E+02  0.27775E-04
 0.87930008E+02  0.66631E-04
 0.87980003E+02  0.75297E-04
 0.88030006E+02  0.63779E-04
 0.88080002E+02  0.28165E-04
 0.88130005E+02 -0.19240E-04
 0.88180008E+02 -0.63009E-04
 0.88230003E+02 -0.71878E-04
 0.88280006E+02 -0.34485E-04
 0.88330002E+02  0.10304E-04
 0.88380005E+02  0.38446E-04
 0.88430008E+02  0.48015E-04
 0.88480003E+02  0.36352E-04
 0.88530006E+02  0.59029E-05
 0.88580002E+02 -0.21110E-04
 0.88630005E+02 -0.15219E-04
 0.88680008E+02  0.67473E-05
 0.88730003E+02  0.15533E-04
 0.88780006E+02  0.36612E-04
 0.88830002E+02  0.76597E-04
 0.88880005E+02  0.88730E-04
 0.88930008E+02  0.77476E-04
 0.88980003E+02  0.63444E-04
 0.89030006E+02  0.28082E-04
 0.89080002E+02 -0.13484E-04
 0.89130005E+02 -0.42324E-04
 0.89180008E+02 -0.76082E-04
 0.89230003E+02 -0.12284E-03
 0.89280006E+02 -0.15226E-03
 0.89330002E+02 -0.14030E-03
 0.89380005E+02 -0.10674E-03
 0.89430008E+02 -0.74928E-04
 0.89480003E+02 -0.92905E-05
 0.89530006E+02  0.79959E-04
 0.89580002E+02  0.12428E-03
 0.89630005E+02  0.15373E-03
 0.89680008E+02  0.17602E-03
 0.89730003E+02  0.17005E-03
 0.89780006E+02  0.13213E-03
 0.89830002E+02  0.57797E-04
 0.89880005E+02 -0.13842E-04
 0.89930008E+02 -0.80530E-04
 0.89980003E+02 -0.13857E-03
 0.90030006E+02 -0.15897E-03
 0.90080002E+02 -0.13731E-03
 0.90130005E+02 -0.10161E-03
 0.90180008E+02 -0.70230E-04
 0.90230003E+02 -0.34660E-04
 0.90280006E+02 -0.85174E-05
 0.90330002E+02 -0.63590E-05
 0.90380005E+02  0.64476E-06
 0.90430008E+02  0.18724E-04
 0.90480003E+02  0.29277E-04
 0.90530006E+02  0.36455E-04
 0.90580002E+02  0.23433E-05
 0.90630005E+02 -0.44332E-04
 0.90680008E+02 -0.42380E-04
 0.90730003E+02 -0.13835E-04
 0.90780006E+02  0.35936E-04
 0.90830002E+02  0.78674E-04
 0.90880005E+02  0.10189E-03
 0.90930008E+02  0.13405E-03
 0.90980003E+02  0.15123E-03
 0.91030006E+02  0.13168E-03
 0.91080002E+02  0.10101E-03
 0.91130005E+02  0.52486E-04
 0.91180008E+02 -0.33955E-04
 0.91230003E+02 -0.99600E-04
 0.91280006E+02 -0.11847E-03
 0.91330002E+02 -0.11414E-03
 0.91380005E+02 -0.98623E-04
 0.91430008E+02 -0.79890E-04
 0.91480003E+02 -0.67704E-04
 0.91530006E+02 -0.64939E-04
 0.91580002E+02 -0.40667E-04
 0.91630005E+02 -0.84774E-05
 0.91680008E+02  0.14823E-04
 0.91730003E+02  0.35349E-04
 0.91780006E+02  0.47098E-04
 0.91830002E+02  0.67405E-04
 0.91880005E+02  0.87538E-04
 0.91930008E+02  0.78660E-04
 0.91980003E+02  0.64091E-04
 0.92030006E+02  0.55586E-04
 0.92080002E+02  0.28309E-04
 0.92130005E+02  0.10633E-04
 0.92180008E+02 -0.53706E-05
 0.92230003E+02 -0.41477E-04
 0.92280006E+02 -0.58851E-04
 0.92330002E+02 -0.69731E-04
 0.92380005E+02 -0.76081E-04
 0.92430008E+02 -0.71877E-04
 0.92480003E+02 -0.73110E-04
 0.92530006E+02 -0.61205E-04
 0.92580002E+02 -0.45979E-04
 0.92630005E+02 -0.41105E-04
 0.92680008E+02 -0.43299E-04
 0.92730003E+02 -0.33673E-04
 0.92780006E+02  0.40095E-05
 0.92830002E+02  0.43247E-04
 0.92880005E+02  0.62866E-04
 0.92930008E+02  0.59313E-04
 0.92980003E+02  0.58071E-04
 0.93030006E+02  0.71271E-04
 0.93080002E+02  0.90805E-04
 0.93130005E+02  0.10806E-03
 0.93180008E+02  0.92364E-04
 0.93230003E+02  0.52490E-04
 0.93280006E+02  0.16316E-04
 0.93330002E+02 -0.12439E-04
 0.93380005E+02 -0.33031E-04
 0.93430008E+02 -0.41453E-04
 0.93480003E+02 -0.49628E-04
 0.93530006E+02 -0.60721E-04
 0.93580002E+02 -0.61362E-04
 0.93630005E+02 -0.60351E-04
 0.93680008E+02 -0.65633E-04
 0.93730003E+02 -0.74729E-04
 0.93780006E+02 -0.67435E-04
 0.93830002E+02 -0.47249E-04
 0.93880005E+02 -0.32755E-04
 0.93930008E+02 -0.17154E-04
 0.93980003E+02  0.17751E-04
 0.94030006E+02  0.75198E-04
 0.94080002E+02  0.11134E-03
 0.94130005E+02  0.11825E-03
 0.94180008E+02  0.10208E-03
 0.94230003E+02  0.63713E-04
 0.94280006E+02  0.39415E-04
 0.94330002E+02  0.35128E-04
 0.94380005E+02  0.21150E-04
 0.94430008E+02 -0.27307E-04
 0.94480003E+02 -0.75465E-04
 0.94530006E+02 -0.95831E-04
 0.94580002E+02 -0.95192E-04
 0.94630005E+02 -0.68479E-04
 0.94680008E+02 -0.37471E-04
 0.94730003E+02 -0.94456E-05
 0.94780006E+02  0.13439E-04
 0.94830002E+02  0.34009E-04
 0.94880005E+02  0.59616E-04
 0.94930008E+02  0.73876E-04
 0.94980003E+02  0.70649E-04
 0.95030006E+02  0.45217E-04
 0.95080002E+02  0.33075E-05
 0.95130005E+02 -0.33864E-04
 0.95180008E+02 -0.50778E-04
 0.95230003E+02 -0.43895E-04
 0.95280006E+02 -0.31835E-04
 0.95330002E+02 -0.27124E-04
 0.95380005E+02 -0.20780E-04
 0.95430008E+02 -0.50890E-05
 0.95480003E+02  0.30179E-04
 0.95530006E+02  0.53478E-04
 0.95580002E+02  0.28221E-04
 0.95630005E+02 -0.31136E-04
 0.95680008E+02 -0.74754E-04
 0.95730003E+02 -0.63182E-04
 0.95780006E+02 -0.18384E-04
 0.95830002E+02  0.32465E-04
 0.95880005E+02  0.57355E-04
 0.95930008E+02  0.46826E-04
 0.95980003E+02  0.22125E-04
 0.96030006E+02 -0.38675E-06
 0.96080002E+02 -0.98832E-05
 0.96130005E+02 -0.23818E-04
 0.96180008E+02 -0.38286E-04
 0.96230003E+02 -0.34595E-04
 0.96280006E+02 -0.13432E-04
 0.96330002E+02  0.20071E-04
 0.96380005E+02  0.58196E-04
 0.96430008E+02  0.88457E-04
 0.96480003E+02  0.87666E-04
 0.96530006E+02  0.44847E-04
 0.96580002E+02 -0.84371E-05
 0.96630005E+02 -0.52244E-04
 0.96680008E+02 -0.81481E-04
 0.96730003E+02 -0.85676E-04
 0.96780006E+02 -0.71432E-04
 0.96830002E+02 -0.43866E-04
 0.96880005E+02 -0.19339E-04
 0.96930008E+02  0.97751E-05
 0.96980003E+02  0.38484E-04
 0.97030006E+02  0.56030E-04
 0.97080002E+02  0.77890E-04
 0.97130005E+02  0.65435E-04
 0.97180008E+02  0.24297E-04
 0.97230003E+02 -0.10973E-04
 0.97280006E+02 -0.47559E-04
 0.97330002E+02 -0.58266E-04
 0.97380005E+02 -0.46595E-04
 0.97430008E+02 -0.30036E-04
 0.97480003E+02 -0.20125E-05
 0.97530006E+02  0.88327E-05
 0.97580002E+02  0.15682E-04
 0.97630005E+02  0.24363E-04
 0.97680008E+02  0.10175E-04
 0.97730003E+02 -0.73947E-05
 0.97780006E+02 -0.17423E-04
 0.97830002E+02 -0.40659E-05
 0.97880005E+02  0.16306E-04
 0.97930008E+02  0.25073E-04
 0.97980003E+02  0.27500E-04
 0.98030006E+02  0.21258E-04
 0.98080002E+02  0.22889E-04
 0.98130005E+02  0.20574E-04
 0.98180008E+02  0.23348E-04
 0.98230003E+02  0.35596E-04
 0.98280006E+02  0.35203E-04
 0.98330002E+02  0.21729E-04
 0.98380005E+02 -0.11034E-05
 0.98430008E+02 -0.91494E-05
 0.98480003E+02 -0.11042E-04
 0.98530006E+02 -0.38133E-04
 0.98580002E+02 -0.67567E-04
 0.98630005E+02 -0.62131E-04
 0.98680008E+02 -0.42148E-04
 0.98730003E+02 -0.43503E-04
 0.98780006E+02 -0.59359E-04
 0.98830002E+02 -0.76068E-04
 0.98880005E+02 -0.76409E-04
 0.98930008E+02 -0.49439E-04
 0.98980003E+02 -0.13755E-04
 0.99030006E+02  0.23084E-04
 0.99080002E+02  0.59682E-04
 0.99130005E+02  0.79734E-04
 0.99180008E+02  0.83080E-04
 0.99230003E+02  0.84446E-04
 0.99280006E+02  0.73366E-04
 0.99330002E+02  0.40237E-04
 0.99380005E+02  0.16511E-06
 0.99430008E+02 -0.26978E-04
 0.99480003E+02 -0.28760E-04
 0.99530006E+02 -0.15523E-04
 0.99580002E+02  0.69293E-05
 0.99630005E+02  0.29027E-04
 0.99680008E+02  0.47343E-04
 0.99730003E+02  0.55732E-04
 0.99780006E+02  0.33442E-04
 0.99830002E+02  0.12770E-04
 0.99880005E+02  0.21679E-04
 0.99930008E+02  0.20271E-04
 0.99980003E+02 -0.20822E-04
