-0.19996643E-01  0.53123E-05
 0.30003358E-01  0.23554E-05
 0.80003358E-01  0.10556E-05
 0.13000336E+00  0.70896E-06
 0.18000336E+00 -0.54395E-06
 0.23000336E+00 -0.15638E-05
 0.28000337E+00 -0.23529E-05
 0.33000335E+00 -0.22383E-05
 0.38000336E+00 -0.13917E-05
 0.43000337E+00 -0.75923E-06
 0.48000336E+00 -0.51907E-06
 0.53000337E+00 -0.15047E-05
 0.58000338E+00 -0.22775E-05
 0.63000339E+00 -0.15017E-05
 0.68000335E+00  0.18935E-06
 0.73000336E+00  0.97244E-06
 0.78000337E+00  0.15104E-06
 0.83000338E+00 -0.22701E-07
 0.88000339E+00  0.26121E-06
 0.93000335E+00 -0.75225E-06
 0.98000336E+00 -0.41284E-06
 0.10300034E+01  0.11996E-05
 0.10800034E+01  0.15827E-05
 0.11300033E+01  0.11946E-05
 0.11800034E+01  0.34053E-06
 0.12300034E+01 -0.23297E-06
 0.12800034E+01  0.57734E-06
 0.13300034E+01  0.96852E-06
 0.13800033E+01 -0.28015E-06
 0.14300034E+01 -0.42415E-06
 0.14800034E+01  0.59005E-06
 0.15300034E+01  0.11285E-05
 0.15800034E+01  0.94266E-06
 0.16300033E+01  0.81506E-07
 0.16800034E+01 -0.10072E-07
 0.17300034E+01  0.41642E-06
 0.17800034E+01  0.92880E-06
 0.18300034E+01  0.15668E-05
 0.18800033E+01  0.15108E-05
 0.19300034E+01  0.88301E-06
 0.19800034E+01 -0.46487E-06
 0.20300033E+01 -0.14786E-05
 0.20800035E+01 -0.11966E-05
 0.21300035E+01 -0.78367E-06
 0.21800034E+01 -0.54559E-06
 0.22300034E+01 -0.11130E-05
 0.22800033E+01 -0.23722E-05
 0.23300035E+01 -0.17051E-05
 0.23800035E+01  0.15911E-06
 0.24300034E+01  0.58680E-06
 0.24800034E+01 -0.37295E-06
 0.25300033E+01 -0.15514E-05
 0.25800035E+01 -0.94979E-06
 0.26300035E+01  0.42217E-06
 0.26800034E+01  0.50347E-06
 0.27300034E+01 -0.70521E-07
 0.27800033E+01 -0.60642E-06
 0.28300035E+01  0.50286E-07
 0.28800035E+01  0.56072E-06
 0.29300034E+01 -0.12957E-07
 0.29800034E+01  0.35694E-06
 0.30300033E+01  0.88207E-06
 0.30800035E+01 -0.11666E-06
 0.31300035E+01 -0.82477E-06
 0.31800034E+01  0.16511E-07
 0.32300034E+01  0.35101E-06
 0.32800033E+01  0.41415E-06
 0.33300035E+01  0.85435E-06
 0.33800035E+01  0.74510E-06
 0.34300034E+01  0.45889E-06
 0.34800034E+01  0.12125E-06
 0.35300033E+01 -0.16445E-06
 0.35800035E+01  0.22969E-06
 0.36300035E+01  0.11956E-05
 0.36800034E+01  0.16417E-05
 0.37300034E+01  0.45036E-06
 0.37800033E+01 -0.96151E-06
 0.38300035E+01 -0.10187E-05
 0.38800035E+01 -0.28897E-06
 0.39300034E+01  0.66513E-06
 0.39800034E+01  0.62398E-06
 0.40300035E+01  0.44181E-06
 0.40800033E+01 -0.19095E-06
 0.41300035E+01 -0.18114E-05
 0.41800036E+01 -0.17662E-05
 0.42300034E+01 -0.12214E-05
 0.42800035E+01 -0.10649E-05
 0.43300033E+01 -0.20241E-06
 0.43800035E+01  0.64930E-06
 0.44300036E+01  0.40619E-06
 0.44800034E+01 -0.97844E-06
 0.45300035E+01 -0.14179E-05
 0.45800033E+01 -0.90963E-06
 0.46300035E+01  0.30633E-06
 0.46800036E+01  0.18961E-05
 0.47300034E+01  0.22466E-05
 0.47800035E+01  0.19341E-05
 0.48300033E+01  0.31566E-06
 0.48800035E+01 -0.71221E-06
 0.49300036E+01 -0.61691E-06
 0.49800034E+01 -0.83635E-06
 0.50300035E+01 -0.14799E-06
 0.50800033E+01  0.71741E-07
 0.51300035E+01  0.22046E-06
 0.51800036E+01  0.46558E-06
 0.52300034E+01  0.74128E-06
 0.52800035E+01  0.96938E-06
 0.53300033E+01 -0.16506E-06
 0.53800035E+01 -0.85465E-06
 0.54300036E+01 -0.67049E-06
 0.54800034E+01 -0.24934E-06
 0.55300035E+01  0.17596E-06
 0.55800033E+01  0.12122E-06
 0.56300035E+01  0.24302E-06
 0.56800036E+01  0.53246E-06
 0.57300034E+01  0.54256E-06
 0.57800035E+01  0.90614E-06
 0.58300033E+01  0.40788E-06
 0.58800035E+01 -0.53731E-06
 0.59300036E+01  0.13362E-06
 0.59800034E+01  0.54442E-06
 0.60300035E+01 -0.49692E-06
 0.60800033E+01 -0.15128E-05
 0.61300035E+01 -0.58398E-06
 0.61800036E+01  0.12220E-05
 0.62300034E+01  0.12870E-05
 0.62800035E+01 -0.57563E-06
 0.63300033E+01 -0.17579E-05
 0.63800035E+01 -0.10620E-05
 0.64300036E+01 -0.13367E-06
 0.64800034E+01  0.67020E-06
 0.65300035E+01  0.11363E-05
 0.65800033E+01  0.16035E-05
 0.66300035E+01  0.88805E-06
 0.66800036E+01 -0.40686E-06
 0.67300034E+01 -0.13111E-05
 0.67800035E+01 -0.24695E-05
 0.68300033E+01 -0.13140E-05
 0.68800035E+01  0.33121E-06
 0.69300036E+01  0.10707E-06
 0.69800034E+01 -0.75217E-06
 0.70300035E+01 -0.14039E-05
 0.70800033E+01 -0.13319E-05
 0.71300035E+01 -0.38937E-06
 0.71800036E+01  0.16048E-05
 0.72300034E+01  0.24243E-05
 0.72800035E+01  0.47301E-06
 0.73300033E+01 -0.14902E-05
 0.73800035E+01 -0.13335E-05
 0.74300036E+01  0.16632E-06
 0.74800034E+01  0.13365E-05
 0.75300035E+01  0.17939E-05
 0.75800033E+01  0.21082E-05
 0.76300035E+01  0.13203E-05
 0.76800036E+01  0.65396E-07
 0.77300034E+01 -0.69564E-06
 0.77800035E+01 -0.12991E-06
 0.78300033E+01  0.11105E-05
 0.78800035E+01  0.47086E-06
 0.79300036E+01 -0.50173E-07
 0.79800034E+01 -0.13312E-06
 0.80300035E+01 -0.17163E-06
 0.80800037E+01  0.37961E-06
 0.81300039E+01 -0.42285E-06
 0.81800032E+01 -0.10140E-05
 0.82300034E+01 -0.11191E-05
 0.82800035E+01 -0.15224E-05
 0.83300037E+01 -0.12031E-05
 0.83800039E+01 -0.61573E-06
 0.84300032E+01  0.16326E-06
 0.84800034E+01  0.55366E-06
 0.85300035E+01  0.80992E-07
 0.85800037E+01 -0.64968E-06
 0.86300039E+01 -0.86318E-06
 0.86800032E+01 -0.67799E-06
 0.87300034E+01  0.75352E-07
 0.87800035E+01  0.13411E-05
 0.88300037E+01  0.14519E-05
 0.88800039E+01  0.59213E-06
 0.89300032E+01 -0.54386E-06
 0.89800034E+01 -0.10764E-05
 0.90300035E+01 -0.15698E-06
 0.90800037E+01  0.29143E-06
 0.91300039E+01 -0.18955E-06
 0.91800032E+01 -0.29183E-06
 0.92300034E+01  0.53039E-06
 0.92800035E+01  0.95013E-06
 0.93300037E+01  0.14905E-06
 0.93800039E+01 -0.39264E-06
 0.94300032E+01 -0.47329E-06
 0.94800034E+01  0.10600E-05
 0.95300035E+01  0.23652E-05
 0.95800037E+01  0.36500E-06
 0.96300039E+01 -0.17075E-05
 0.96800032E+01 -0.16221E-05
 0.97300034E+01 -0.27917E-06
 0.97800035E+01  0.11416E-05
 0.98300037E+01  0.82157E-06
 0.98800039E+01 -0.75201E-07
 0.99300032E+01  0.42858E-06
 0.99800034E+01  0.35165E-06
 0.10030004E+02 -0.49742E-06
 0.10080004E+02 -0.52317E-06
 0.10130004E+02 -0.16037E-06
 0.10180003E+02  0.62942E-06
 0.10230003E+02  0.14665E-05
 0.10280004E+02  0.15611E-05
 0.10330004E+02  0.94093E-07
 0.10380004E+02 -0.14213E-05
 0.10430003E+02 -0.76432E-06
 0.10480003E+02 -0.89819E-07
 0.10530004E+02  0.44209E-06
 0.10580004E+02  0.11843E-05
 0.10630004E+02 -0.68696E-07
 0.10680003E+02 -0.14991E-05
 0.10730003E+02 -0.16574E-05
 0.10780004E+02 -0.12940E-05
 0.10830004E+02 -0.18674E-06
 0.10880004E+02  0.32272E-06
 0.10930003E+02  0.16703E-06
 0.10980003E+02 -0.70855E-06
 0.11030004E+02 -0.21106E-05
 0.11080004E+02 -0.13356E-05
 0.11130004E+02  0.54253E-06
 0.11180003E+02  0.13295E-05
 0.11230003E+02  0.12849E-05
 0.11280004E+02  0.11778E-05
 0.11330004E+02  0.85064E-06
 0.11380004E+02  0.24833E-06
 0.11430003E+02 -0.33813E-06
 0.11480003E+02 -0.10256E-05
 0.11530004E+02 -0.34389E-06
 0.11580004E+02  0.58223E-06
 0.11630004E+02  0.24711E-06
 0.11680003E+02  0.39747E-06
 0.11730003E+02  0.30528E-06
 0.11780004E+02 -0.47329E-06
 0.11830004E+02 -0.58017E-06
 0.11880004E+02 -0.71015E-06
 0.11930003E+02 -0.27358E-06
 0.11980003E+02  0.63281E-06
 0.12030004E+02  0.75303E-06
 0.12080004E+02  0.96620E-06
 0.12130004E+02  0.61066E-06
 0.12180003E+02 -0.58348E-07
 0.12230003E+02  0.13007E-06
 0.12280004E+02  0.33894E-06
 0.12330004E+02  0.19090E-06
 0.12380004E+02 -0.64141E-06
 0.12430003E+02 -0.57748E-06
 0.12480003E+02  0.68407E-06
 0.12530004E+02  0.67790E-06
 0.12580004E+02 -0.74639E-07
 0.12630004E+02 -0.66452E-06
 0.12680003E+02 -0.77256E-06
 0.12730003E+02 -0.54456E-06
 0.12780004E+02 -0.57387E-06
 0.12830004E+02 -0.40543E-06
 0.12880004E+02 -0.49169E-06
 0.12930003E+02 -0.22882E-06
 0.12980003E+02  0.62038E-06
 0.13030004E+02  0.64512E-06
 0.13080004E+02 -0.48207E-06
 0.13130004E+02 -0.10654E-05
 0.13180003E+02  0.44353E-09
 0.13230003E+02  0.63933E-06
 0.13280004E+02  0.10834E-05
 0.13330004E+02  0.92959E-06
 0.13380004E+02 -0.74087E-06
 0.13430003E+02 -0.11076E-05
 0.13480003E+02 -0.33684E-06
 0.13530004E+02 -0.88556E-07
 0.13580004E+02  0.16790E-06
 0.13630004E+02  0.57605E-06
 0.13680003E+02  0.57625E-06
 0.13730003E+02 -0.48380E-06
 0.13780004E+02 -0.97130E-06
 0.13830004E+02  0.23495E-06
 0.13880004E+02  0.10986E-05
 0.13930003E+02  0.15901E-05
 0.13980003E+02  0.10117E-05
 0.14030004E+02 -0.31380E-07
 0.14080004E+02  0.28334E-06
 0.14130004E+02  0.60835E-06
 0.14180003E+02 -0.33848E-07
 0.14230003E+02 -0.10470E-05
 0.14280004E+02 -0.11754E-05
 0.14330004E+02 -0.49941E-06
 0.14380004E+02 -0.14657E-06
 0.14430003E+02 -0.31558E-06
 0.14480003E+02  0.69620E-06
 0.14530004E+02  0.12824E-05
 0.14580004E+02 -0.32849E-06
 0.14630004E+02 -0.12228E-05
 0.14680003E+02 -0.88443E-06
 0.14730003E+02  0.10376E-06
 0.14780004E+02  0.14839E-05
 0.14830004E+02  0.10323E-05
 0.14880004E+02 -0.63488E-06
 0.14930003E+02 -0.15762E-05
 0.14980003E+02 -0.15660E-05
 0.15030004E+02 -0.58531E-06
 0.15080004E+02  0.71865E-06
 0.15130004E+02  0.13345E-05
 0.15180003E+02  0.48925E-06
 0.15230003E+02 -0.13963E-06
 0.15280004E+02  0.67491E-07
 0.15330004E+02 -0.16990E-06
 0.15380004E+02 -0.63104E-06
 0.15430003E+02 -0.10320E-05
 0.15480003E+02 -0.31157E-06
 0.15530004E+02  0.80544E-06
 0.15580004E+02  0.66692E-06
 0.15630004E+02 -0.40645E-06
 0.15680003E+02 -0.15123E-05
 0.15730003E+02 -0.52645E-06
 0.15780004E+02  0.14929E-05
 0.15830004E+02  0.18325E-05
 0.15880004E+02  0.50082E-06
 0.15930003E+02 -0.67695E-06
 0.15980003E+02 -0.16310E-06
 0.16030005E+02  0.24853E-06
 0.16080004E+02  0.71623E-06
 0.16130003E+02  0.13394E-05
 0.16180004E+02  0.33852E-06
 0.16230003E+02 -0.10423E-05
 0.16280005E+02 -0.16244E-05
 0.16330004E+02 -0.13566E-05
 0.16380003E+02 -0.67392E-06
 0.16430004E+02 -0.29240E-06
 0.16480003E+02  0.15200E-06
 0.16530005E+02  0.13378E-05
 0.16580004E+02  0.20718E-05
 0.16630003E+02  0.14511E-05
 0.16680004E+02  0.10084E-06
 0.16730003E+02 -0.77846E-06
 0.16780005E+02 -0.14518E-06
 0.16830004E+02  0.29696E-06
 0.16880003E+02 -0.55170E-06
 0.16930004E+02 -0.15887E-05
 0.16980003E+02 -0.85793E-06
 0.17030005E+02  0.88534E-06
 0.17080004E+02  0.11436E-05
 0.17130003E+02  0.37220E-06
 0.17180004E+02 -0.11089E-05
 0.17230003E+02 -0.13761E-05
 0.17280005E+02  0.24197E-06
 0.17330004E+02  0.12555E-05
 0.17380003E+02  0.88570E-06
 0.17430004E+02 -0.72106E-07
 0.17480003E+02 -0.48524E-06
 0.17530005E+02 -0.54776E-06
 0.17580004E+02 -0.53708E-06
 0.17630003E+02 -0.33079E-06
 0.17680004E+02  0.83439E-06
 0.17730003E+02  0.19329E-05
 0.17780005E+02  0.36027E-06
 0.17830004E+02 -0.14396E-05
 0.17880003E+02 -0.95365E-06
 0.17930004E+02  0.17220E-06
 0.17980003E+02  0.62207E-06
 0.18030005E+02  0.28451E-06
 0.18080004E+02 -0.36572E-07
 0.18130003E+02 -0.12673E-06
 0.18180004E+02 -0.29279E-06
 0.18230003E+02 -0.93952E-06
 0.18280005E+02 -0.15802E-05
 0.18330004E+02 -0.79413E-06
 0.18380003E+02 -0.12927E-06
 0.18430004E+02 -0.30488E-06
 0.18480003E+02 -0.18848E-06
 0.18530005E+02 -0.28966E-06
 0.18580004E+02 -0.78221E-06
 0.18630003E+02 -0.13534E-05
 0.18680004E+02 -0.72754E-06
 0.18730003E+02  0.51934E-06
 0.18780005E+02  0.97151E-06
 0.18830004E+02  0.10196E-05
 0.18880003E+02  0.92468E-06
 0.18930004E+02  0.16754E-05
 0.18980003E+02  0.21961E-05
 0.19030005E+02  0.13645E-05
 0.19080004E+02  0.86430E-07
 0.19130003E+02 -0.92442E-06
 0.19180004E+02 -0.10340E-05
 0.19230003E+02 -0.29836E-06
 0.19280005E+02  0.78867E-06
 0.19330004E+02  0.11673E-05
 0.19380003E+02  0.28934E-06
 0.19430004E+02 -0.30576E-06
 0.19480003E+02  0.39089E-06
 0.19530005E+02  0.33702E-06
 0.19580004E+02 -0.41315E-06
 0.19630003E+02 -0.18769E-06
 0.19680004E+02  0.16137E-06
 0.19730003E+02  0.34078E-06
 0.19780005E+02  0.69240E-06
 0.19830004E+02  0.82362E-06
 0.19880003E+02  0.54590E-07
 0.19930004E+02 -0.74363E-06
 0.19980003E+02 -0.60975E-06
 0.20030005E+02 -0.24486E-06
 0.20080004E+02  0.18506E-06
 0.20130003E+02  0.80321E-07
 0.20180004E+02 -0.84930E-06
 0.20230003E+02 -0.11397E-05
 0.20280005E+02 -0.79419E-06
 0.20330004E+02 -0.69021E-06
 0.20380003E+02 -0.68610E-06
 0.20430004E+02 -0.12184E-05
 0.20480003E+02 -0.16796E-05
 0.20530005E+02 -0.74766E-06
 0.20580004E+02  0.93396E-06
 0.20630003E+02  0.14435E-05
 0.20680004E+02  0.17790E-06
 0.20730003E+02 -0.11197E-05
 0.20780005E+02 -0.99602E-06
 0.20830004E+02 -0.41087E-06
 0.20880003E+02 -0.50027E-07
 0.20930004E+02  0.41986E-06
 0.20980003E+02  0.36414E-06
 0.21030005E+02  0.77680E-06
 0.21080004E+02  0.91685E-06
 0.21130003E+02  0.25365E-06
 0.21180004E+02  0.86726E-06
 0.21230003E+02  0.15587E-05
 0.21280005E+02  0.15616E-05
 0.21330004E+02  0.83519E-06
 0.21380003E+02 -0.58621E-07
 0.21430004E+02  0.43450E-07
 0.21480003E+02 -0.11227E-06
 0.21530005E+02 -0.66879E-06
 0.21580004E+02 -0.64905E-06
 0.21630003E+02 -0.59382E-06
 0.21680004E+02 -0.54857E-06
 0.21730003E+02 -0.57245E-07
 0.21780005E+02  0.46699E-06
 0.21830004E+02  0.36421E-06
 0.21880003E+02 -0.64956E-06
 0.21930004E+02 -0.76793E-06
 0.21980003E+02  0.11180E-05
 0.22030005E+02  0.19108E-05
 0.22080004E+02  0.28708E-06
 0.22130003E+02 -0.75904E-06
 0.22180004E+02 -0.68005E-06
 0.22230003E+02 -0.22164E-07
 0.22280005E+02  0.57259E-06
 0.22330004E+02  0.18560E-06
 0.22380003E+02 -0.40005E-06
 0.22430004E+02 -0.59879E-06
 0.22480003E+02 -0.18098E-06
 0.22530005E+02  0.17927E-06
 0.22580004E+02  0.18540E-06
 0.22630003E+02 -0.22306E-06
 0.22680004E+02 -0.60784E-06
 0.22730003E+02 -0.12468E-05
 0.22780005E+02 -0.15687E-05
 0.22830004E+02 -0.30440E-06
 0.22880003E+02  0.11545E-05
 0.22930004E+02  0.17518E-05
 0.22980003E+02  0.71157E-06
 0.23030005E+02 -0.45610E-06
 0.23080004E+02 -0.43435E-06
 0.23130003E+02 -0.17420E-06
 0.23180004E+02  0.63937E-06
 0.23230003E+02  0.10911E-05
 0.23280005E+02  0.55391E-06
 0.23330004E+02 -0.24653E-06
 0.23380003E+02 -0.79033E-06
 0.23430004E+02 -0.92769E-06
 0.23480003E+02 -0.14333E-05
 0.23530005E+02 -0.90278E-06
 0.23580004E+02  0.53541E-06
 0.23630003E+02  0.57752E-06
 0.23680004E+02  0.16981E-06
 0.23730003E+02  0.22560E-06
 0.23780005E+02 -0.56091E-06
 0.23830004E+02 -0.17176E-05
 0.23880003E+02 -0.99301E-06
 0.23930004E+02  0.46847E-06
 0.23980003E+02  0.53250E-06
 0.24030005E+02  0.85048E-07
 0.24080004E+02  0.55575E-07
 0.24130003E+02 -0.32064E-06
 0.24180004E+02 -0.51663E-06
 0.24230003E+02  0.38515E-06
 0.24280005E+02  0.77628E-06
 0.24330004E+02  0.71159E-06
 0.24380003E+02  0.74451E-06
 0.24430004E+02  0.17197E-06
 0.24480003E+02 -0.48615E-06
 0.24530005E+02 -0.90107E-06
 0.24580004E+02 -0.43836E-07
 0.24630003E+02  0.10373E-05
 0.24680004E+02  0.93217E-06
 0.24730003E+02  0.66345E-06
 0.24780005E+02  0.52073E-06
 0.24830004E+02  0.18364E-06
 0.24880003E+02 -0.13184E-06
 0.24930004E+02  0.78400E-06
 0.24980003E+02  0.12601E-05
 0.25030005E+02  0.77814E-06
 0.25080004E+02  0.47906E-06
 0.25130003E+02 -0.69403E-07
 0.25180004E+02 -0.22860E-06
 0.25230003E+02 -0.63147E-07
 0.25280005E+02  0.25177E-06
 0.25330004E+02 -0.26178E-07
 0.25380003E+02 -0.18838E-06
 0.25430004E+02  0.15362E-07
 0.25480003E+02 -0.17176E-06
 0.25530005E+02 -0.69621E-06
 0.25580004E+02 -0.14579E-05
 0.25630003E+02 -0.54543E-06
 0.25680004E+02  0.25581E-06
 0.25730003E+02 -0.25199E-06
 0.25780005E+02 -0.79345E-06
 0.25830004E+02 -0.16048E-05
 0.25880003E+02 -0.99041E-06
 0.25930004E+02  0.32128E-06
 0.25980003E+02  0.64952E-06
 0.26030005E+02  0.11623E-05
 0.26080004E+02  0.10107E-05
 0.26130003E+02  0.42317E-06
 0.26180004E+02 -0.33074E-07
 0.26230003E+02 -0.10271E-05
 0.26280005E+02 -0.83898E-06
 0.26330004E+02 -0.12783E-06
 0.26380003E+02 -0.44729E-06
 0.26430004E+02 -0.91526E-06
 0.26480003E+02 -0.24361E-06
 0.26530005E+02  0.11863E-05
 0.26580004E+02  0.19232E-05
 0.26630003E+02  0.51891E-06
 0.26680004E+02 -0.22913E-05
 0.26730003E+02 -0.24316E-05
 0.26780005E+02 -0.47828E-06
 0.26830004E+02  0.98075E-06
 0.26880003E+02  0.17201E-05
 0.26930004E+02  0.11036E-05
 0.26980003E+02  0.49046E-07
 0.27030005E+02 -0.82661E-06
 0.27080004E+02 -0.14191E-05
 0.27130003E+02 -0.83824E-06
 0.27180004E+02  0.43250E-06
 0.27230003E+02  0.68448E-06
 0.27280005E+02  0.20701E-06
 0.27330004E+02  0.20949E-06
 0.27380003E+02  0.23691E-06
 0.27430004E+02  0.32477E-06
 0.27480003E+02  0.17602E-06
 0.27530005E+02 -0.73863E-07
 0.27580004E+02 -0.60342E-07
 0.27630003E+02 -0.74733E-06
 0.27680004E+02 -0.10087E-05
 0.27730003E+02 -0.11768E-06
 0.27780005E+02  0.77301E-06
 0.27830004E+02  0.12455E-05
 0.27880003E+02  0.62634E-06
 0.27930004E+02 -0.16315E-06
 0.27980003E+02 -0.75085E-07
 0.28030005E+02  0.31436E-06
 0.28080004E+02  0.69556E-06
 0.28130003E+02  0.73785E-06
 0.28180004E+02  0.85640E-06
 0.28230003E+02  0.72290E-06
 0.28280005E+02 -0.33899E-06
 0.28330004E+02 -0.84648E-06
 0.28380003E+02 -0.99648E-07
 0.28430004E+02  0.22268E-06
 0.28480003E+02  0.33178E-06
 0.28530005E+02  0.10002E-05
 0.28580004E+02  0.99059E-06
 0.28630003E+02  0.56633E-06
 0.28680004E+02  0.36714E-06
 0.28730003E+02 -0.30960E-06
 0.28780005E+02 -0.78175E-06
 0.28830004E+02 -0.26783E-06
 0.28880003E+02 -0.10490E-06
 0.28930004E+02 -0.10270E-05
 0.28980003E+02 -0.13505E-05
 0.29030005E+02 -0.29324E-06
 0.29080004E+02  0.80348E-06
 0.29130003E+02  0.68361E-06
 0.29180004E+02 -0.45809E-06
 0.29230003E+02 -0.10112E-05
 0.29280005E+02 -0.17759E-05
 0.29330004E+02 -0.21579E-05
 0.29380003E+02 -0.69503E-06
 0.29430004E+02 -0.21927E-06
 0.29480003E+02 -0.10496E-05
 0.29530005E+02 -0.10576E-05
 0.29580004E+02  0.23905E-06
 0.29630003E+02  0.14418E-05
 0.29680004E+02  0.11962E-05
 0.29730003E+02  0.76408E-06
 0.29780005E+02  0.76800E-06
 0.29830004E+02  0.56210E-06
 0.29880003E+02  0.61892E-06
 0.29930004E+02  0.85722E-06
 0.29980003E+02  0.85906E-06
 0.30030005E+02  0.36702E-06
 0.30080004E+02 -0.11091E-05
 0.30130003E+02 -0.10446E-05
 0.30180004E+02  0.21382E-06
 0.30230003E+02  0.65327E-06
 0.30280005E+02  0.11466E-05
 0.30330004E+02 -0.49187E-06
 0.30380003E+02 -0.13018E-05
 0.30430004E+02 -0.96014E-07
 0.30480003E+02 -0.13069E-07
 0.30530005E+02  0.58859E-06
 0.30580004E+02  0.58549E-06
 0.30630003E+02  0.36703E-06
 0.30680004E+02 -0.37669E-06
 0.30730003E+02 -0.10507E-05
 0.30780005E+02  0.76719E-06
 0.30830004E+02  0.15589E-05
 0.30880003E+02  0.59858E-06
 0.30930004E+02 -0.63832E-06
 0.30980003E+02 -0.15039E-05
 0.31030005E+02 -0.85381E-06
 0.31080004E+02  0.40958E-06
 0.31130003E+02  0.14704E-05
 0.31180004E+02  0.19478E-05
 0.31230003E+02  0.10221E-05
 0.31280005E+02 -0.11491E-05
 0.31330004E+02 -0.28807E-05
 0.31380003E+02 -0.28122E-05
 0.31430004E+02 -0.20292E-05
 0.31480003E+02 -0.21040E-05
 0.31530005E+02 -0.17174E-05
 0.31580004E+02 -0.12067E-06
 0.31630003E+02  0.92466E-06
 0.31680004E+02  0.19845E-05
 0.31730003E+02  0.38528E-05
 0.31780005E+02  0.23378E-05
 0.31830004E+02 -0.20986E-05
 0.31880003E+02 -0.13540E-05
 0.31930004E+02 -0.33715E-06
 0.31980003E+02 -0.46252E-05
 0.32030003E+02 -0.35464E-05
 0.32080006E+02  0.14693E-05
 0.32130005E+02  0.23341E-05
 0.32180004E+02  0.61396E-05
 0.32230003E+02  0.81939E-05
 0.32280003E+02 -0.64769E-06
 0.32330006E+02 -0.40423E-05
 0.32380005E+02 -0.99319E-06
 0.32430004E+02 -0.45144E-05
 0.32480003E+02 -0.30587E-05
 0.32530003E+02  0.24708E-05
 0.32580006E+02  0.17097E-05
 0.32630005E+02  0.40330E-05
 0.32680004E+02  0.10606E-04
 0.32730003E+02  0.10129E-04
 0.32780003E+02  0.20073E-06
 0.32830006E+02 -0.69141E-05
 0.32880005E+02 -0.40419E-05
 0.32930004E+02 -0.20701E-05
 0.32980003E+02 -0.79950E-05
 0.33030003E+02 -0.11909E-04
 0.33080006E+02 -0.32429E-05
 0.33130005E+02  0.87634E-05
 0.33180004E+02  0.81274E-05
 0.33230003E+02 -0.11143E-06
 0.33280003E+02 -0.18321E-05
 0.33330006E+02 -0.14126E-05
 0.33380005E+02 -0.42300E-05
 0.33430004E+02 -0.10317E-04
 0.33480003E+02 -0.16350E-04
 0.33530003E+02 -0.31639E-05
 0.33580006E+02  0.14966E-04
 0.33630005E+02  0.83717E-05
 0.33680004E+02  0.57103E-05
 0.33730003E+02  0.16726E-04
 0.33780003E+02  0.12350E-04
 0.33830006E+02 -0.59893E-06
 0.33880005E+02 -0.14937E-04
 0.33930004E+02 -0.14688E-04
 0.33980003E+02  0.34815E-05
 0.34030003E+02  0.13229E-05
 0.34080006E+02 -0.95121E-05
 0.34130005E+02  0.28956E-06
 0.34180004E+02  0.11115E-04
 0.34230003E+02  0.10694E-04
 0.34280003E+02 -0.96092E-06
 0.34330006E+02 -0.13663E-04
 0.34380005E+02 -0.53300E-05
 0.34430004E+02  0.38816E-07
 0.34480003E+02  0.38175E-05
 0.34530003E+02  0.14017E-04
 0.34580006E+02  0.88409E-05
 0.34630005E+02  0.16942E-04
 0.34680004E+02  0.14912E-04
 0.34730003E+02 -0.69860E-05
 0.34780003E+02 -0.63934E-05
 0.34830006E+02 -0.22762E-04
 0.34880005E+02 -0.41162E-04
 0.34930004E+02 -0.22085E-04
 0.34980003E+02 -0.14780E-04
 0.35030003E+02 -0.16060E-04
 0.35080006E+02  0.66565E-05
 0.35130005E+02  0.21892E-04
 0.35180004E+02  0.16556E-04
 0.35230003E+02  0.11374E-04
 0.35280003E+02  0.37688E-05
 0.35330006E+02 -0.62832E-05
 0.35380005E+02 -0.44870E-05
 0.35430004E+02  0.14216E-04
 0.35480003E+02  0.16876E-04
 0.35530003E+02  0.27407E-06
 0.35580006E+02  0.10363E-04
 0.35630005E+02  0.23797E-04
 0.35680004E+02  0.23135E-04
 0.35730003E+02  0.27204E-04
 0.35780003E+02  0.21883E-04
 0.35830006E+02 -0.87629E-05
 0.35880005E+02 -0.23098E-04
 0.35930004E+02 -0.11108E-05
 0.35980003E+02 -0.16529E-04
 0.36030003E+02 -0.41450E-04
 0.36080006E+02 -0.19741E-04
 0.36130005E+02 -0.24887E-05
 0.36180004E+02 -0.28235E-04
 0.36230003E+02 -0.47282E-04
 0.36280003E+02 -0.11605E-04
 0.36330006E+02  0.44557E-05
 0.36380005E+02 -0.94636E-05
 0.36430004E+02 -0.85802E-05
 0.36480003E+02 -0.14467E-05
 0.36530003E+02  0.35797E-04
 0.36580006E+02  0.58547E-04
 0.36630005E+02  0.30653E-04
 0.36680004E+02  0.12917E-04
 0.36730003E+02  0.20198E-04
 0.36780003E+02  0.59622E-05
 0.36830006E+02 -0.26522E-04
 0.36880005E+02 -0.22487E-04
 0.36930004E+02 -0.25625E-04
 0.36980003E+02 -0.38289E-04
 0.37030003E+02 -0.12048E-04
 0.37080006E+02 -0.76099E-05
 0.37130005E+02 -0.75343E-05
 0.37180004E+02  0.19740E-04
 0.37230003E+02  0.23543E-04
 0.37280003E+02  0.94949E-05
 0.37330006E+02 -0.18111E-06
 0.37380005E+02 -0.86106E-05
 0.37430004E+02 -0.27484E-04
 0.37480003E+02 -0.26790E-04
 0.37530003E+02  0.19014E-04
 0.37580006E+02  0.37752E-04
 0.37630005E+02  0.50233E-05
 0.37680004E+02 -0.28140E-04
 0.37730003E+02 -0.52296E-05
 0.37780003E+02  0.54359E-04
 0.37830006E+02  0.59119E-04
 0.37880005E+02  0.49216E-04
 0.37930004E+02  0.84559E-04
 0.37980003E+02  0.97180E-04
 0.38030003E+02  0.36136E-04
 0.38080006E+02 -0.12072E-04
 0.38130005E+02 -0.16224E-04
 0.38180004E+02 -0.36330E-04
 0.38230003E+02 -0.54656E-04
 0.38280003E+02 -0.86559E-04
 0.38330006E+02 -0.12671E-03
 0.38380005E+02 -0.10472E-03
 0.38430004E+02 -0.26589E-04
 0.38480003E+02 -0.20712E-04
 0.38530003E+02 -0.71190E-04
 0.38580006E+02 -0.37692E-04
 0.38630005E+02 -0.14581E-04
 0.38680004E+02 -0.40511E-04
 0.38730003E+02 -0.96213E-05
 0.38780003E+02  0.34292E-04
 0.38830006E+02  0.69844E-04
 0.38880005E+02  0.12685E-03
 0.38930004E+02  0.11315E-03
 0.38980003E+02  0.91255E-04
 0.39030003E+02  0.15258E-03
 0.39080006E+02  0.14335E-03
 0.39130005E+02  0.26689E-04
 0.39180004E+02 -0.77862E-04
 0.39230003E+02 -0.10306E-03
 0.39280003E+02 -0.11143E-03
 0.39330006E+02 -0.12667E-03
 0.39380005E+02 -0.56926E-04
 0.39430004E+02  0.36660E-04
 0.39480003E+02  0.60397E-04
 0.39530003E+02  0.53978E-04
 0.39580006E+02  0.57352E-04
 0.39630005E+02  0.38354E-04
 0.39680004E+02 -0.21186E-04
 0.39730003E+02 -0.96776E-04
 0.39780003E+02 -0.15667E-03
 0.39830006E+02 -0.15059E-03
 0.39880005E+02 -0.10757E-03
 0.39930004E+02 -0.46912E-04
 0.39980003E+02  0.56436E-04
 0.40030003E+02  0.13009E-03
 0.40080006E+02  0.14072E-03
 0.40130005E+02  0.16442E-03
 0.40180004E+02  0.19453E-03
 0.40230003E+02  0.13593E-03
 0.40280003E+02  0.84022E-04
 0.40330006E+02  0.10184E-03
 0.40380005E+02  0.29964E-04
 0.40430004E+02 -0.10833E-03
 0.40480003E+02 -0.15275E-03
 0.40530003E+02 -0.11697E-03
 0.40580006E+02 -0.15457E-03
 0.40630005E+02 -0.21792E-03
 0.40680004E+02 -0.19488E-03
 0.40730003E+02 -0.12699E-03
 0.40780003E+02  0.20454E-04
 0.40830006E+02  0.65624E-04
 0.40880005E+02 -0.94785E-04
 0.40930004E+02 -0.10426E-03
 0.40980003E+02  0.52723E-04
 0.41030003E+02  0.58066E-04
 0.41080006E+02 -0.67025E-05
 0.41130005E+02  0.43292E-04
 0.41180004E+02  0.11090E-03
 0.41230003E+02  0.20095E-03
 0.41280003E+02  0.29080E-03
 0.41330006E+02  0.19242E-03
 0.41380005E+02  0.14474E-04
 0.41430004E+02 -0.19323E-05
 0.41480003E+02  0.28024E-05
 0.41530003E+02 -0.13307E-03
 0.41580006E+02 -0.16074E-03
 0.41630005E+02 -0.10647E-03
 0.41680004E+02 -0.14923E-03
 0.41730003E+02 -0.85497E-04
 0.41780003E+02  0.86289E-04
 0.41830006E+02  0.13463E-03
 0.41880005E+02  0.47092E-04
 0.41930004E+02 -0.42517E-04
 0.41980003E+02 -0.77066E-04
 0.42030003E+02 -0.10864E-03
 0.42080006E+02 -0.16475E-03
 0.42130005E+02 -0.13596E-03
 0.42180004E+02 -0.31614E-04
 0.42230003E+02  0.52244E-04
 0.42280003E+02  0.16164E-03
 0.42330006E+02  0.23859E-03
 0.42380005E+02  0.18130E-03
 0.42430004E+02  0.73089E-04
 0.42480003E+02  0.25030E-04
 0.42530003E+02  0.74584E-04
 0.42580006E+02  0.16168E-03
 0.42630005E+02  0.12573E-03
 0.42680004E+02  0.22058E-04
 0.42730003E+02 -0.26164E-04
 0.42780003E+02 -0.47375E-04
 0.42830006E+02 -0.95192E-05
 0.42880005E+02 -0.18449E-05
 0.42930004E+02 -0.93364E-04
 0.42980003E+02 -0.18286E-03
 0.43030003E+02 -0.26991E-03
 0.43080006E+02 -0.30104E-03
 0.43130005E+02 -0.22631E-03
 0.43180004E+02 -0.11739E-03
 0.43230003E+02  0.24342E-04
 0.43280003E+02  0.17167E-03
 0.43330006E+02  0.21499E-03
 0.43380005E+02  0.10855E-03
 0.43430004E+02  0.17191E-04
 0.43480003E+02  0.15330E-04
 0.43530003E+02 -0.37927E-04
 0.43580006E+02 -0.56319E-04
 0.43630005E+02  0.27691E-04
 0.43680004E+02  0.47992E-04
 0.43730003E+02  0.47259E-04
 0.43780003E+02  0.16239E-03
 0.43830006E+02  0.19902E-03
 0.43880005E+02  0.87838E-04
 0.43930004E+02  0.69068E-04
 0.43980003E+02  0.12509E-03
 0.44030003E+02  0.11922E-03
 0.44080006E+02 -0.17788E-04
 0.44130005E+02 -0.15971E-03
 0.44180004E+02 -0.12828E-03
 0.44230003E+02 -0.14506E-03
 0.44280003E+02 -0.22218E-03
 0.44330006E+02 -0.18685E-03
 0.44380005E+02 -0.14356E-03
 0.44430004E+02 -0.11029E-03
 0.44480003E+02 -0.89102E-04
 0.44530003E+02 -0.51109E-04
 0.44580006E+02  0.72776E-04
 0.44630005E+02  0.17016E-03
 0.44680004E+02  0.19934E-03
 0.44730003E+02  0.29424E-03
 0.44780003E+02  0.33779E-03
 0.44830006E+02  0.14567E-03
 0.44880005E+02  0.22284E-05
 0.44930004E+02  0.78205E-04
 0.44980003E+02  0.61107E-04
 0.45030003E+02 -0.15819E-03
 0.45080006E+02 -0.25611E-03
 0.45130005E+02 -0.18555E-03
 0.45180004E+02 -0.16549E-03
 0.45230003E+02 -0.10605E-03
 0.45280003E+02  0.37635E-04
 0.45330006E+02  0.80040E-04
 0.45380005E+02  0.94960E-05
 0.45430004E+02 -0.77159E-04
 0.45480003E+02 -0.16810E-03
 0.45530003E+02 -0.20948E-03
 0.45580006E+02 -0.22329E-03
 0.45630005E+02 -0.17514E-03
 0.45680004E+02 -0.68282E-04
 0.45730003E+02 -0.89220E-04
 0.45780003E+02 -0.14684E-03
 0.45830006E+02 -0.10925E-03
 0.45880005E+02  0.25706E-04
 0.45930004E+02  0.20449E-03
 0.45980003E+02  0.27502E-03
 0.46030003E+02  0.29966E-03
 0.46080006E+02  0.40140E-03
 0.46130005E+02  0.49429E-03
 0.46180004E+02  0.49673E-03
 0.46230003E+02  0.36239E-03
 0.46280003E+02  0.13444E-03
 0.46330006E+02 -0.69714E-04
 0.46380005E+02 -0.23037E-03
 0.46430004E+02 -0.28236E-03
 0.46480003E+02 -0.23741E-03
 0.46530003E+02 -0.20742E-03
 0.46580006E+02 -0.18334E-03
 0.46630005E+02 -0.12889E-03
 0.46680004E+02 -0.63084E-04
 0.46730003E+02 -0.60043E-04
 0.46780003E+02 -0.17005E-03
 0.46830006E+02 -0.29693E-03
 0.46880005E+02 -0.27240E-03
 0.46930004E+02 -0.97513E-04
 0.46980003E+02  0.40130E-04
 0.47030003E+02  0.84007E-04
 0.47080006E+02  0.14345E-03
 0.47130005E+02  0.24961E-03
 0.47180004E+02  0.37398E-03
 0.47230003E+02  0.42834E-03
 0.47280003E+02  0.32052E-03
 0.47330006E+02  0.13803E-03
 0.47380005E+02 -0.28606E-04
 0.47430004E+02 -0.18491E-03
 0.47480003E+02 -0.25170E-03
 0.47530003E+02 -0.23154E-03
 0.47580006E+02 -0.27666E-03
 0.47630005E+02 -0.30654E-03
 0.47680004E+02 -0.18683E-03
 0.47730003E+02 -0.12159E-03
 0.47780003E+02 -0.16812E-03
 0.47830006E+02 -0.10430E-03
 0.47880005E+02  0.69411E-04
 0.47930004E+02  0.21275E-03
 0.47980003E+02  0.25621E-03
 0.48030003E+02  0.24295E-03
 0.48080006E+02  0.21076E-03
 0.48130005E+02  0.20402E-03
 0.48180004E+02  0.24085E-03
 0.48230003E+02  0.16412E-03
 0.48280003E+02  0.27757E-05
 0.48330006E+02 -0.11795E-03
 0.48380005E+02 -0.16821E-03
 0.48430004E+02 -0.17150E-03
 0.48480003E+02 -0.14476E-03
 0.48530003E+02 -0.70324E-04
 0.48580006E+02 -0.10776E-03
 0.48630005E+02 -0.15442E-03
 0.48680004E+02 -0.71378E-04
 0.48730003E+02  0.10201E-04
 0.48780003E+02  0.12079E-03
 0.48830006E+02  0.13431E-03
 0.48880005E+02 -0.84579E-06
 0.48930004E+02 -0.11601E-03
 0.48980003E+02 -0.19025E-03
 0.49030003E+02 -0.18755E-03
 0.49080006E+02 -0.16309E-03
 0.49130005E+02 -0.14005E-03
 0.49180004E+02 -0.38563E-04
 0.49230003E+02  0.10351E-03
 0.49280003E+02  0.26623E-03
 0.49330006E+02  0.44571E-03
 0.49380005E+02  0.52021E-03
 0.49430004E+02  0.35909E-03
 0.49480003E+02  0.10031E-03
 0.49530003E+02 -0.64633E-04
 0.49580006E+02 -0.15484E-03
 0.49630005E+02 -0.18233E-03
 0.49680004E+02 -0.17309E-03
 0.49730003E+02 -0.18529E-03
 0.49780003E+02 -0.17726E-03
 0.49830006E+02 -0.12104E-03
 0.49880005E+02 -0.44664E-04
 0.49930004E+02  0.30223E-04
 0.49980003E+02  0.95233E-04
 0.50030003E+02  0.18430E-03
 0.50080006E+02  0.24843E-03
 0.50130005E+02  0.12864E-03
 0.50180004E+02 -0.89509E-04
 0.50230003E+02 -0.10807E-03
 0.50280003E+02  0.92804E-05
 0.50330006E+02 -0.94444E-05
 0.50380005E+02 -0.10700E-03
 0.50430004E+02 -0.65866E-04
 0.50480003E+02  0.82109E-04
 0.50530003E+02  0.30264E-04
 0.50580006E+02 -0.17380E-03
 0.50630005E+02 -0.12934E-03
 0.50680004E+02  0.88959E-04
 0.50730003E+02  0.11317E-03
 0.50780003E+02 -0.10051E-03
 0.50830006E+02 -0.28365E-03
 0.50880005E+02 -0.28404E-03
 0.50930004E+02 -0.18024E-03
 0.50980003E+02 -0.81192E-04
 0.51030003E+02 -0.89254E-04
 0.51080006E+02 -0.14037E-03
 0.51130005E+02 -0.11921E-03
 0.51180004E+02 -0.88090E-05
 0.51230003E+02  0.93592E-04
 0.51280003E+02  0.13669E-03
 0.51330006E+02  0.21273E-03
 0.51380005E+02  0.23402E-03
 0.51430004E+02  0.18899E-03
 0.51480003E+02  0.23396E-03
 0.51530003E+02  0.32667E-03
 0.51580006E+02  0.32601E-03
 0.51630005E+02  0.23301E-03
 0.51680004E+02  0.15944E-03
 0.51730003E+02  0.11491E-03
 0.51780003E+02  0.45031E-04
 0.51830006E+02 -0.63936E-04
 0.51880005E+02 -0.15428E-03
 0.51930004E+02 -0.19621E-03
 0.51980003E+02 -0.26328E-03
 0.52030003E+02 -0.27990E-03
 0.52080006E+02 -0.14994E-03
 0.52130005E+02 -0.12921E-04
 0.52180004E+02  0.60597E-04
 0.52230003E+02  0.15368E-03
 0.52280003E+02  0.19511E-03
 0.52330006E+02  0.92312E-04
 0.52380005E+02 -0.22250E-04
 0.52430004E+02 -0.91049E-04
 0.52480003E+02 -0.16482E-03
 0.52530003E+02 -0.18675E-03
 0.52580006E+02 -0.24305E-03
 0.52630005E+02 -0.35433E-03
 0.52680004E+02 -0.30310E-03
 0.52730003E+02 -0.14296E-03
 0.52780003E+02 -0.74761E-04
 0.52830006E+02 -0.62360E-04
 0.52880005E+02 -0.39966E-04
 0.52930004E+02 -0.73856E-04
 0.52980003E+02 -0.93695E-04
 0.53030003E+02  0.13206E-06
 0.53080006E+02  0.73118E-04
 0.53130005E+02  0.12434E-03
 0.53180004E+02  0.25774E-03
 0.53230003E+02  0.41578E-03
 0.53280003E+02  0.53845E-03
 0.53330006E+02  0.56894E-03
 0.53380005E+02  0.48778E-03
 0.53430004E+02  0.29075E-03
 0.53480003E+02  0.10866E-04
 0.53530003E+02 -0.19555E-03
 0.53580006E+02 -0.35725E-03
 0.53630005E+02 -0.44801E-03
 0.53680004E+02 -0.28346E-03
 0.53730003E+02 -0.10187E-03
 0.53780003E+02 -0.12246E-03
 0.53830006E+02 -0.12554E-03
 0.53880005E+02 -0.30930E-04
 0.53930004E+02  0.30047E-04
 0.53980003E+02  0.55828E-04
 0.54030003E+02  0.11495E-03
 0.54080006E+02  0.16703E-03
 0.54130005E+02  0.16766E-03
 0.54180004E+02  0.17656E-03
 0.54230003E+02  0.15784E-03
 0.54280003E+02  0.97435E-04
 0.54330006E+02  0.61387E-04
 0.54380005E+02 -0.16556E-05
 0.54430004E+02 -0.69627E-04
 0.54480003E+02 -0.12311E-03
 0.54530003E+02 -0.17883E-03
 0.54580006E+02 -0.17069E-03
 0.54630005E+02 -0.12531E-03
 0.54680004E+02 -0.10452E-03
 0.54730003E+02 -0.13746E-03
 0.54780003E+02 -0.19629E-03
 0.54830006E+02 -0.20829E-03
 0.54880005E+02 -0.19742E-03
 0.54930004E+02 -0.19463E-03
 0.54980003E+02 -0.15233E-03
 0.55030003E+02 -0.15251E-04
 0.55080006E+02  0.20158E-03
 0.55130005E+02  0.39236E-03
 0.55180004E+02  0.52395E-03
 0.55230003E+02  0.58455E-03
 0.55280003E+02  0.54047E-03
 0.55330006E+02  0.43662E-03
 0.55380005E+02  0.26663E-03
 0.55430004E+02  0.55115E-04
 0.55480003E+02 -0.20628E-03
 0.55530003E+02 -0.50340E-03
 0.55580006E+02 -0.61749E-03
 0.55630005E+02 -0.51051E-03
 0.55680004E+02 -0.34755E-03
 0.55730003E+02 -0.26436E-03
 0.55780003E+02 -0.27678E-03
 0.55830006E+02 -0.22045E-03
 0.55880005E+02 -0.44971E-04
 0.55930004E+02  0.69323E-04
 0.55980003E+02  0.82197E-04
 0.56030003E+02  0.75175E-04
 0.56080006E+02 -0.24582E-04
 0.56130005E+02 -0.16640E-03
 0.56180004E+02 -0.18839E-03
 0.56230003E+02 -0.89639E-04
 0.56280003E+02  0.67834E-04
 0.56330006E+02  0.16453E-03
 0.56380005E+02  0.20508E-03
 0.56430004E+02  0.33386E-03
 0.56480003E+02  0.50161E-03
 0.56530003E+02  0.54698E-03
 0.56580006E+02  0.49323E-03
 0.56630005E+02  0.48185E-03
 0.56680004E+02  0.42504E-03
 0.56730003E+02  0.18300E-03
 0.56780003E+02 -0.15122E-03
 0.56830006E+02 -0.47638E-03
 0.56880005E+02 -0.73382E-03
 0.56930004E+02 -0.79949E-03
 0.56980003E+02 -0.62663E-03
 0.57030003E+02 -0.39647E-03
 0.57080006E+02 -0.26248E-03
 0.57130005E+02 -0.12367E-03
 0.57180004E+02  0.11244E-03
 0.57230003E+02  0.35604E-03
 0.57280003E+02  0.50569E-03
 0.57330006E+02  0.55519E-03
 0.57380005E+02  0.56744E-03
 0.57430004E+02  0.55938E-03
 0.57480003E+02  0.47652E-03
 0.57530003E+02  0.29435E-03
 0.57580006E+02  0.36591E-04
 0.57630005E+02 -0.20914E-03
 0.57680004E+02 -0.38142E-03
 0.57730003E+02 -0.45858E-03
 0.57780003E+02 -0.50973E-03
 0.57830006E+02 -0.64190E-03
 0.57880005E+02 -0.78224E-03
 0.57930004E+02 -0.71048E-03
 0.57980003E+02 -0.29728E-03
 0.58030003E+02  0.14510E-03
 0.58080006E+02  0.31489E-03
 0.58130005E+02  0.37102E-03
 0.58180004E+02  0.47894E-03
 0.58230003E+02  0.54216E-03
 0.58280003E+02  0.43807E-03
 0.58330006E+02  0.23197E-03
 0.58380005E+02  0.88507E-04
 0.58430004E+02  0.53341E-04
 0.58480003E+02  0.99375E-04
 0.58530003E+02  0.26027E-03
 0.58580006E+02  0.32397E-03
 0.58630005E+02  0.21188E-03
 0.58680004E+02  0.15402E-03
 0.58730003E+02  0.23136E-04
 0.58780003E+02 -0.28453E-03
 0.58830006E+02 -0.56294E-03
 0.58880005E+02 -0.76397E-03
 0.58930004E+02 -0.10047E-02
 0.58980003E+02 -0.12291E-02
 0.59030003E+02 -0.12292E-02
 0.59080006E+02 -0.95142E-03
 0.59130005E+02 -0.45522E-03
 0.59180004E+02  0.15620E-03
 0.59230003E+02  0.67477E-03
 0.59280003E+02  0.97770E-03
 0.59330006E+02  0.11383E-02
 0.59380005E+02  0.11705E-02
 0.59430004E+02  0.93303E-03
 0.59480003E+02  0.55079E-03
 0.59530003E+02  0.31378E-03
 0.59580006E+02  0.20210E-03
 0.59630005E+02  0.10551E-03
 0.59680004E+02  0.63977E-05
 0.59730003E+02  0.15793E-04
 0.59780003E+02  0.20349E-03
 0.59830006E+02  0.37653E-03
 0.59880005E+02  0.46850E-03
 0.59930004E+02  0.47685E-03
 0.59980003E+02  0.35028E-03
 0.60030003E+02  0.23830E-03
 0.60080006E+02  0.91508E-04
 0.60130005E+02 -0.28211E-03
 0.60180004E+02 -0.82768E-03
 0.60230003E+02 -0.13025E-02
 0.60280003E+02 -0.14188E-02
 0.60330006E+02 -0.12247E-02
 0.60380005E+02 -0.87440E-03
 0.60430004E+02 -0.32885E-03
 0.60480003E+02  0.31666E-03
 0.60530003E+02  0.74927E-03
 0.60580006E+02  0.79593E-03
 0.60630005E+02  0.63327E-03
 0.60680004E+02  0.43851E-03
 0.60730003E+02  0.30217E-03
 0.60780003E+02  0.16182E-03
 0.60830006E+02 -0.20932E-03
 0.60880005E+02 -0.76425E-03
 0.60930004E+02 -0.12111E-02
 0.60980003E+02 -0.13131E-02
 0.61030003E+02 -0.10405E-02
 0.61080006E+02 -0.51625E-03
 0.61130005E+02  0.93214E-05
 0.61180004E+02  0.36788E-03
 0.61230003E+02  0.74204E-03
 0.61280003E+02  0.11007E-02
 0.61330006E+02  0.12029E-02
 0.61380005E+02  0.11070E-02
 0.61430004E+02  0.90387E-03
 0.61480003E+02  0.64806E-03
 0.61530003E+02  0.43944E-03
 0.61580006E+02  0.31799E-03
 0.61630005E+02  0.26661E-03
 0.61680004E+02  0.28271E-03
 0.61730003E+02  0.34298E-03
 0.61780003E+02  0.33611E-03
 0.61830006E+02  0.31069E-03
 0.61880005E+02  0.31530E-03
 0.61930004E+02  0.25130E-03
 0.61980003E+02  0.10749E-03
 0.62030003E+02 -0.30362E-03
 0.62080006E+02 -0.11332E-02
 0.62130005E+02 -0.20985E-02
 0.62180004E+02 -0.26767E-02
 0.62230003E+02 -0.26675E-02
 0.62280003E+02 -0.24510E-02
 0.62330006E+02 -0.19998E-02
 0.62380005E+02 -0.10491E-02
 0.62430004E+02 -0.39534E-04
 0.62480003E+02  0.72034E-03
 0.62530003E+02  0.13429E-02
 0.62580006E+02  0.18256E-02
 0.62630005E+02  0.22733E-02
 0.62680004E+02  0.27644E-02
 0.62730003E+02  0.30597E-02
 0.62780003E+02  0.28611E-02
 0.62830006E+02  0.20556E-02
 0.62880005E+02  0.86138E-03
 0.62930004E+02 -0.14534E-03
 0.62980003E+02 -0.62719E-03
 0.63030003E+02 -0.10455E-02
 0.63080006E+02 -0.16887E-02
 0.63130005E+02 -0.21378E-02
 0.63180004E+02 -0.23128E-02
 0.63230003E+02 -0.24511E-02
 0.63280003E+02 -0.24667E-02
 0.63330006E+02 -0.20352E-02
 0.63380005E+02 -0.11044E-02
 0.63430004E+02  0.13274E-03
 0.63480003E+02  0.15546E-02
 0.63530003E+02  0.26035E-02
 0.63580006E+02  0.28630E-02
 0.63630005E+02  0.27403E-02
 0.63680004E+02  0.25606E-02
 0.63730003E+02  0.21893E-02
 0.63780003E+02  0.14064E-02
 0.63830006E+02  0.31776E-03
 0.63880005E+02 -0.73528E-03
 0.63930004E+02 -0.16313E-02
 0.63980003E+02 -0.22332E-02
 0.64030006E+02 -0.25202E-02
 0.64080002E+02 -0.27894E-02
 0.64130005E+02 -0.29263E-02
 0.64180008E+02 -0.25216E-02
 0.64230003E+02 -0.17298E-02
 0.64280006E+02 -0.80219E-03
 0.64330002E+02  0.46105E-03
 0.64380005E+02  0.18142E-02
 0.64430008E+02  0.26482E-02
 0.64480003E+02  0.28753E-02
 0.64530006E+02  0.26935E-02
 0.64580002E+02  0.21768E-02
 0.64630005E+02  0.14017E-02
 0.64680008E+02  0.64833E-03
 0.64730003E+02  0.50412E-04
 0.64780006E+02 -0.39177E-03
 0.64830002E+02 -0.60857E-03
 0.64880005E+02 -0.59360E-03
 0.64930008E+02 -0.38306E-03
 0.64980003E+02 -0.13203E-03
 0.65030006E+02 -0.19169E-03
 0.65080002E+02 -0.95250E-03
 0.65130005E+02 -0.19276E-02
 0.65180008E+02 -0.22757E-02
 0.65230003E+02 -0.21517E-02
 0.65280006E+02 -0.18655E-02
 0.65330002E+02 -0.14441E-02
 0.65380005E+02 -0.79614E-03
 0.65430008E+02  0.74842E-04
 0.65480003E+02  0.71320E-03
 0.65530006E+02  0.10963E-02
 0.65580002E+02  0.14960E-02
 0.65630005E+02  0.17574E-02
 0.65680008E+02  0.18694E-02
 0.65730003E+02  0.19245E-02
 0.65780006E+02  0.17607E-02
 0.65830002E+02  0.13599E-02
 0.65880005E+02  0.83986E-03
 0.65930008E+02  0.27890E-03
 0.65980003E+02 -0.14465E-03
 0.66030006E+02 -0.24251E-03
 0.66080002E+02 -0.20576E-03
 0.66130005E+02 -0.45991E-03
 0.66180008E+02 -0.85922E-03
 0.66230003E+02 -0.97545E-03
 0.66280006E+02 -0.81453E-03
 0.66330002E+02 -0.58720E-03
 0.66380005E+02 -0.44213E-03
 0.66430008E+02 -0.45113E-03
 0.66480003E+02 -0.43911E-03
 0.66530006E+02 -0.16561E-03
 0.66580002E+02  0.20334E-03
 0.66630005E+02  0.41707E-03
 0.66680008E+02  0.45608E-03
 0.66730003E+02  0.37309E-03
 0.66780006E+02  0.16542E-03
 0.66830002E+02 -0.12538E-03
 0.66880005E+02 -0.33742E-03
 0.66930008E+02 -0.47999E-03
 0.66980003E+02 -0.40561E-03
 0.67030006E+02  0.14991E-03
 0.67080002E+02  0.82592E-03
 0.67130005E+02  0.10539E-02
 0.67180008E+02  0.94400E-03
 0.67230003E+02  0.83019E-03
 0.67280006E+02  0.67396E-03
 0.67330002E+02  0.48024E-03
 0.67380005E+02  0.23786E-03
 0.67430008E+02 -0.16875E-03
 0.67480003E+02 -0.77958E-03
 0.67530006E+02 -0.13933E-02
 0.67580002E+02 -0.16602E-02
 0.67630005E+02 -0.16440E-02
 0.67680008E+02 -0.14829E-02
 0.67730003E+02 -0.10837E-02
 0.67780006E+02 -0.42729E-03
 0.67830002E+02  0.38202E-03
 0.67880005E+02  0.10784E-02
 0.67930008E+02  0.12959E-02
 0.67980003E+02  0.10439E-02
 0.68030006E+02  0.81247E-03
 0.68080002E+02  0.69280E-03
 0.68130005E+02  0.20547E-03
 0.68180008E+02 -0.62306E-03
 0.68230003E+02 -0.11154E-02
 0.68280006E+02 -0.10545E-02
 0.68330002E+02 -0.80434E-03
 0.68380005E+02 -0.57400E-03
 0.68430008E+02 -0.37805E-03
 0.68480003E+02 -0.85439E-04
 0.68530006E+02  0.24128E-03
 0.68580002E+02  0.29850E-03
 0.68630005E+02  0.24323E-03
 0.68680008E+02  0.28993E-03
 0.68730003E+02  0.40619E-03
 0.68780006E+02  0.58403E-03
 0.68830002E+02  0.65086E-03
 0.68880005E+02  0.40162E-03
 0.68930008E+02  0.29955E-04
 0.68980003E+02 -0.69031E-04
 0.69030006E+02 -0.52191E-04
 0.69080002E+02 -0.33088E-03
 0.69130005E+02 -0.10451E-02
 0.69180008E+02 -0.19133E-02
 0.69230003E+02 -0.23378E-02
 0.69280006E+02 -0.22469E-02
 0.69330002E+02 -0.17790E-02
 0.69380005E+02 -0.76522E-03
 0.69430008E+02  0.47835E-03
 0.69480003E+02  0.14561E-02
 0.69530006E+02  0.23579E-02
 0.69580002E+02  0.34091E-02
 0.69630005E+02  0.43604E-02
 0.69680008E+02  0.47746E-02
 0.69730003E+02  0.43085E-02
 0.69780006E+02  0.29158E-02
 0.69830002E+02  0.91020E-03
 0.69880005E+02 -0.11249E-02
 0.69930008E+02 -0.26229E-02
 0.69980003E+02 -0.34598E-02
 0.70030006E+02 -0.39787E-02
 0.70080002E+02 -0.42352E-02
 0.70130005E+02 -0.39038E-02
 0.70180008E+02 -0.28045E-02
 0.70230003E+02 -0.10554E-02
 0.70280006E+02  0.79744E-03
 0.70330002E+02  0.21769E-02
 0.70380005E+02  0.30449E-02
 0.70430008E+02  0.35506E-02
 0.70480003E+02  0.36370E-02
 0.70530006E+02  0.32893E-02
 0.70580002E+02  0.24963E-02
 0.70630005E+02  0.13784E-02
 0.70680008E+02  0.45001E-03
 0.70730003E+02 -0.28086E-04
 0.70780006E+02 -0.35672E-03
 0.70830002E+02 -0.92816E-03
 0.70880005E+02 -0.16847E-02
 0.70930008E+02 -0.21601E-02
 0.70980003E+02 -0.24257E-02
 0.71030006E+02 -0.28340E-02
 0.71080002E+02 -0.31687E-02
 0.71130005E+02 -0.31191E-02
 0.71180008E+02 -0.25894E-02
 0.71230003E+02 -0.16612E-02
 0.71280006E+02 -0.73876E-03
 0.71330002E+02 -0.16375E-03
 0.71380005E+02  0.21514E-03
 0.71430008E+02  0.67223E-03
 0.71480003E+02  0.12598E-02
 0.71530006E+02  0.18681E-02
 0.71580002E+02  0.22913E-02
 0.71630005E+02  0.24899E-02
 0.71680008E+02  0.26742E-02
 0.71730003E+02  0.29626E-02
 0.71780006E+02  0.28672E-02
 0.71830002E+02  0.18123E-02
 0.71880005E+02  0.14315E-03
 0.71930008E+02 -0.13962E-02
 0.71980003E+02 -0.24926E-02
 0.72030006E+02 -0.32638E-02
 0.72080002E+02 -0.37420E-02
 0.72130005E+02 -0.37349E-02
 0.72180008E+02 -0.31406E-02
 0.72230003E+02 -0.19987E-02
 0.72280006E+02 -0.67279E-03
 0.72330002E+02  0.63377E-03
 0.72380005E+02  0.20719E-02
 0.72430008E+02  0.33640E-02
 0.72480003E+02  0.39633E-02
 0.72530006E+02  0.36692E-02
 0.72580002E+02  0.28311E-02
 0.72630005E+02  0.19022E-02
 0.72680008E+02  0.93730E-03
 0.72730003E+02 -0.93544E-04
 0.72780006E+02 -0.11619E-02
 0.72830002E+02 -0.22523E-02
 0.72880005E+02 -0.32433E-02
 0.72930008E+02 -0.38564E-02
 0.72980003E+02 -0.37629E-02
 0.73030006E+02 -0.29665E-02
 0.73080002E+02 -0.18506E-02
 0.73130005E+02 -0.75679E-03
 0.73180008E+02  0.11626E-03
 0.73230003E+02  0.67078E-03
 0.73280006E+02  0.11475E-02
 0.73330002E+02  0.18365E-02
 0.73380005E+02  0.25209E-02
 0.73430008E+02  0.28629E-02
 0.73480003E+02  0.28361E-02
 0.73530006E+02  0.25652E-02
 0.73580002E+02  0.21917E-02
 0.73630005E+02  0.17896E-02
 0.73680008E+02  0.12377E-02
 0.73730003E+02  0.39868E-03
 0.73780006E+02 -0.48403E-03
 0.73830002E+02 -0.10745E-02
 0.73880005E+02 -0.13230E-02
 0.73930008E+02 -0.13612E-02
 0.73980003E+02 -0.12429E-02
 0.74030006E+02 -0.83930E-03
 0.74080002E+02 -0.24514E-03
 0.74130005E+02  0.21887E-03
 0.74180008E+02  0.27134E-03
 0.74230003E+02 -0.75294E-04
 0.74280006E+02 -0.41680E-03
 0.74330002E+02 -0.59558E-03
 0.74380005E+02 -0.79602E-03
 0.74430008E+02 -0.95628E-03
 0.74480003E+02 -0.75250E-03
 0.74530006E+02 -0.13917E-03
 0.74580002E+02  0.59322E-03
 0.74630005E+02  0.11068E-02
 0.74680008E+02  0.11816E-02
 0.74730003E+02  0.99419E-03
 0.74780006E+02  0.84719E-03
 0.74830002E+02  0.80586E-03
 0.74880005E+02  0.72438E-03
 0.74930008E+02  0.33284E-03
 0.74980003E+02 -0.42662E-03
 0.75030006E+02 -0.12238E-02
 0.75080002E+02 -0.16351E-02
 0.75130005E+02 -0.15575E-02
 0.75180008E+02 -0.10922E-02
 0.75230003E+02 -0.37969E-03
 0.75280006E+02  0.20088E-03
 0.75330002E+02  0.39358E-03
 0.75380005E+02  0.29652E-03
 0.75430008E+02  0.65179E-04
 0.75480003E+02 -0.98328E-04
 0.75530006E+02 -0.98906E-04
 0.75580002E+02 -0.10159E-03
 0.75630005E+02 -0.19920E-03
 0.75680008E+02 -0.27886E-03
 0.75730003E+02 -0.34412E-03
 0.75780006E+02 -0.48168E-03
 0.75830002E+02 -0.64330E-03
 0.75880005E+02 -0.72604E-03
 0.75930008E+02 -0.71242E-03
 0.75980003E+02 -0.68210E-03
 0.76030006E+02 -0.57420E-03
 0.76080002E+02 -0.30793E-03
 0.76130005E+02 -0.60336E-04
 0.76180008E+02  0.88146E-04
 0.76230003E+02  0.33311E-03
 0.76280006E+02  0.64076E-03
 0.76330002E+02  0.70385E-03
 0.76380005E+02  0.57065E-03
 0.76430008E+02  0.63756E-03
 0.76480003E+02  0.97348E-03
 0.76530006E+02  0.13276E-02
 0.76580002E+02  0.15111E-02
 0.76630005E+02  0.14069E-02
 0.76680008E+02  0.10521E-02
 0.76730003E+02  0.53606E-03
 0.76780006E+02 -0.10196E-03
 0.76830002E+02 -0.80070E-03
 0.76880005E+02 -0.14324E-02
 0.76930008E+02 -0.17854E-02
 0.76980003E+02 -0.18031E-02
 0.77030006E+02 -0.15509E-02
 0.77080002E+02 -0.11505E-02
 0.77130005E+02 -0.84213E-03
 0.77180008E+02 -0.70539E-03
 0.77230003E+02 -0.43760E-03
 0.77280006E+02  0.29504E-03
 0.77330002E+02  0.12399E-02
 0.77380005E+02  0.18701E-02
 0.77430008E+02  0.19650E-02
 0.77480003E+02  0.16220E-02
 0.77530006E+02  0.11738E-02
 0.77580002E+02  0.82393E-03
 0.77630005E+02  0.55480E-03
 0.77680008E+02  0.27142E-03
 0.77730003E+02 -0.17970E-03
 0.77780006E+02 -0.70960E-03
 0.77830002E+02 -0.97635E-03
 0.77880005E+02 -0.78364E-03
 0.77930008E+02 -0.20017E-03
 0.77980003E+02  0.47097E-03
 0.78030006E+02  0.75394E-03
 0.78080002E+02  0.49857E-03
 0.78130005E+02  0.58220E-04
 0.78180008E+02 -0.30838E-03
 0.78230003E+02 -0.54126E-03
 0.78280006E+02 -0.55730E-03
 0.78330002E+02 -0.44157E-03
 0.78380005E+02 -0.36244E-03
 0.78430008E+02 -0.35850E-03
 0.78480003E+02 -0.40600E-03
 0.78530006E+02 -0.45626E-03
 0.78580002E+02 -0.48428E-03
 0.78630005E+02 -0.51387E-03
 0.78680008E+02 -0.50731E-03
 0.78730003E+02 -0.29084E-03
 0.78780006E+02  0.27068E-03
 0.78830002E+02  0.10328E-02
 0.78880005E+02  0.16393E-02
 0.78930008E+02  0.18701E-02
 0.78980003E+02  0.18530E-02
 0.79030006E+02  0.17158E-02
 0.79080002E+02  0.14018E-02
 0.79130005E+02  0.94925E-03
 0.79180008E+02  0.43504E-03
 0.79230003E+02 -0.28314E-03
 0.79280006E+02 -0.13644E-02
 0.79330002E+02 -0.24828E-02
 0.79380005E+02 -0.31355E-02
 0.79430008E+02 -0.31604E-02
 0.79480003E+02 -0.25227E-02
 0.79530006E+02 -0.12962E-02
 0.79580002E+02  0.17615E-03
 0.79630005E+02  0.14712E-02
 0.79680008E+02  0.22794E-02
 0.79730003E+02  0.24685E-02
 0.79780006E+02  0.21410E-02
 0.79830002E+02  0.15175E-02
 0.79880005E+02  0.86695E-03
 0.79930008E+02  0.36535E-03
 0.79980003E+02 -0.13675E-03
 0.80030006E+02 -0.82578E-03
 0.80080002E+02 -0.16608E-02
 0.80130005E+02 -0.24619E-02
 0.80180008E+02 -0.29405E-02
 0.80230003E+02 -0.28548E-02
 0.80280006E+02 -0.23245E-02
 0.80330002E+02 -0.16101E-02
 0.80380005E+02 -0.82483E-03
 0.80430008E+02 -0.13020E-03
 0.80480003E+02  0.42979E-03
 0.80530006E+02  0.96025E-03
 0.80580002E+02  0.14350E-02
 0.80630005E+02  0.17342E-02
 0.80680008E+02  0.17734E-02
 0.80730003E+02  0.16187E-02
 0.80780006E+02  0.14347E-02
 0.80830002E+02  0.13043E-02
 0.80880005E+02  0.11306E-02
 0.80930008E+02  0.84292E-03
 0.80980003E+02  0.56922E-03
 0.81030006E+02  0.48475E-03
 0.81080002E+02  0.56270E-03
 0.81130005E+02  0.51698E-03
 0.81180008E+02  0.18023E-03
 0.81230003E+02 -0.34852E-03
 0.81280006E+02 -0.94870E-03
 0.81330002E+02 -0.15359E-02
 0.81380005E+02 -0.19164E-02
 0.81430008E+02 -0.19295E-02
 0.81480003E+02 -0.16170E-02
 0.81530006E+02 -0.99443E-03
 0.81580002E+02 -0.14904E-03
 0.81630005E+02  0.62062E-03
 0.81680008E+02  0.11657E-02
 0.81730003E+02  0.15735E-02
 0.81780006E+02  0.18446E-02
 0.81830002E+02  0.18197E-02
 0.81880005E+02  0.15190E-02
 0.81930008E+02  0.11984E-02
 0.81980003E+02  0.98286E-03
 0.82030006E+02  0.81044E-03
 0.82080002E+02  0.57854E-03
 0.82130005E+02  0.29446E-03
 0.82180008E+02  0.36632E-04
 0.82230003E+02 -0.29800E-03
 0.82280006E+02 -0.80995E-03
 0.82330002E+02 -0.14139E-02
 0.82380005E+02 -0.19200E-02
 0.82430008E+02 -0.21345E-02
 0.82480003E+02 -0.20868E-02
 0.82530006E+02 -0.18931E-02
 0.82580002E+02 -0.15455E-02
 0.82630005E+02 -0.11314E-02
 0.82680008E+02 -0.81067E-03
 0.82730003E+02 -0.61916E-03
 0.82780006E+02 -0.44003E-03
 0.82830002E+02 -0.90726E-04
 0.82880005E+02  0.38129E-03
 0.82930008E+02  0.76103E-03
 0.82980003E+02  0.98049E-03
 0.83030006E+02  0.11149E-02
 0.83080002E+02  0.12623E-02
 0.83130005E+02  0.14497E-02
 0.83180008E+02  0.16301E-02
 0.83230003E+02  0.16751E-02
 0.83280006E+02  0.13909E-02
 0.83330002E+02  0.75831E-03
 0.83380005E+02  0.61091E-04
 0.83430008E+02 -0.39976E-03
 0.83480003E+02 -0.55756E-03
 0.83530006E+02 -0.55007E-03
 0.83580002E+02 -0.53270E-03
 0.83630005E+02 -0.53962E-03
 0.83680008E+02 -0.54703E-03
 0.83730003E+02 -0.54330E-03
 0.83780006E+02 -0.56663E-03
 0.83830002E+02 -0.66833E-03
 0.83880005E+02 -0.84566E-03
 0.83930008E+02 -0.99366E-03
 0.83980003E+02 -0.94630E-03
 0.84030006E+02 -0.66709E-03
 0.84080002E+02 -0.23230E-03
 0.84130005E+02  0.31240E-03
 0.84180008E+02  0.89541E-03
 0.84230003E+02  0.13533E-02
 0.84280006E+02  0.15298E-02
 0.84330002E+02  0.13954E-02
 0.84380005E+02  0.10351E-02
 0.84430008E+02  0.63450E-03
 0.84480003E+02  0.44739E-03
 0.84530006E+02  0.50266E-03
 0.84580002E+02  0.55035E-03
 0.84630005E+02  0.37639E-03
 0.84680008E+02 -0.56071E-04
 0.84730003E+02 -0.57507E-03
 0.84780006E+02 -0.97452E-03
 0.84830002E+02 -0.12495E-02
 0.84880005E+02 -0.14239E-02
 0.84930008E+02 -0.14369E-02
 0.84980003E+02 -0.12363E-02
 0.85030006E+02 -0.73577E-03
 0.85080002E+02  0.14009E-04
 0.85130005E+02  0.66584E-03
 0.85180008E+02  0.95929E-03
 0.85230003E+02  0.97644E-03
 0.85280006E+02  0.85735E-03
 0.85330002E+02  0.64834E-03
 0.85380005E+02  0.41881E-03
 0.85430008E+02  0.28838E-03
 0.85480003E+02  0.31517E-03
 0.85530006E+02  0.39615E-03
 0.85580002E+02  0.42145E-03
 0.85630005E+02  0.35647E-03
 0.85680008E+02  0.95576E-04
 0.85730003E+02 -0.41272E-03
 0.85780006E+02 -0.97589E-03
 0.85830002E+02 -0.13023E-02
 0.85880005E+02 -0.12779E-02
 0.85930008E+02 -0.10712E-02
 0.85980003E+02 -0.90274E-03
 0.86030006E+02 -0.77414E-03
 0.86080002E+02 -0.54802E-03
 0.86130005E+02 -0.21003E-03
 0.86180008E+02  0.13892E-03
 0.86230003E+02  0.43359E-03
 0.86280006E+02  0.66148E-03
 0.86330002E+02  0.81997E-03
 0.86380005E+02  0.84312E-03
 0.86430008E+02  0.71282E-03
 0.86480003E+02  0.51117E-03
 0.86530006E+02  0.28540E-03
 0.86580002E+02  0.23954E-04
 0.86630005E+02 -0.28653E-03
 0.86680008E+02 -0.56703E-03
 0.86730003E+02 -0.72105E-03
 0.86780006E+02 -0.70703E-03
 0.86830002E+02 -0.50568E-03
 0.86880005E+02 -0.16113E-03
 0.86930008E+02  0.22095E-03
 0.86980003E+02  0.51932E-03
 0.87030006E+02  0.68740E-03
 0.87080002E+02  0.79210E-03
 0.87130005E+02  0.93128E-03
 0.87180008E+02  0.10900E-02
 0.87230003E+02  0.11245E-02
 0.87280006E+02  0.93550E-03
 0.87330002E+02  0.50103E-03
 0.87380005E+02 -0.11823E-03
 0.87430008E+02 -0.74262E-03
 0.87480003E+02 -0.12298E-02
 0.87530006E+02 -0.15616E-02
 0.87580002E+02 -0.16819E-02
 0.87630005E+02 -0.13982E-02
 0.87680008E+02 -0.62929E-03
 0.87730003E+02  0.37133E-03
 0.87780006E+02  0.12258E-02
 0.87830002E+02  0.17418E-02
 0.87880005E+02  0.18705E-02
 0.87930008E+02  0.15945E-02
 0.87980003E+02  0.98282E-03
 0.88030006E+02  0.15582E-03
 0.88080002E+02 -0.73188E-03
 0.88130005E+02 -0.15148E-02
 0.88180008E+02 -0.20499E-02
 0.88230003E+02 -0.21608E-02
 0.88280006E+02 -0.17567E-02
 0.88330002E+02 -0.99364E-03
 0.88380005E+02 -0.19538E-03
 0.88430008E+02  0.37767E-03
 0.88480003E+02  0.67528E-03
 0.88530006E+02  0.77356E-03
 0.88580002E+02  0.74939E-03
 0.88630005E+02  0.66887E-03
 0.88680008E+02  0.57777E-03
 0.88730003E+02  0.51928E-03
 0.88780006E+02  0.53161E-03
 0.88830002E+02  0.57054E-03
 0.88880005E+02  0.55865E-03
 0.88930008E+02  0.48148E-03
 0.88980003E+02  0.33039E-03
 0.89030006E+02  0.70978E-04
 0.89080002E+02 -0.28806E-03
 0.89130005E+02 -0.66344E-03
 0.89180008E+02 -0.89351E-03
 0.89230003E+02 -0.82891E-03
 0.89280006E+02 -0.44843E-03
 0.89330002E+02  0.11422E-03
 0.89380005E+02  0.67504E-03
 0.89430008E+02  0.11885E-02
 0.89480003E+02  0.16044E-02
 0.89530006E+02  0.17078E-02
 0.89580002E+02  0.13822E-02
 0.89630005E+02  0.74256E-03
 0.89680008E+02 -0.10221E-04
 0.89730003E+02 -0.71416E-03
 0.89780006E+02 -0.13354E-02
 0.89830002E+02 -0.18413E-02
 0.89880005E+02 -0.20892E-02
 0.89930008E+02 -0.20617E-02
 0.89980003E+02 -0.19010E-02
 0.90030006E+02 -0.16790E-02
 0.90080002E+02 -0.13195E-02
 0.90130005E+02 -0.72797E-03
 0.90180008E+02  0.37739E-04
 0.90230003E+02  0.83922E-03
 0.90280006E+02  0.15893E-02
 0.90330002E+02  0.21979E-02
 0.90380005E+02  0.25300E-02
 0.90430008E+02  0.24958E-02
 0.90480003E+02  0.21379E-02
 0.90530006E+02  0.15812E-02
 0.90580002E+02  0.90081E-03
 0.90630005E+02  0.84830E-04
 0.90680008E+02 -0.80168E-03
 0.90730003E+02 -0.15247E-02
 0.90780006E+02 -0.18736E-02
 0.90830002E+02 -0.18259E-02
 0.90880005E+02 -0.15477E-02
 0.90930008E+02 -0.12248E-02
 0.90980003E+02 -0.88207E-03
 0.91030006E+02 -0.50042E-03
 0.91080002E+02 -0.16324E-03
 0.91130005E+02  0.80504E-04
 0.91180008E+02  0.29664E-03
 0.91230003E+02  0.47661E-03
 0.91280006E+02  0.53239E-03
 0.91330002E+02  0.48716E-03
 0.91380005E+02  0.45791E-03
 0.91430008E+02  0.50371E-03
 0.91480003E+02  0.57300E-03
 0.91530006E+02  0.58986E-03
 0.91580002E+02  0.55326E-03
 0.91630005E+02  0.50481E-03
 0.91680008E+02  0.40417E-03
 0.91730003E+02  0.19498E-03
 0.91780006E+02 -0.68033E-04
 0.91830002E+02 -0.31940E-03
 0.91880005E+02 -0.51679E-03
 0.91930008E+02 -0.58853E-03
 0.91980003E+02 -0.51095E-03
 0.92030006E+02 -0.32790E-03
 0.92080002E+02 -0.73756E-04
 0.92130005E+02  0.19265E-03
 0.92180008E+02  0.36144E-03
 0.92230003E+02  0.39178E-03
 0.92280006E+02  0.32851E-03
 0.92330002E+02  0.21100E-03
 0.92380005E+02  0.37703E-04
 0.92430008E+02 -0.17886E-03
 0.92480003E+02 -0.37641E-03
 0.92530006E+02 -0.54661E-03
 0.92580002E+02 -0.75088E-03
 0.92630005E+02 -0.98892E-03
 0.92680008E+02 -0.11370E-02
 0.92730003E+02 -0.11295E-02
 0.92780006E+02 -0.10530E-02
 0.92830002E+02 -0.93607E-03
 0.92880005E+02 -0.67967E-03
 0.92930008E+02 -0.21127E-03
 0.92980003E+02  0.35289E-03
 0.93030006E+02  0.82312E-03
 0.93080002E+02  0.11734E-02
 0.93130005E+02  0.14570E-02
 0.93180008E+02  0.16642E-02
 0.93230003E+02  0.17608E-02
 0.93280006E+02  0.17103E-02
 0.93330002E+02  0.14881E-02
 0.93380005E+02  0.11439E-02
 0.93430008E+02  0.74462E-03
 0.93480003E+02  0.31395E-03
 0.93530006E+02 -0.97238E-04
 0.93580002E+02 -0.41656E-03
 0.93630005E+02 -0.66012E-03
 0.93680008E+02 -0.88511E-03
 0.93730003E+02 -0.10380E-02
 0.93780006E+02 -0.10497E-02
 0.93830002E+02 -0.95912E-03
 0.93880005E+02 -0.82878E-03
 0.93930008E+02 -0.65974E-03
 0.93980003E+02 -0.41088E-03
 0.94030006E+02 -0.78758E-04
 0.94080002E+02  0.25978E-03
 0.94130005E+02  0.50069E-03
 0.94180008E+02  0.58954E-03
 0.94230003E+02  0.52601E-03
 0.94280006E+02  0.32443E-03
 0.94330002E+02 -0.24233E-05
 0.94380005E+02 -0.38956E-03
 0.94430008E+02 -0.71672E-03
 0.94480003E+02 -0.90960E-03
 0.94530006E+02 -0.98185E-03
 0.94580002E+02 -0.97996E-03
 0.94630005E+02 -0.94868E-03
 0.94680008E+02 -0.89974E-03
 0.94730003E+02 -0.72894E-03
 0.94780006E+02 -0.31647E-03
 0.94830002E+02  0.29788E-03
 0.94880005E+02  0.94206E-03
 0.94930008E+02  0.14277E-02
 0.94980003E+02  0.16520E-02
 0.95030006E+02  0.16474E-02
 0.95080002E+02  0.15020E-02
 0.95130005E+02  0.12395E-02
 0.95180008E+02  0.83876E-03
 0.95230003E+02  0.33373E-03
 0.95280006E+02 -0.14155E-03
 0.95330002E+02 -0.47893E-03
 0.95380005E+02 -0.72674E-03
 0.95430008E+02 -0.96446E-03
 0.95480003E+02 -0.11764E-02
 0.95530006E+02 -0.12910E-02
 0.95580002E+02 -0.12818E-02
 0.95630005E+02 -0.12125E-02
 0.95680008E+02 -0.11515E-02
 0.95730003E+02 -0.10534E-02
 0.95780006E+02 -0.78660E-03
 0.95830002E+02 -0.31983E-03
 0.95880005E+02  0.23996E-03
 0.95930008E+02  0.75808E-03
 0.95980003E+02  0.11709E-02
 0.96030006E+02  0.14774E-02
 0.96080002E+02  0.16130E-02
 0.96130005E+02  0.15482E-02
 0.96180008E+02  0.14102E-02
 0.96230003E+02  0.13021E-02
 0.96280006E+02  0.11816E-02
 0.96330002E+02  0.97379E-03
 0.96380005E+02  0.63773E-03
 0.96430008E+02  0.19519E-03
 0.96480003E+02 -0.25931E-03
 0.96530006E+02 -0.64850E-03
 0.96580002E+02 -0.91656E-03
 0.96630005E+02 -0.10170E-02
 0.96680008E+02 -0.98803E-03
 0.96730003E+02 -0.92217E-03
 0.96780006E+02 -0.87187E-03
 0.96830002E+02 -0.84986E-03
 0.96880005E+02 -0.80840E-03
 0.96930008E+02 -0.70868E-03
 0.96980003E+02 -0.61407E-03
 0.97030006E+02 -0.54170E-03
 0.97080002E+02 -0.43869E-03
 0.97130005E+02 -0.28565E-03
 0.97180008E+02 -0.82094E-04
 0.97230003E+02  0.14727E-03
 0.97280006E+02  0.36393E-03
 0.97330002E+02  0.53492E-03
 0.97380005E+02  0.65066E-03
 0.97430008E+02  0.72826E-03
 0.97480003E+02  0.79235E-03
 0.97530006E+02  0.87814E-03
 0.97580002E+02  0.94912E-03
 0.97630005E+02  0.95139E-03
 0.97680008E+02  0.92756E-03
 0.97730003E+02  0.87320E-03
 0.97780006E+02  0.73173E-03
 0.97830002E+02  0.51663E-03
 0.97880005E+02  0.22014E-03
 0.97930008E+02 -0.17861E-03
 0.97980003E+02 -0.62329E-03
 0.98030006E+02 -0.10374E-02
 0.98080002E+02 -0.13524E-02
 0.98130005E+02 -0.15094E-02
 0.98180008E+02 -0.14918E-02
 0.98230003E+02 -0.13604E-02
 0.98280006E+02 -0.11858E-02
 0.98330002E+02 -0.94970E-03
 0.98380005E+02 -0.63403E-03
 0.98430008E+02 -0.27794E-03
 0.98480003E+02  0.86107E-04
 0.98530006E+02  0.43784E-03
 0.98580002E+02  0.70519E-03
 0.98630005E+02  0.80031E-03
 0.98680008E+02  0.72803E-03
 0.98730003E+02  0.53444E-03
 0.98780006E+02  0.28624E-03
 0.98830002E+02  0.77702E-04
 0.98880005E+02 -0.31981E-04
 0.98930008E+02 -0.52169E-05
 0.98980003E+02  0.13721E-03
 0.99030006E+02  0.30655E-03
 0.99080002E+02  0.43142E-03
 0.99130005E+02  0.47814E-03
 0.99180008E+02  0.43990E-03
 0.99230003E+02  0.36124E-03
 0.99280006E+02  0.31270E-03
 0.99330002E+02  0.30109E-03
 0.99380005E+02  0.29152E-03
 0.99430008E+02  0.27438E-03
 0.99480003E+02  0.23466E-03
 0.99530006E+02  0.15299E-03
 0.99580002E+02  0.37481E-04
 0.99630005E+02 -0.11370E-03
 0.99680008E+02 -0.27883E-03
 0.99730003E+02 -0.37037E-03
 0.99780006E+02 -0.34383E-03
 0.99830002E+02 -0.23244E-03
 0.99880005E+02 -0.56996E-04
 0.99930008E+02  0.17594E-03
 0.99980003E+02  0.39991E-03
 0.10003001E+03  0.50326E-03
 0.10008000E+03  0.43604E-03
 0.10013000E+03  0.24126E-03
 0.10018001E+03 -0.61074E-05
 0.10023000E+03 -0.26365E-03
 0.10028001E+03 -0.54709E-03
 0.10033000E+03 -0.85384E-03
 0.10038000E+03 -0.11261E-02
 0.10043001E+03 -0.13156E-02
 0.10048000E+03 -0.14125E-02
 0.10053001E+03 -0.13925E-02
 0.10058000E+03 -0.11892E-02
 0.10063000E+03 -0.78686E-03
 0.10068001E+03 -0.24915E-03
 0.10073000E+03  0.32028E-03
 0.10078001E+03  0.80870E-03
 0.10083000E+03  0.11232E-02
 0.10088000E+03  0.12394E-02
 0.10093001E+03  0.12347E-02
 0.10098000E+03  0.12073E-02
 0.10103001E+03  0.11951E-02
 0.10108000E+03  0.11388E-02
 0.10113000E+03  0.99680E-03
 0.10118001E+03  0.83352E-03
 0.10123000E+03  0.69364E-03
 0.10128001E+03  0.56476E-03
 0.10133000E+03  0.41101E-03
 0.10138000E+03  0.20044E-03
 0.10143001E+03 -0.52037E-04
 0.10148000E+03 -0.31990E-03
 0.10153001E+03 -0.58563E-03
 0.10158000E+03 -0.84565E-03
 0.10163000E+03 -0.11095E-02
 0.10168001E+03 -0.13476E-02
 0.10173000E+03 -0.15011E-02
 0.10178001E+03 -0.15094E-02
 0.10183000E+03 -0.13245E-02
 0.10188000E+03 -0.94809E-03
 0.10193001E+03 -0.44306E-03
 0.10198000E+03  0.84304E-04
 0.10203001E+03  0.53680E-03
 0.10208000E+03  0.86290E-03
 0.10213000E+03  0.10486E-02
 0.10218001E+03  0.10922E-02
 0.10223000E+03  0.10030E-02
 0.10228001E+03  0.81875E-03
 0.10233000E+03  0.60288E-03
 0.10238000E+03  0.40067E-03
 0.10243001E+03  0.19537E-03
 0.10248000E+03 -0.36505E-04
 0.10253001E+03 -0.29781E-03
 0.10258000E+03 -0.57574E-03
 0.10263000E+03 -0.79885E-03
 0.10268001E+03 -0.90917E-03
 0.10273000E+03 -0.93348E-03
 0.10278001E+03 -0.89199E-03
 0.10283000E+03 -0.75164E-03
 0.10288000E+03 -0.50191E-03
 0.10293001E+03 -0.17482E-03
 0.10298000E+03  0.18440E-03
 0.10303001E+03  0.52317E-03
 0.10308000E+03  0.80577E-03
 0.10313000E+03  0.10031E-02
 0.10318001E+03  0.10642E-02
 0.10323000E+03  0.98349E-03
 0.10328001E+03  0.83629E-03
 0.10333000E+03  0.66418E-03
 0.10338000E+03  0.45544E-03
 0.10343001E+03  0.23538E-03
 0.10348000E+03  0.48827E-04
 0.10353001E+03 -0.76174E-04
 0.10358000E+03 -0.13223E-03
 0.10363000E+03 -0.13068E-03
 0.10368001E+03 -0.90102E-04
 0.10373000E+03 -0.36351E-04
 0.10378001E+03 -0.22244E-05
 0.10383000E+03 -0.39562E-04
 0.10388000E+03 -0.17736E-03
 0.10393001E+03 -0.39152E-03
 0.10398000E+03 -0.65417E-03
 0.10403001E+03 -0.93826E-03
 0.10408000E+03 -0.12002E-02
 0.10413000E+03 -0.13731E-02
 0.10418001E+03 -0.13827E-02
 0.10423000E+03 -0.11848E-02
 0.10428001E+03 -0.80403E-03
 0.10433000E+03 -0.35538E-03
 0.10438000E+03  0.41755E-04
 0.10443001E+03  0.34771E-03
 0.10448000E+03  0.58470E-03
 0.10453001E+03  0.77861E-03
 0.10458000E+03  0.93371E-03
 0.10463000E+03  0.10529E-02
 0.10468001E+03  0.11299E-02
 0.10473000E+03  0.11519E-02
 0.10478001E+03  0.11354E-02
 0.10483000E+03  0.11060E-02
 0.10488000E+03  0.10475E-02
 0.10493001E+03  0.91459E-03
 0.10498000E+03  0.68994E-03
 0.10503001E+03  0.41508E-03
 0.10508000E+03  0.16217E-03
 0.10513000E+03 -0.38344E-04
 0.10518001E+03 -0.21448E-03
 0.10523000E+03 -0.38126E-03
 0.10528001E+03 -0.51885E-03
 0.10533000E+03 -0.65662E-03
 0.10538000E+03 -0.85492E-03
 0.10543001E+03 -0.11019E-02
 0.10548000E+03 -0.13371E-02
 0.10553001E+03 -0.14991E-02
 0.10558000E+03 -0.15300E-02
 0.10563000E+03 -0.14114E-02
 0.10568001E+03 -0.11884E-02
 0.10573000E+03 -0.90922E-03
 0.10578001E+03 -0.56195E-03
 0.10583000E+03 -0.16032E-03
 0.10588000E+03  0.21196E-03
 0.10593001E+03  0.49984E-03
 0.10598000E+03  0.71072E-03
 0.10603001E+03  0.86889E-03
 0.10608000E+03  0.98224E-03
 0.10613000E+03  0.10497E-02
 0.10618001E+03  0.10823E-02
 0.10623000E+03  0.10905E-02
 0.10628001E+03  0.10660E-02
 0.10633000E+03  0.10020E-02
 0.10638000E+03  0.88349E-03
 0.10643001E+03  0.69538E-03
 0.10648000E+03  0.46642E-03
 0.10653001E+03  0.22948E-03
 0.10658000E+03  0.49365E-05
 0.10663000E+03 -0.16644E-03
 0.10668001E+03 -0.26057E-03
 0.10673000E+03 -0.29861E-03
 0.10678001E+03 -0.29853E-03
 0.10683000E+03 -0.25701E-03
 0.10688000E+03 -0.18505E-03
 0.10693001E+03 -0.11675E-03
 0.10698000E+03 -0.10402E-03
 0.10703001E+03 -0.19602E-03
 0.10708000E+03 -0.40060E-03
 0.10713000E+03 -0.67597E-03
 0.10718001E+03 -0.94000E-03
 0.10723000E+03 -0.11004E-02
 0.10728001E+03 -0.11005E-02
 0.10733000E+03 -0.94544E-03
 0.10738000E+03 -0.69024E-03
 0.10743001E+03 -0.39916E-03
 0.10748000E+03 -0.13194E-03
 0.10753001E+03  0.78896E-04
 0.10758000E+03  0.25301E-03
 0.10763000E+03  0.42181E-03
 0.10768001E+03  0.58557E-03
 0.10773000E+03  0.72756E-03
 0.10778001E+03  0.85134E-03
 0.10783000E+03  0.97974E-03
 0.10788000E+03  0.11057E-02
 0.10793001E+03  0.11829E-02
 0.10798000E+03  0.11702E-02
 0.10803001E+03  0.10387E-02
 0.10808000E+03  0.76708E-03
 0.10813000E+03  0.37143E-03
 0.10818001E+03 -0.96126E-04
 0.10823000E+03 -0.57622E-03
 0.10828001E+03 -0.10033E-02
 0.10833000E+03 -0.12967E-02
 0.10838000E+03 -0.14087E-02
 0.10843001E+03 -0.13540E-02
 0.10848000E+03 -0.11565E-02
 0.10853001E+03 -0.86066E-03
 0.10858000E+03 -0.54957E-03
 0.10863000E+03 -0.28605E-03
 0.10868001E+03 -0.89523E-04
 0.10873000E+03  0.60662E-04
 0.10878001E+03  0.20010E-03
 0.10883000E+03  0.32215E-03
 0.10888000E+03  0.38513E-03
 0.10893001E+03  0.40218E-03
 0.10898000E+03  0.43277E-03
 0.10903001E+03  0.48291E-03
 0.10908000E+03  0.52235E-03
 0.10913000E+03  0.53033E-03
 0.10918001E+03  0.47637E-03
 0.10923000E+03  0.32754E-03
 0.10928001E+03  0.91794E-04
 0.10933000E+03 -0.17634E-03
 0.10938000E+03 -0.41134E-03
 0.10943001E+03 -0.55380E-03
 0.10948000E+03 -0.56426E-03
 0.10953001E+03 -0.42509E-03
 0.10958000E+03 -0.15685E-03
 0.10963000E+03  0.16621E-03
 0.10968001E+03  0.46346E-03
 0.10973000E+03  0.67693E-03
 0.10978001E+03  0.76234E-03
 0.10983000E+03  0.69978E-03
 0.10988000E+03  0.52174E-03
 0.10993001E+03  0.29360E-03
 0.10998000E+03  0.66769E-04
 0.11003001E+03 -0.13441E-03
 0.11008000E+03 -0.30002E-03
 0.11013000E+03 -0.41353E-03
 0.11018001E+03 -0.45039E-03
 0.11023000E+03 -0.40451E-03
 0.11028001E+03 -0.31409E-03
 0.11033000E+03 -0.22547E-03
 0.11038000E+03 -0.14860E-03
 0.11043001E+03 -0.79844E-04
 0.11048000E+03 -0.29869E-04
 0.11053001E+03 -0.10408E-04
 0.11058000E+03 -0.42942E-05
 0.11063000E+03  0.21121E-04
 0.11068001E+03  0.65950E-04
 0.11073000E+03  0.11685E-03
 0.11078001E+03  0.18510E-03
 0.11083000E+03  0.28157E-03
 0.11088000E+03  0.37967E-03
 0.11093001E+03  0.42202E-03
 0.11098000E+03  0.39047E-03
 0.11103001E+03  0.31933E-03
 0.11108000E+03  0.23258E-03
 0.11113000E+03  0.12185E-03
 0.11118001E+03 -0.28610E-04
 0.11123000E+03 -0.21952E-03
 0.11128001E+03 -0.43440E-03
 0.11133000E+03 -0.63790E-03
 0.11138000E+03 -0.79787E-03
 0.11143001E+03 -0.90416E-03
 0.11148000E+03 -0.97857E-03
 0.11153001E+03 -0.10523E-02
 0.11158000E+03 -0.10979E-02
 0.11163000E+03 -0.10334E-02
 0.11168001E+03 -0.79650E-03
 0.11173000E+03 -0.40407E-03
 0.11178001E+03  0.65248E-04
 0.11183000E+03  0.52517E-03
 0.11188000E+03  0.89564E-03
 0.11193001E+03  0.11226E-02
 0.11198000E+03  0.12021E-02
 0.11203001E+03  0.11687E-02
 0.11208000E+03  0.10616E-02
 0.11213000E+03  0.89996E-03
 0.11218001E+03  0.69777E-03
 0.11223000E+03  0.48942E-03
 0.11228001E+03  0.31245E-03
 0.11233000E+03  0.18437E-03
 0.11238000E+03  0.11847E-03
 0.11243001E+03  0.11303E-03
 0.11248000E+03  0.12729E-03
 0.11253001E+03  0.11483E-03
 0.11258000E+03  0.55220E-04
 0.11263000E+03 -0.66109E-04
 0.11268001E+03 -0.25371E-03
 0.11273000E+03 -0.47902E-03
 0.11278001E+03 -0.67914E-03
 0.11283000E+03 -0.78967E-03
 0.11288000E+03 -0.80024E-03
 0.11293001E+03 -0.72306E-03
 0.11298000E+03 -0.55721E-03
 0.11303001E+03 -0.32611E-03
 0.11308000E+03 -0.79606E-04
 0.11313000E+03  0.13650E-03
 0.11318001E+03  0.29830E-03
 0.11323000E+03  0.37530E-03
 0.11328001E+03  0.32873E-03
 0.11333000E+03  0.18098E-03
 0.11338000E+03  0.92078E-05
 0.11343001E+03 -0.11091E-03
 0.11348000E+03 -0.14050E-03
 0.11353001E+03 -0.97412E-04
 0.11358000E+03 -0.84137E-05
 0.11363000E+03  0.13279E-03
 0.11368001E+03  0.33722E-03
 0.11373000E+03  0.56499E-03
 0.11378001E+03  0.75355E-03
 0.11383000E+03  0.87696E-03
 0.11388000E+03  0.90612E-03
 0.11393001E+03  0.81250E-03
 0.11398000E+03  0.60547E-03
 0.11403001E+03  0.30582E-03
 0.11408000E+03 -0.63186E-04
 0.11413000E+03 -0.45911E-03
 0.11418001E+03 -0.82175E-03
 0.11423000E+03 -0.11036E-02
 0.11428001E+03 -0.12993E-02
 0.11433000E+03 -0.14202E-02
 0.11438000E+03 -0.14477E-02
 0.11443001E+03 -0.13377E-02
 0.11448000E+03 -0.10792E-02
 0.11453001E+03 -0.72217E-03
 0.11458000E+03 -0.31914E-03
 0.11463000E+03  0.10737E-03
 0.11468001E+03  0.53214E-03
 0.11473000E+03  0.90864E-03
 0.11478001E+03  0.11693E-02
 0.11483000E+03  0.12649E-02
 0.11488000E+03  0.11904E-02
 0.11493001E+03  0.98141E-03
 0.11498000E+03  0.69796E-03
 0.11503001E+03  0.39056E-03
 0.11508000E+03  0.11110E-03
 0.11513000E+03 -0.99927E-04
 0.11518001E+03 -0.24100E-03
 0.11523000E+03 -0.31848E-03
 0.11528001E+03 -0.32599E-03
 0.11533000E+03 -0.27380E-03
 0.11538000E+03 -0.22021E-03
 0.11543001E+03 -0.21944E-03
 0.11548000E+03 -0.24826E-03
 0.11553001E+03 -0.24412E-03
 0.11558000E+03 -0.20452E-03
 0.11563000E+03 -0.17420E-03
 0.11568001E+03 -0.14946E-03
 0.11573000E+03 -0.85811E-04
 0.11578001E+03  0.33748E-04
 0.11583000E+03  0.17422E-03
 0.11588000E+03  0.27018E-03
 0.11593001E+03  0.29418E-03
 0.11598000E+03  0.27090E-03
 0.11603001E+03  0.22474E-03
 0.11608000E+03  0.16781E-03
 0.11613000E+03  0.10732E-03
 0.11618001E+03  0.48551E-04
 0.11623000E+03 -0.50633E-05
 0.11628001E+03 -0.53626E-04
 0.11633000E+03 -0.92140E-04
 0.11638000E+03 -0.10495E-03
 0.11643001E+03 -0.79513E-04
 0.11648000E+03 -0.23645E-04
 0.11653001E+03  0.37796E-04
 0.11658000E+03  0.78539E-04
 0.11663000E+03  0.87302E-04
 0.11668001E+03  0.68462E-04
 0.11673000E+03  0.38531E-04
 0.11678001E+03  0.23767E-04
 0.11683000E+03  0.49520E-04
 0.11688000E+03  0.12440E-03
 0.11693001E+03  0.21989E-03
 0.11698000E+03  0.28044E-03
 0.11703001E+03  0.27075E-03
 0.11708000E+03  0.19132E-03
 0.11713000E+03  0.51465E-04
 0.11718001E+03 -0.12994E-03
 0.11723000E+03 -0.31122E-03
 0.11728001E+03 -0.45280E-03
 0.11733000E+03 -0.53776E-03
 0.11738000E+03 -0.55957E-03
 0.11743001E+03 -0.52151E-03
 0.11748000E+03 -0.44014E-03
 0.11753001E+03 -0.31681E-03
 0.11758000E+03 -0.13829E-03
 0.11763000E+03  0.94597E-04
 0.11768001E+03  0.34738E-03
 0.11773000E+03  0.54501E-03
 0.11778001E+03  0.62053E-03
 0.11783000E+03  0.55554E-03
 0.11788000E+03  0.37549E-03
 0.11793001E+03  0.12347E-03
 0.11798000E+03 -0.16936E-03
 0.11803001E+03 -0.46479E-03
 0.11808000E+03 -0.70214E-03
 0.11813000E+03 -0.83432E-03
 0.11818001E+03 -0.84234E-03
 0.11823000E+03 -0.72573E-03
 0.11828001E+03 -0.51381E-03
 0.11833000E+03 -0.25745E-03
 0.11838000E+03  0.36592E-05
 0.11843001E+03  0.25602E-03
 0.11848000E+03  0.49058E-03
 0.11853001E+03  0.68381E-03
 0.11858000E+03  0.80674E-03
 0.11863000E+03  0.83309E-03
 0.11868001E+03  0.76961E-03
 0.11873000E+03  0.65154E-03
 0.11878001E+03  0.49350E-03
 0.11883000E+03  0.30436E-03
 0.11888000E+03  0.11741E-03
 0.11893001E+03 -0.14802E-04
 0.11898000E+03 -0.60842E-04
 0.11903001E+03 -0.55307E-04
 0.11908000E+03 -0.54964E-04
 0.11913000E+03 -0.80135E-04
 0.11918001E+03 -0.13344E-03
 0.11923000E+03 -0.22313E-03
 0.11928001E+03 -0.33723E-03
 0.11933000E+03 -0.42864E-03
 0.11938000E+03 -0.45173E-03
 0.11943001E+03 -0.38760E-03
 0.11948000E+03 -0.25325E-03
 0.11953001E+03 -0.10739E-03
 0.11958000E+03 -0.11882E-04
 0.11963000E+03  0.99911E-05
 0.11968001E+03 -0.16089E-04
 0.11973000E+03 -0.41006E-04
 0.11978001E+03 -0.35900E-04
 0.11983000E+03  0.21593E-05
 0.11988000E+03  0.62616E-04
 0.11993001E+03  0.14511E-03
 0.11998000E+03  0.25866E-03
 0.12003001E+03  0.38720E-03
 0.12008000E+03  0.48931E-03
 0.12013000E+03  0.51895E-03
 0.12018001E+03  0.45685E-03
 0.12023000E+03  0.31600E-03
 0.12028001E+03  0.12122E-03
 0.12033000E+03 -0.88070E-04
 0.12038000E+03 -0.26661E-03
 0.12043001E+03 -0.38544E-03
 0.12048000E+03 -0.44022E-03
 0.12053001E+03 -0.44621E-03
 0.12058000E+03 -0.42305E-03
 0.12063000E+03 -0.39221E-03
 0.12068001E+03 -0.37472E-03
 0.12073000E+03 -0.37928E-03
 0.12078001E+03 -0.39100E-03
 0.12083000E+03 -0.35922E-03
 0.12088000E+03 -0.24450E-03
 0.12093001E+03 -0.64330E-04
 0.12098000E+03  0.13411E-03
 0.12103001E+03  0.29996E-03
 0.12108000E+03  0.40937E-03
 0.12113000E+03  0.47906E-03
 0.12118001E+03  0.52856E-03
 0.12123000E+03  0.55297E-03
 0.12128001E+03  0.53253E-03
 0.12133000E+03  0.46538E-03
 0.12138000E+03  0.37302E-03
 0.12143001E+03  0.25669E-03
 0.12148000E+03  0.10167E-03
 0.12153001E+03 -0.84696E-04
 0.12158000E+03 -0.29020E-03
 0.12163000E+03 -0.50059E-03
 0.12168001E+03 -0.67908E-03
 0.12173000E+03 -0.78071E-03
 0.12178001E+03 -0.77707E-03
 0.12183000E+03 -0.66733E-03
 0.12188000E+03 -0.47543E-03
 0.12193001E+03 -0.24001E-03
 0.12198000E+03 -0.60070E-05
 0.12203001E+03  0.18140E-03
 0.12208000E+03  0.30063E-03
 0.12213000E+03  0.37251E-03
 0.12218001E+03  0.42678E-03
 0.12223000E+03  0.46065E-03
 0.12228001E+03  0.45451E-03
 0.12233000E+03  0.40834E-03
 0.12238000E+03  0.33647E-03
 0.12243001E+03  0.25057E-03
 0.12248000E+03  0.17312E-03
 0.12253001E+03  0.13547E-03
 0.12258000E+03  0.14982E-03
 0.12263000E+03  0.19469E-03
 0.12268001E+03  0.21931E-03
 0.12273000E+03  0.18642E-03
 0.12278001E+03  0.10945E-03
 0.12283000E+03  0.18959E-04
 0.12288000E+03 -0.72951E-04
 0.12293001E+03 -0.15541E-03
 0.12298000E+03 -0.21378E-03
 0.12303001E+03 -0.24949E-03
 0.12308000E+03 -0.26869E-03
 0.12313000E+03 -0.27842E-03
 0.12318001E+03 -0.30065E-03
 0.12323000E+03 -0.34371E-03
 0.12328001E+03 -0.39143E-03
 0.12333000E+03 -0.43036E-03
 0.12338000E+03 -0.45634E-03
 0.12343001E+03 -0.44933E-03
 0.12348000E+03 -0.35289E-03
 0.12353001E+03 -0.13858E-03
 0.12358000E+03  0.14081E-03
 0.12363000E+03  0.40516E-03
 0.12368001E+03  0.60360E-03
 0.12373000E+03  0.71815E-03
 0.12378001E+03  0.74356E-03
 0.12383000E+03  0.67617E-03
 0.12388000E+03  0.52186E-03
 0.12393001E+03  0.31177E-03
 0.12398000E+03  0.94669E-04
 0.12403001E+03 -0.85404E-04
 0.12408000E+03 -0.20765E-03
 0.12413000E+03 -0.27267E-03
 0.12418001E+03 -0.27630E-03
 0.12423000E+03 -0.22418E-03
 0.12428001E+03 -0.13971E-03
 0.12433000E+03 -0.44648E-04
 0.12438000E+03  0.40545E-04
 0.12443001E+03  0.10767E-03
 0.12448000E+03  0.15174E-03
 0.12453001E+03  0.16108E-03
 0.12458000E+03  0.13031E-03
 0.12463000E+03  0.61653E-04
 0.12468001E+03 -0.31447E-04
 0.12473000E+03 -0.13692E-03
 0.12478001E+03 -0.25352E-03
 0.12483000E+03 -0.37553E-03
 0.12488000E+03 -0.48774E-03
 0.12493001E+03 -0.57265E-03
 0.12498000E+03 -0.61259E-03
 0.12503001E+03 -0.59055E-03
 0.12508000E+03 -0.50526E-03
 0.12513000E+03 -0.37510E-03
 0.12518001E+03 -0.23087E-03
 0.12523000E+03 -0.10598E-03
 0.12528001E+03 -0.17603E-04
 0.12533000E+03  0.32494E-04
 0.12538000E+03  0.57158E-04
 0.12543001E+03  0.80176E-04
 0.12548000E+03  0.11851E-03
 0.12553001E+03  0.18675E-03
 0.12558000E+03  0.29127E-03
 0.12563000E+03  0.41943E-03
 0.12568001E+03  0.54875E-03
 0.12573000E+03  0.65214E-03
 0.12578001E+03  0.70557E-03
 0.12583000E+03  0.69603E-03
 0.12588000E+03  0.61789E-03
 0.12593001E+03  0.47090E-03
 0.12598000E+03  0.26621E-03
 0.12603001E+03  0.28715E-04
 0.12608000E+03 -0.20850E-03
 0.12613000E+03 -0.40601E-03
 0.12618001E+03 -0.53104E-03
 0.12623000E+03 -0.58596E-03
 0.12628001E+03 -0.58861E-03
 0.12633000E+03 -0.53692E-03
 0.12638000E+03 -0.41802E-03
 0.12643001E+03 -0.23757E-03
 0.12648000E+03 -0.30379E-04
 0.12653001E+03  0.17142E-03
 0.12658000E+03  0.36193E-03
 0.12663000E+03  0.53791E-03
 0.12668001E+03  0.66781E-03
 0.12673000E+03  0.71185E-03
 0.12678001E+03  0.66075E-03
 0.12683000E+03  0.53645E-03
 0.12688000E+03  0.36850E-03
 0.12693001E+03  0.18218E-03
 0.12698000E+03 -0.14757E-05
 0.12703001E+03 -0.16740E-03
 0.12708000E+03 -0.30751E-03
 0.12713000E+03 -0.42275E-03
 0.12718001E+03 -0.51319E-03
 0.12723000E+03 -0.56962E-03
 0.12728001E+03 -0.57815E-03
 0.12733000E+03 -0.53191E-03
 0.12738000E+03 -0.43515E-03
 0.12743001E+03 -0.30103E-03
 0.12748000E+03 -0.15133E-03
 0.12753001E+03  0.84174E-05
 0.12758000E+03  0.18061E-03
 0.12763000E+03  0.33258E-03
 0.12768001E+03  0.41328E-03
 0.12773000E+03  0.40064E-03
 0.12778001E+03  0.31872E-03
 0.12783000E+03  0.21465E-03
 0.12788000E+03  0.11661E-03
 0.12793001E+03  0.25617E-04
 0.12798000E+03 -0.58415E-04
 0.12803000E+03 -0.12557E-03
 0.12808000E+03 -0.16613E-03
 0.12813000E+03 -0.17384E-03
 0.12818001E+03 -0.15235E-03
 0.12823001E+03 -0.12028E-03
 0.12828000E+03 -0.97498E-04
 0.12833000E+03 -0.93617E-04
 0.12838000E+03 -0.99464E-04
 0.12843001E+03 -0.10327E-03
 0.12848001E+03 -0.10915E-03
 0.12853000E+03 -0.11943E-03
 0.12858000E+03 -0.13057E-03
 0.12863000E+03 -0.14361E-03
 0.12868001E+03 -0.15592E-03
 0.12873001E+03 -0.15935E-03
 0.12878000E+03 -0.15246E-03
 0.12883000E+03 -0.13701E-03
 0.12888000E+03 -0.11619E-03
 0.12893001E+03 -0.94111E-04
 0.12898001E+03 -0.64049E-04
 0.12903000E+03 -0.69045E-05
 0.12908000E+03  0.94811E-04
 0.12913000E+03  0.24055E-03
 0.12918001E+03  0.41110E-03
 0.12923001E+03  0.57692E-03
 0.12928000E+03  0.69795E-03
 0.12933000E+03  0.72808E-03
 0.12938000E+03  0.64413E-03
 0.12943001E+03  0.46282E-03
 0.12948001E+03  0.21693E-03
 0.12953000E+03 -0.60055E-04
 0.12958000E+03 -0.31861E-03
 0.12963000E+03 -0.51313E-03
 0.12968001E+03 -0.63105E-03
 0.12973001E+03 -0.67492E-03
 0.12978000E+03 -0.64941E-03
 0.12983000E+03 -0.56340E-03
 0.12988000E+03 -0.42995E-03
 0.12993001E+03 -0.26617E-03
 0.12998001E+03 -0.94698E-04
 0.13003000E+03  0.62447E-04
 0.13008000E+03  0.20076E-03
 0.13013000E+03  0.32266E-03
 0.13018001E+03  0.41484E-03
 0.13023001E+03  0.45976E-03
 0.13028000E+03  0.45406E-03
 0.13033000E+03  0.41009E-03
 0.13038000E+03  0.34499E-03
 0.13043001E+03  0.26137E-03
 0.13048001E+03  0.14587E-03
 0.13053000E+03 -0.52568E-05
 0.13058000E+03 -0.15996E-03
 0.13063000E+03 -0.27217E-03
 0.13068001E+03 -0.32113E-03
 0.13073001E+03 -0.30436E-03
 0.13078000E+03 -0.22615E-03
 0.13083000E+03 -0.11379E-03
 0.13088000E+03 -0.10911E-04
 0.13093001E+03  0.61291E-04
 0.13098001E+03  0.10687E-03
 0.13103000E+03  0.12300E-03
 0.13108000E+03  0.10224E-03
 0.13113000E+03  0.54714E-04
 0.13118001E+03 -0.21935E-07
 0.13123001E+03 -0.47363E-04
 0.13128000E+03 -0.72982E-04
 0.13133000E+03 -0.68613E-04
 0.13138000E+03 -0.38278E-04
 0.13143001E+03  0.20643E-05
 0.13148001E+03  0.34595E-04
 0.13153000E+03  0.61318E-04
 0.13158000E+03  0.90744E-04
 0.13163000E+03  0.11466E-03
 0.13168001E+03  0.11671E-03
 0.13173001E+03  0.88233E-04
 0.13178000E+03  0.38457E-04
 0.13183000E+03 -0.11354E-04
 0.13188000E+03 -0.54495E-04
 0.13193001E+03 -0.95819E-04
 0.13198001E+03 -0.13181E-03
 0.13203000E+03 -0.15381E-03
 0.13208000E+03 -0.15737E-03
 0.13213000E+03 -0.15402E-03
 0.13218001E+03 -0.15870E-03
 0.13223001E+03 -0.17387E-03
 0.13228000E+03 -0.20152E-03
 0.13233000E+03 -0.24460E-03
 0.13238000E+03 -0.29128E-03
 0.13243001E+03 -0.31410E-03
 0.13248001E+03 -0.29385E-03
 0.13253000E+03 -0.22908E-03
 0.13258000E+03 -0.12499E-03
 0.13263000E+03  0.12637E-04
 0.13268001E+03  0.17270E-03
 0.13273001E+03  0.33411E-03
 0.13278000E+03  0.46975E-03
 0.13283000E+03  0.55139E-03
 0.13288000E+03  0.56736E-03
 0.13293001E+03  0.53410E-03
 0.13298001E+03  0.47490E-03
 0.13303000E+03  0.39837E-03
 0.13308000E+03  0.31151E-03
 0.13313000E+03  0.22831E-03
 0.13318001E+03  0.15307E-03
 0.13323001E+03  0.82242E-04
 0.13328000E+03  0.95532E-05
 0.13333000E+03 -0.64270E-04
 0.13338000E+03 -0.12556E-03
 0.13343001E+03 -0.16741E-03
 0.13348001E+03 -0.19548E-03
 0.13353000E+03 -0.21407E-03
 0.13358000E+03 -0.22252E-03
 0.13363000E+03 -0.22765E-03
 0.13368001E+03 -0.23460E-03
 0.13373001E+03 -0.24311E-03
 0.13378000E+03 -0.26035E-03
 0.13383000E+03 -0.29108E-03
 0.13388000E+03 -0.32392E-03
 0.13393001E+03 -0.33860E-03
 0.13398001E+03 -0.32479E-03
 0.13403000E+03 -0.28167E-03
 0.13408000E+03 -0.21301E-03
 0.13413000E+03 -0.13155E-03
 0.13418001E+03 -0.49502E-04
 0.13423001E+03  0.32902E-04
 0.13428000E+03  0.11182E-03
 0.13433000E+03  0.16976E-03
 0.13438000E+03  0.19708E-03
 0.13443001E+03  0.20132E-03
 0.13448001E+03  0.18922E-03
 0.13453000E+03  0.16455E-03
 0.13458000E+03  0.13974E-03
 0.13463000E+03  0.12109E-03
 0.13468001E+03  0.10629E-03
 0.13473001E+03  0.10471E-03
 0.13478000E+03  0.12389E-03
 0.13483000E+03  0.15066E-03
 0.13488000E+03  0.17440E-03
 0.13493001E+03  0.19434E-03
 0.13498001E+03  0.20131E-03
 0.13503000E+03  0.19337E-03
 0.13508000E+03  0.18500E-03
 0.13513000E+03  0.17837E-03
 0.13518001E+03  0.15738E-03
 0.13523001E+03  0.11974E-03
 0.13528000E+03  0.78353E-04
 0.13533000E+03  0.35268E-04
 0.13538000E+03 -0.16713E-04
 0.13543001E+03 -0.77148E-04
 0.13548001E+03 -0.13176E-03
 0.13553000E+03 -0.16756E-03
 0.13558000E+03 -0.18471E-03
 0.13563000E+03 -0.19440E-03
 0.13568001E+03 -0.20710E-03
 0.13573001E+03 -0.21471E-03
 0.13578000E+03 -0.20824E-03
 0.13583000E+03 -0.19143E-03
 0.13588000E+03 -0.17220E-03
 0.13593001E+03 -0.15440E-03
 0.13598001E+03 -0.12575E-03
 0.13603000E+03 -0.79964E-04
 0.13608000E+03 -0.27067E-04
 0.13613000E+03  0.24736E-04
 0.13618001E+03  0.64110E-04
 0.13623001E+03  0.80337E-04
 0.13628000E+03  0.80034E-04
 0.13633000E+03  0.75076E-04
 0.13638000E+03  0.63569E-04
 0.13643001E+03  0.34551E-04
 0.13648001E+03 -0.17632E-04
 0.13653000E+03 -0.88439E-04
 0.13658000E+03 -0.16482E-03
 0.13663000E+03 -0.22501E-03
 0.13668001E+03 -0.24745E-03
 0.13673001E+03 -0.21815E-03
 0.13678000E+03 -0.13728E-03
 0.13683000E+03 -0.26221E-04
 0.13688000E+03  0.87477E-04
 0.13693001E+03  0.18327E-03
 0.13698001E+03  0.25472E-03
 0.13703000E+03  0.31108E-03
 0.13708000E+03  0.35289E-03
 0.13713000E+03  0.36508E-03
 0.13718001E+03  0.33706E-03
 0.13723001E+03  0.27201E-03
 0.13728000E+03  0.17858E-03
 0.13733000E+03  0.66630E-04
 0.13738000E+03 -0.47556E-04
 0.13743001E+03 -0.14874E-03
 0.13748001E+03 -0.22450E-03
 0.13753000E+03 -0.26039E-03
 0.13758000E+03 -0.25080E-03
 0.13763000E+03 -0.21292E-03
 0.13768001E+03 -0.17228E-03
 0.13773001E+03 -0.13634E-03
 0.13778000E+03 -0.10279E-03
 0.13783000E+03 -0.69115E-04
 0.13788000E+03 -0.30187E-04
 0.13793001E+03  0.18688E-04
 0.13798001E+03  0.75658E-04
 0.13803000E+03  0.13494E-03
 0.13808000E+03  0.19897E-03
 0.13813000E+03  0.26677E-03
 0.13818001E+03  0.32200E-03
 0.13823001E+03  0.34664E-03
 0.13828000E+03  0.33524E-03
 0.13833000E+03  0.28862E-03
 0.13838000E+03  0.20949E-03
 0.13843001E+03  0.10828E-03
 0.13848001E+03 -0.23410E-05
 0.13853000E+03 -0.11570E-03
 0.13858000E+03 -0.22870E-03
 0.13863000E+03 -0.32677E-03
 0.13868001E+03 -0.38598E-03
 0.13873001E+03 -0.39695E-03
 0.13878000E+03 -0.37231E-03
 0.13883000E+03 -0.33014E-03
 0.13888000E+03 -0.27801E-03
 0.13893001E+03 -0.22101E-03
 0.13898001E+03 -0.16822E-03
 0.13903000E+03 -0.12765E-03
 0.13908000E+03 -0.10129E-03
 0.13913000E+03 -0.81234E-04
 0.13918001E+03 -0.61058E-04
 0.13923001E+03 -0.32281E-04
 0.13928000E+03  0.14072E-04
 0.13933000E+03  0.68064E-04
 0.13938000E+03  0.11073E-03
 0.13943001E+03  0.13036E-03
 0.13948001E+03  0.12539E-03
 0.13953000E+03  0.10734E-03
 0.13958000E+03  0.90696E-04
 0.13963000E+03  0.83036E-04
 0.13968001E+03  0.94373E-04
 0.13973001E+03  0.13165E-03
 0.13978000E+03  0.18850E-03
 0.13983000E+03  0.24118E-03
 0.13988000E+03  0.26045E-03
 0.13993001E+03  0.23298E-03
 0.13998001E+03  0.15729E-03
 0.14003000E+03  0.53196E-04
 0.14008000E+03 -0.48531E-04
 0.14013000E+03 -0.13238E-03
 0.14018001E+03 -0.18264E-03
 0.14023001E+03 -0.17942E-03
 0.14028000E+03 -0.11838E-03
 0.14033000E+03 -0.18107E-04
 0.14038000E+03  0.10039E-03
 0.14043001E+03  0.22002E-03
 0.14048001E+03  0.31308E-03
 0.14053000E+03  0.35310E-03
 0.14058000E+03  0.32868E-03
 0.14063000E+03  0.24374E-03
 0.14068001E+03  0.11023E-03
 0.14073001E+03 -0.61013E-04
 0.14078000E+03 -0.24384E-03
 0.14083000E+03 -0.39145E-03
 0.14088000E+03 -0.47423E-03
 0.14093001E+03 -0.49344E-03
 0.14098001E+03 -0.45463E-03
 0.14103000E+03 -0.36272E-03
 0.14108000E+03 -0.23498E-03
 0.14113000E+03 -0.95444E-04
 0.14118001E+03  0.32629E-04
 0.14123001E+03  0.12833E-03
 0.14128000E+03  0.18548E-03
 0.14133000E+03  0.20859E-03
 0.14138000E+03  0.20528E-03
 0.14143001E+03  0.19087E-03
 0.14148001E+03  0.17741E-03
 0.14153000E+03  0.17138E-03
 0.14158000E+03  0.17468E-03
 0.14163000E+03  0.17959E-03
 0.14168001E+03  0.17691E-03
 0.14173001E+03  0.16120E-03
 0.14178000E+03  0.13734E-03
 0.14183000E+03  0.12452E-03
 0.14188000E+03  0.13569E-03
 0.14193001E+03  0.16491E-03
 0.14198001E+03  0.19588E-03
 0.14203000E+03  0.20865E-03
 0.14208000E+03  0.18497E-03
 0.14213000E+03  0.11259E-03
 0.14218001E+03 -0.30709E-05
 0.14223001E+03 -0.14312E-03
 0.14228000E+03 -0.29160E-03
 0.14233000E+03 -0.43237E-03
 0.14238000E+03 -0.54347E-03
 0.14243001E+03 -0.60198E-03
 0.14248001E+03 -0.60098E-03
 0.14253000E+03 -0.55404E-03
 0.14258000E+03 -0.47972E-03
 0.14263000E+03 -0.38680E-03
 0.14268001E+03 -0.27191E-03
 0.14273001E+03 -0.14085E-03
 0.14278000E+03 -0.11479E-04
 0.14283000E+03  0.10431E-03
 0.14288000E+03  0.19267E-03
 0.14293001E+03  0.24325E-03
 0.14298001E+03  0.26751E-03
 0.14303000E+03  0.28164E-03
 0.14308000E+03  0.28930E-03
 0.14313000E+03  0.29297E-03
 0.14318001E+03  0.29730E-03
 0.14323001E+03  0.29915E-03
 0.14328000E+03  0.29240E-03
 0.14333000E+03  0.27281E-03
 0.14338000E+03  0.23739E-03
 0.14343001E+03  0.18741E-03
 0.14348001E+03  0.12837E-03
 0.14353000E+03  0.68716E-04
 0.14358000E+03  0.19644E-04
 0.14363000E+03 -0.88183E-05
 0.14368001E+03 -0.19118E-04
 0.14373001E+03 -0.24863E-04
 0.14378000E+03 -0.28805E-04
 0.14383000E+03 -0.21693E-04
 0.14388000E+03 -0.43302E-05
 0.14393001E+03  0.11738E-04
 0.14398001E+03  0.11850E-04
 0.14403000E+03 -0.14775E-04
 0.14408000E+03 -0.64222E-04
 0.14413000E+03 -0.12463E-03
 0.14418001E+03 -0.18557E-03
 0.14423001E+03 -0.23581E-03
 0.14428000E+03 -0.26782E-03
 0.14433000E+03 -0.28290E-03
 0.14438000E+03 -0.28182E-03
 0.14443001E+03 -0.26586E-03
 0.14448001E+03 -0.24584E-03
 0.14453000E+03 -0.22950E-03
 0.14458000E+03 -0.21051E-03
 0.14463000E+03 -0.17518E-03
 0.14468001E+03 -0.11578E-03
 0.14473001E+03 -0.42260E-04
 0.14478000E+03  0.29593E-04
 0.14483000E+03  0.97678E-04
 0.14488000E+03  0.16818E-03
 0.14493001E+03  0.22941E-03
 0.14498001E+03  0.25544E-03
 0.14503000E+03  0.24479E-03
 0.14508000E+03  0.21985E-03
 0.14513000E+03  0.19830E-03
 0.14518001E+03  0.18242E-03
 0.14523001E+03  0.16756E-03
 0.14528000E+03  0.15832E-03
 0.14533000E+03  0.16295E-03
 0.14538000E+03  0.18250E-03
 0.14543001E+03  0.21499E-03
 0.14548001E+03  0.25619E-03
 0.14553000E+03  0.29494E-03
 0.14558000E+03  0.31698E-03
 0.14563000E+03  0.31012E-03
 0.14568001E+03  0.26611E-03
 0.14573001E+03  0.18421E-03
 0.14578000E+03  0.68710E-04
 0.14583000E+03 -0.66022E-04
 0.14588000E+03 -0.19713E-03
 0.14593001E+03 -0.30960E-03
 0.14598001E+03 -0.39626E-03
 0.14603000E+03 -0.44808E-03
 0.14608000E+03 -0.45790E-03
 0.14613000E+03 -0.43485E-03
 0.14618001E+03 -0.39369E-03
 0.14623001E+03 -0.33781E-03
 0.14628000E+03 -0.27449E-03
 0.14633000E+03 -0.21663E-03
 0.14638000E+03 -0.16521E-03
 0.14643001E+03 -0.11274E-03
 0.14648001E+03 -0.46603E-04
 0.14653000E+03  0.46498E-04
 0.14658000E+03  0.16378E-03
 0.14663000E+03  0.28600E-03
 0.14668001E+03  0.38814E-03
 0.14673001E+03  0.44787E-03
 0.14678000E+03  0.45299E-03
 0.14683000E+03  0.40280E-03
 0.14688000E+03  0.30486E-03
 0.14693001E+03  0.17680E-03
 0.14698001E+03  0.37561E-04
 0.14703000E+03 -0.10602E-03
 0.14708000E+03 -0.24367E-03
 0.14713000E+03 -0.34831E-03
 0.14718001E+03 -0.39881E-03
 0.14723001E+03 -0.39864E-03
 0.14728000E+03 -0.36166E-03
 0.14733000E+03 -0.29303E-03
 0.14738000E+03 -0.19081E-03
 0.14743001E+03 -0.64403E-04
 0.14748001E+03  0.61835E-04
 0.14753000E+03  0.16455E-03
 0.14758000E+03  0.22810E-03
 0.14763000E+03  0.24282E-03
 0.14768001E+03  0.21364E-03
 0.14773001E+03  0.15750E-03
 0.14778000E+03  0.82969E-04
 0.14783000E+03 -0.51988E-05
 0.14788000E+03 -0.93017E-04
 0.14793001E+03 -0.16713E-03
 0.14798001E+03 -0.22270E-03
 0.14803000E+03 -0.26096E-03
 0.14808000E+03 -0.28297E-03
 0.14813000E+03 -0.28565E-03
 0.14818001E+03 -0.26055E-03
 0.14823001E+03 -0.19356E-03
 0.14828000E+03 -0.81563E-04
 0.14833000E+03  0.59033E-04
 0.14838000E+03  0.20449E-03
 0.14843001E+03  0.33674E-03
 0.14848001E+03  0.44229E-03
 0.14853000E+03  0.50622E-03
 0.14858000E+03  0.52080E-03
 0.14863000E+03  0.48421E-03
 0.14868001E+03  0.40279E-03
 0.14873001E+03  0.29075E-03
 0.14878000E+03  0.15457E-03
 0.14883000E+03  0.19192E-06
 0.14888000E+03 -0.15655E-03
 0.14893001E+03 -0.29460E-03
 0.14898001E+03 -0.39336E-03
 0.14903000E+03 -0.43958E-03
 0.14908000E+03 -0.42675E-03
 0.14913000E+03 -0.35279E-03
 0.14918001E+03 -0.22496E-03
 0.14923001E+03 -0.57662E-04
 0.14928000E+03  0.13019E-03
 0.14933000E+03  0.30969E-03
 0.14938000E+03  0.44719E-03
 0.14943001E+03  0.51721E-03
 0.14948001E+03  0.51481E-03
 0.14953000E+03  0.45800E-03
 0.14958000E+03  0.36290E-03
 0.14963000E+03  0.23669E-03
 0.14968001E+03  0.94396E-04
 0.14973001E+03 -0.42763E-04
 0.14978000E+03 -0.15983E-03
 0.14983000E+03 -0.25401E-03
 0.14988000E+03 -0.32653E-03
 0.14993001E+03 -0.37564E-03
 0.14998001E+03 -0.40122E-03
