-0.20004272E-01  0.28030E-05
 0.29995728E-01  0.14829E-05
 0.79995729E-01  0.60645E-06
 0.12999573E+00  0.10146E-06
 0.17999573E+00 -0.92941E-07
 0.22999573E+00 -0.17074E-06
 0.27999574E+00 -0.33851E-06
 0.32999572E+00 -0.57720E-06
 0.37999573E+00 -0.77100E-06
 0.42999575E+00 -0.79490E-06
 0.47999573E+00 -0.75527E-06
 0.52999574E+00 -0.63962E-06
 0.57999575E+00 -0.39456E-06
 0.62999576E+00 -0.15865E-06
 0.67999572E+00 -0.18764E-07
 0.72999573E+00  0.16204E-07
 0.77999574E+00  0.77699E-08
 0.82999575E+00 -0.11872E-06
 0.87999576E+00 -0.36766E-06
 0.92999572E+00 -0.46823E-06
 0.97999573E+00 -0.25483E-06
 0.10299958E+01  0.80497E-07
 0.10799958E+01  0.28019E-06
 0.11299957E+01  0.34031E-06
 0.11799958E+01  0.37282E-06
 0.12299957E+01  0.36690E-06
 0.12799958E+01  0.27832E-06
 0.13299958E+01  0.11779E-06
 0.13799957E+01 -0.12144E-06
 0.14299958E+01 -0.29118E-06
 0.14799957E+01 -0.26001E-06
 0.15299958E+01 -0.16383E-06
 0.15799958E+01 -0.13538E-06
 0.16299957E+01 -0.11230E-06
 0.16799958E+01  0.36945E-08
 0.17299957E+01  0.10258E-06
 0.17799958E+01  0.48111E-07
 0.18299958E+01 -0.66970E-07
 0.18799957E+01 -0.19070E-06
 0.19299958E+01 -0.23948E-06
 0.19799957E+01 -0.82437E-07
 0.20299957E+01  0.10849E-06
 0.20799959E+01  0.14691E-06
 0.21299958E+01  0.12700E-06
 0.21799958E+01  0.19494E-06
 0.22299957E+01  0.18598E-06
 0.22799957E+01 -0.19689E-07
 0.23299959E+01 -0.20182E-06
 0.23799958E+01 -0.34532E-06
 0.24299958E+01 -0.40771E-06
 0.24799957E+01 -0.34251E-06
 0.25299957E+01 -0.33261E-06
 0.25799959E+01 -0.34245E-06
 0.26299958E+01 -0.37210E-06
 0.26799958E+01 -0.29067E-06
 0.27299957E+01  0.25829E-07
 0.27799957E+01  0.38025E-06
 0.28299959E+01  0.66633E-06
 0.28799958E+01  0.88177E-06
 0.29299958E+01  0.10429E-05
 0.29799957E+01  0.10300E-05
 0.30299957E+01  0.91135E-06
 0.30799959E+01  0.67050E-06
 0.31299958E+01  0.20886E-06
 0.31799958E+01 -0.23336E-06
 0.32299957E+01 -0.57069E-06
 0.32799957E+01 -0.76090E-06
 0.33299959E+01 -0.81668E-06
 0.33799958E+01 -0.78145E-06
 0.34299958E+01 -0.64204E-06
 0.34799957E+01 -0.43208E-06
 0.35299957E+01 -0.10571E-06
 0.35799959E+01  0.73967E-07
 0.36299958E+01 -0.25241E-07
 0.36799958E+01 -0.11767E-06
 0.37299957E+01 -0.79774E-07
 0.37799957E+01  0.15435E-06
 0.38299959E+01  0.38587E-06
 0.38799958E+01  0.37178E-06
 0.39299958E+01  0.25277E-06
 0.39799957E+01  0.13962E-06
 0.40299959E+01  0.66001E-07
 0.40799956E+01  0.48446E-07
 0.41299958E+01  0.98769E-07
 0.41799960E+01  0.16030E-06
 0.42299957E+01  0.90258E-07
 0.42799959E+01  0.55251E-07
 0.43299956E+01  0.14723E-06
 0.43799958E+01  0.17374E-06
 0.44299960E+01  0.15262E-06
 0.44799957E+01  0.70246E-07
 0.45299959E+01 -0.60378E-07
 0.45799956E+01 -0.16251E-06
 0.46299958E+01 -0.21368E-06
 0.46799960E+01 -0.21916E-06
 0.47299957E+01 -0.25243E-06
 0.47799959E+01 -0.20073E-06
 0.48299956E+01 -0.12761E-06
 0.48799958E+01 -0.16327E-06
 0.49299960E+01 -0.26074E-06
 0.49799957E+01 -0.35412E-06
 0.50299959E+01 -0.33820E-06
 0.50799956E+01 -0.31640E-06
 0.51299958E+01 -0.37076E-06
 0.51799960E+01 -0.39427E-06
 0.52299957E+01 -0.28360E-06
 0.52799959E+01  0.18660E-07
 0.53299956E+01  0.35945E-06
 0.53799958E+01  0.54977E-06
 0.54299960E+01  0.57427E-06
 0.54799957E+01  0.51303E-06
 0.55299959E+01  0.52248E-06
 0.55799956E+01  0.57683E-06
 0.56299958E+01  0.56599E-06
 0.56799960E+01  0.46399E-06
 0.57299957E+01  0.22653E-06
 0.57799959E+01 -0.51389E-07
 0.58299956E+01 -0.33166E-06
 0.58799958E+01 -0.56042E-06
 0.59299960E+01 -0.58646E-06
 0.59799957E+01 -0.51569E-06
 0.60299959E+01 -0.40790E-06
 0.60799956E+01 -0.20524E-06
 0.61299958E+01  0.72486E-07
 0.61799960E+01  0.33155E-06
 0.62299957E+01  0.44723E-06
 0.62799959E+01  0.38443E-06
 0.63299956E+01  0.20774E-06
 0.63799958E+01  0.84409E-07
 0.64299960E+01  0.16328E-07
 0.64799957E+01 -0.74416E-07
 0.65299959E+01 -0.22358E-06
 0.65799956E+01 -0.35213E-06
 0.66299958E+01 -0.27471E-06
 0.66799960E+01 -0.14800E-06
 0.67299957E+01 -0.16037E-06
 0.67799959E+01 -0.25299E-06
 0.68299956E+01 -0.33721E-06
 0.68799958E+01 -0.27100E-06
 0.69299960E+01 -0.10189E-06
 0.69799957E+01 -0.47534E-07
 0.70299959E+01  0.39772E-07
 0.70799956E+01  0.24799E-06
 0.71299958E+01  0.40452E-06
 0.71799960E+01  0.50165E-06
 0.72299957E+01  0.51412E-06
 0.72799959E+01  0.48081E-06
 0.73299956E+01  0.46595E-06
 0.73799958E+01  0.45046E-06
 0.74299960E+01  0.32170E-06
 0.74799957E+01 -0.23194E-07
 0.75299959E+01 -0.34582E-06
 0.75799956E+01 -0.32028E-06
 0.76299958E+01 -0.91595E-07
 0.76799960E+01 -0.81868E-07
 0.77299957E+01 -0.16218E-06
 0.77799959E+01 -0.14853E-06
 0.78299956E+01 -0.25625E-06
 0.78799958E+01 -0.30094E-06
 0.79299960E+01 -0.11027E-06
 0.79799957E+01  0.56122E-08
 0.80299959E+01 -0.71804E-07
 0.80799961E+01 -0.13952E-06
 0.81299963E+01 -0.15268E-06
 0.81799955E+01 -0.23339E-06
 0.82299957E+01 -0.35000E-06
 0.82799959E+01 -0.38301E-06
 0.83299961E+01 -0.37181E-06
 0.83799963E+01 -0.48828E-06
 0.84299955E+01 -0.52312E-06
 0.84799957E+01 -0.22660E-06
 0.85299959E+01  0.70449E-07
 0.85799961E+01  0.26102E-06
 0.86299963E+01  0.47543E-06
 0.86799955E+01  0.62719E-06
 0.87299957E+01  0.69639E-06
 0.87799959E+01  0.77604E-06
 0.88299961E+01  0.94023E-06
 0.88799963E+01  0.10545E-05
 0.89299955E+01  0.91951E-06
 0.89799957E+01  0.53623E-06
 0.90299959E+01  0.78569E-07
 0.90799961E+01 -0.37001E-06
 0.91299963E+01 -0.62544E-06
 0.91799955E+01 -0.56485E-06
 0.92299957E+01 -0.49205E-06
 0.92799959E+01 -0.54473E-06
 0.93299961E+01 -0.70956E-06
 0.93799963E+01 -0.83614E-06
 0.94299955E+01 -0.70713E-06
 0.94799957E+01 -0.48304E-06
 0.95299959E+01 -0.31704E-06
 0.95799961E+01 -0.19242E-06
 0.96299963E+01 -0.11452E-06
 0.96799955E+01  0.25695E-07
 0.97299957E+01  0.28169E-06
 0.97799959E+01  0.46774E-06
 0.98299961E+01  0.54885E-06
 0.98799963E+01  0.69949E-06
 0.99299955E+01  0.84194E-06
 0.99799957E+01  0.78588E-06
 0.10029996E+02  0.53805E-06
 0.10079996E+02  0.12039E-06
 0.10129996E+02 -0.25854E-06
 0.10179996E+02 -0.36797E-06
 0.10229996E+02 -0.27287E-06
 0.10279996E+02 -0.15754E-06
 0.10329996E+02 -0.14116E-06
 0.10379996E+02 -0.16127E-06
 0.10429996E+02 -0.20571E-06
 0.10479996E+02 -0.32829E-06
 0.10529996E+02 -0.48606E-06
 0.10579996E+02 -0.57044E-06
 0.10629996E+02 -0.52184E-06
 0.10679996E+02 -0.31367E-06
 0.10729996E+02 -0.75825E-07
 0.10779996E+02  0.76454E-07
 0.10829996E+02  0.26619E-06
 0.10879996E+02  0.52255E-06
 0.10929996E+02  0.85603E-06
 0.10979996E+02  0.11083E-05
 0.11029996E+02  0.10783E-05
 0.11079996E+02  0.79865E-06
 0.11129996E+02  0.36029E-06
 0.11179996E+02 -0.12429E-06
 0.11229996E+02 -0.50868E-06
 0.11279996E+02 -0.67557E-06
 0.11329996E+02 -0.84689E-06
 0.11379996E+02 -0.10648E-05
 0.11429996E+02 -0.11651E-05
 0.11479996E+02 -0.11626E-05
 0.11529996E+02 -0.10198E-05
 0.11579996E+02 -0.76407E-06
 0.11629996E+02 -0.42867E-06
 0.11679996E+02 -0.10539E-06
 0.11729996E+02  0.28776E-06
 0.11779996E+02  0.82414E-06
 0.11829996E+02  0.12005E-05
 0.11879996E+02  0.13759E-05
 0.11929996E+02  0.13417E-05
 0.11979996E+02  0.10984E-05
 0.12029996E+02  0.86757E-06
 0.12079996E+02  0.63772E-06
 0.12129996E+02  0.40825E-06
 0.12179996E+02  0.14628E-06
 0.12229996E+02 -0.50334E-07
 0.12279996E+02 -0.45705E-08
 0.12329996E+02  0.16275E-08
 0.12379996E+02 -0.21860E-06
 0.12429996E+02 -0.58098E-06
 0.12479996E+02 -0.89131E-06
 0.12529996E+02 -0.92911E-06
 0.12579996E+02 -0.84407E-06
 0.12629996E+02 -0.80976E-06
 0.12679996E+02 -0.73542E-06
 0.12729996E+02 -0.56446E-06
 0.12779996E+02 -0.32080E-06
 0.12829996E+02 -0.76771E-07
 0.12879996E+02  0.17108E-06
 0.12929996E+02  0.48761E-06
 0.12979996E+02  0.77127E-06
 0.13029996E+02  0.90014E-06
 0.13079996E+02  0.82784E-06
 0.13129996E+02  0.59959E-06
 0.13179996E+02  0.25375E-06
 0.13229996E+02 -0.64407E-07
 0.13279996E+02 -0.16285E-06
 0.13329996E+02 -0.29013E-06
 0.13379996E+02 -0.52899E-06
 0.13429996E+02 -0.71247E-06
 0.13479996E+02 -0.84093E-06
 0.13529996E+02 -0.83287E-06
 0.13579996E+02 -0.61364E-06
 0.13629996E+02 -0.25529E-06
 0.13679996E+02  0.14665E-06
 0.13729996E+02  0.59290E-06
 0.13779996E+02  0.86166E-06
 0.13829996E+02  0.76553E-06
 0.13879996E+02  0.47393E-06
 0.13929996E+02  0.20624E-06
 0.13979996E+02  0.12225E-06
 0.14029996E+02  0.22701E-06
 0.14079996E+02  0.43519E-06
 0.14129996E+02  0.54869E-06
 0.14179996E+02  0.38226E-06
 0.14229996E+02  0.66499E-07
 0.14279996E+02 -0.15915E-06
 0.14329996E+02 -0.16936E-06
 0.14379996E+02 -0.43748E-07
 0.14429996E+02 -0.60763E-08
 0.14479996E+02 -0.97437E-07
 0.14529996E+02 -0.27280E-06
 0.14579996E+02 -0.50002E-06
 0.14629996E+02 -0.62687E-06
 0.14679996E+02 -0.55013E-06
 0.14729996E+02 -0.43732E-06
 0.14779996E+02 -0.44617E-06
 0.14829996E+02 -0.39376E-06
 0.14879996E+02 -0.18739E-06
 0.14929996E+02  0.60137E-07
 0.14979996E+02  0.16765E-06
 0.15029996E+02  0.12461E-06
 0.15079996E+02  0.12386E-06
 0.15129996E+02  0.24121E-06
 0.15179996E+02  0.45886E-06
 0.15229996E+02  0.50311E-06
 0.15279996E+02  0.36426E-06
 0.15329996E+02  0.23482E-06
 0.15379996E+02  0.18634E-06
 0.15429996E+02  0.30428E-06
 0.15479996E+02  0.32274E-06
 0.15529996E+02  0.17484E-06
 0.15579996E+02  0.69119E-07
 0.15629996E+02  0.75856E-07
 0.15679996E+02  0.76564E-08
 0.15729996E+02 -0.24838E-06
 0.15779996E+02 -0.46796E-06
 0.15829996E+02 -0.43516E-06
 0.15879996E+02 -0.15223E-06
 0.15929996E+02 -0.56442E-07
 0.15979996E+02 -0.25777E-06
 0.16029997E+02 -0.42435E-06
 0.16079996E+02 -0.41255E-06
 0.16129995E+02 -0.24948E-06
 0.16179996E+02 -0.64776E-07
 0.16229996E+02  0.86677E-08
 0.16279997E+02 -0.40912E-07
 0.16329996E+02 -0.41771E-07
 0.16379995E+02  0.67826E-07
 0.16429996E+02  0.24010E-06
 0.16479996E+02  0.35672E-06
 0.16529997E+02  0.37871E-06
 0.16579996E+02  0.40370E-06
 0.16629995E+02  0.37840E-06
 0.16679996E+02  0.33655E-06
 0.16729996E+02  0.30650E-06
 0.16779997E+02  0.23274E-06
 0.16829996E+02  0.20487E-06
 0.16879995E+02  0.24459E-06
 0.16929996E+02  0.17510E-06
 0.16979996E+02 -0.12732E-06
 0.17029997E+02 -0.55960E-06
 0.17079996E+02 -0.82430E-06
 0.17129995E+02 -0.77879E-06
 0.17179996E+02 -0.65303E-06
 0.17229996E+02 -0.61049E-06
 0.17279997E+02 -0.66957E-06
 0.17329996E+02 -0.67878E-06
 0.17379995E+02 -0.44040E-06
 0.17429996E+02 -0.10944E-06
 0.17479996E+02  0.24575E-06
 0.17529997E+02  0.60255E-06
 0.17579996E+02  0.80555E-06
 0.17629995E+02  0.94190E-06
 0.17679996E+02  0.10618E-05
 0.17729996E+02  0.99516E-06
 0.17779997E+02  0.70851E-06
 0.17829996E+02  0.46011E-06
 0.17879995E+02  0.30389E-06
 0.17929996E+02  0.14941E-06
 0.17979996E+02  0.11313E-07
 0.18029997E+02 -0.18591E-06
 0.18079996E+02 -0.32925E-06
 0.18129995E+02 -0.50247E-06
 0.18179996E+02 -0.67778E-06
 0.18229996E+02 -0.69635E-06
 0.18279997E+02 -0.77881E-06
 0.18329996E+02 -0.86354E-06
 0.18379995E+02 -0.83007E-06
 0.18429996E+02 -0.53851E-06
 0.18479996E+02 -0.14107E-06
 0.18529997E+02  0.20716E-06
 0.18579996E+02  0.53463E-06
 0.18629995E+02  0.66357E-06
 0.18679996E+02  0.83662E-06
 0.18729996E+02  0.86863E-06
 0.18779997E+02  0.68145E-06
 0.18829996E+02  0.55401E-06
 0.18879995E+02  0.34609E-06
 0.18929996E+02  0.20559E-06
 0.18979996E+02  0.93885E-07
 0.19029997E+02 -0.11466E-06
 0.19079996E+02 -0.31898E-06
 0.19129995E+02 -0.51593E-06
 0.19179996E+02 -0.59921E-06
 0.19229996E+02 -0.65406E-06
 0.19279997E+02 -0.79467E-06
 0.19329996E+02 -0.92271E-06
 0.19379995E+02 -0.81947E-06
 0.19429996E+02 -0.33431E-06
 0.19479996E+02 -0.83675E-08
 0.19529997E+02  0.22391E-06
 0.19579996E+02  0.65779E-06
 0.19629995E+02  0.58128E-06
 0.19679996E+02  0.98101E-06
 0.19729996E+02  0.68977E-06
 0.19779997E+02  0.93290E-06
 0.19829996E+02  0.11410E-05
 0.19879995E+02 -0.73558E-07
 0.19929996E+02 -0.15468E-05
 0.19979996E+02 -0.13657E-04
 0.20029997E+02 -0.30494E-04
 0.20079996E+02 -0.58649E-04
 0.20129995E+02 -0.12352E-03
 0.20179996E+02 -0.23019E-03
 0.20229996E+02 -0.23247E-03
 0.20279997E+02 -0.82390E-04
 0.20329996E+02  0.12984E-04
 0.20379995E+02  0.35459E-04
 0.20429996E+02  0.10824E-03
 0.20479996E+02  0.44433E-03
 0.20529997E+02  0.60576E-03
 0.20579996E+02  0.28279E-03
 0.20629995E+02  0.75153E-04
 0.20679996E+02 -0.19542E-03
 0.20729996E+02 -0.38035E-03
 0.20779997E+02 -0.15856E-03
 0.20829996E+02  0.11199E-04
 0.20879995E+02 -0.24162E-04
 0.20929996E+02 -0.12972E-03
 0.20979996E+02  0.46576E-04
 0.21029997E+02  0.13384E-03
 0.21079996E+02 -0.10137E-03
 0.21129995E+02 -0.78875E-04
 0.21179996E+02  0.17280E-03
 0.21229996E+02  0.48331E-03
 0.21279997E+02  0.54414E-03
 0.21329996E+02 -0.71236E-04
 0.21379995E+02 -0.64755E-03
 0.21429996E+02 -0.46355E-03
 0.21479996E+02 -0.42137E-04
 0.21529997E+02 -0.20820E-03
 0.21579996E+02 -0.65229E-03
 0.21629995E+02 -0.55817E-03
 0.21679996E+02 -0.59448E-03
 0.21729996E+02 -0.54173E-03
 0.21779997E+02  0.12073E-03
 0.21829996E+02  0.39731E-03
 0.21879995E+02  0.46731E-03
 0.21929996E+02  0.49965E-03
 0.21979996E+02  0.67167E-03
 0.22029997E+02  0.94620E-03
 0.22079996E+02  0.10070E-02
 0.22129995E+02  0.12949E-02
 0.22179996E+02  0.81220E-03
 0.22229996E+02 -0.78703E-04
 0.22279997E+02 -0.26606E-03
 0.22329996E+02 -0.21558E-03
 0.22379995E+02  0.17802E-03
 0.22429996E+02  0.14977E-03
 0.22479996E+02 -0.60717E-03
 0.22529997E+02 -0.12048E-02
 0.22579996E+02 -0.12015E-02
 0.22629995E+02 -0.83782E-03
 0.22679996E+02 -0.84136E-03
 0.22729996E+02 -0.40133E-03
 0.22779997E+02  0.15629E-03
 0.22829996E+02  0.21912E-03
 0.22879995E+02  0.27493E-03
 0.22929996E+02  0.18899E-03
 0.22979996E+02  0.23435E-03
 0.23029997E+02 -0.12936E-03
 0.23079996E+02 -0.11326E-03
 0.23129995E+02  0.41802E-03
 0.23179996E+02  0.29955E-03
 0.23229996E+02  0.10636E-03
 0.23279997E+02 -0.78966E-04
 0.23329996E+02 -0.16348E-03
 0.23379995E+02  0.27342E-03
 0.23429996E+02  0.70649E-03
 0.23479996E+02  0.48488E-03
 0.23529997E+02 -0.11960E-03
 0.23579996E+02 -0.40860E-03
 0.23629995E+02 -0.13564E-03
 0.23679996E+02 -0.82210E-04
 0.23729996E+02 -0.38952E-03
 0.23779997E+02 -0.58452E-03
 0.23829996E+02 -0.69538E-03
 0.23879995E+02 -0.62837E-03
 0.23929996E+02 -0.38689E-03
 0.23979996E+02  0.11534E-03
 0.24029997E+02  0.55401E-03
 0.24079996E+02  0.68453E-03
 0.24129995E+02  0.60817E-03
 0.24179996E+02  0.39270E-03
 0.24229996E+02  0.29274E-03
 0.24279997E+02  0.34412E-03
 0.24329996E+02  0.19726E-03
 0.24379995E+02  0.63580E-04
 0.24429996E+02  0.25082E-03
 0.24479996E+02 -0.28648E-03
 0.24529997E+02 -0.90108E-03
 0.24579996E+02 -0.47570E-03
 0.24629995E+02  0.74791E-04
 0.24679996E+02  0.33857E-03
 0.24729996E+02  0.18287E-03
 0.24779997E+02  0.15636E-03
 0.24829996E+02 -0.76495E-04
 0.24879995E+02 -0.33263E-03
 0.24929996E+02  0.35455E-03
 0.24979996E+02  0.46380E-03
 0.25029997E+02  0.30166E-03
 0.25079996E+02  0.26521E-03
 0.25129995E+02 -0.22880E-04
 0.25179996E+02  0.40061E-04
 0.25229996E+02  0.25153E-03
 0.25279997E+02  0.34249E-03
 0.25329996E+02 -0.30160E-03
 0.25379995E+02 -0.82963E-03
 0.25429996E+02 -0.77848E-03
 0.25479996E+02 -0.84521E-03
 0.25529997E+02 -0.65295E-03
 0.25579996E+02 -0.61893E-03
 0.25629995E+02 -0.88458E-03
 0.25679996E+02 -0.63580E-03
 0.25729996E+02  0.72338E-04
 0.25779997E+02  0.74952E-03
 0.25829996E+02  0.10637E-02
 0.25879995E+02  0.11665E-02
 0.25929996E+02  0.95906E-03
 0.25979996E+02  0.43426E-03
 0.26029997E+02  0.65381E-03
 0.26079996E+02  0.83485E-03
 0.26129995E+02  0.39131E-03
 0.26179996E+02  0.12935E-03
 0.26229996E+02 -0.30983E-03
 0.26279997E+02 -0.75214E-03
 0.26329996E+02 -0.86586E-03
 0.26379995E+02 -0.10715E-02
 0.26429996E+02 -0.11712E-02
 0.26479996E+02 -0.86907E-03
 0.26529997E+02 -0.81035E-03
 0.26579996E+02 -0.52895E-03
 0.26629995E+02  0.93309E-04
 0.26679996E+02  0.48846E-03
 0.26729996E+02  0.12069E-02
 0.26779997E+02  0.17951E-02
 0.26829996E+02  0.17570E-02
 0.26879995E+02  0.11015E-02
 0.26929996E+02  0.41160E-03
 0.26979996E+02  0.12787E-03
 0.27029997E+02 -0.37477E-03
 0.27079996E+02 -0.10876E-02
 0.27129995E+02 -0.13399E-02
 0.27179996E+02 -0.11273E-02
 0.27229996E+02 -0.93336E-03
 0.27279997E+02 -0.22618E-03
 0.27329996E+02  0.63365E-03
 0.27379995E+02  0.10832E-02
 0.27429996E+02  0.13407E-02
 0.27479996E+02  0.12202E-02
 0.27529997E+02  0.10570E-02
 0.27579996E+02  0.56398E-03
 0.27629995E+02 -0.24949E-03
 0.27679996E+02 -0.76529E-03
 0.27729996E+02 -0.10679E-02
 0.27779997E+02 -0.12015E-02
 0.27829996E+02 -0.13608E-02
 0.27879995E+02 -0.13853E-02
 0.27929996E+02 -0.93972E-03
 0.27979996E+02 -0.77046E-03
 0.28029997E+02 -0.47190E-03
 0.28079996E+02  0.50226E-03
 0.28129995E+02  0.78696E-03
 0.28179996E+02  0.52866E-03
 0.28229996E+02  0.77295E-03
 0.28279997E+02  0.10324E-02
 0.28329996E+02  0.88346E-03
 0.28379995E+02  0.55543E-03
 0.28429996E+02  0.46163E-04
 0.28479996E+02 -0.37901E-03
 0.28529997E+02 -0.50993E-03
 0.28579996E+02 -0.12055E-03
 0.28629995E+02  0.27614E-03
 0.28679996E+02  0.12105E-03
 0.28729996E+02  0.18448E-03
 0.28779997E+02  0.24791E-03
 0.28829996E+02  0.42466E-03
 0.28879995E+02  0.47041E-03
 0.28929996E+02 -0.16233E-04
 0.28979996E+02 -0.37423E-03
 0.29029997E+02 -0.81269E-03
 0.29079996E+02 -0.10439E-02
 0.29129995E+02 -0.92592E-03
 0.29179996E+02 -0.68513E-03
 0.29229996E+02 -0.56547E-03
 0.29279997E+02 -0.42552E-03
 0.29329996E+02 -0.11913E-03
 0.29379995E+02  0.14361E-03
 0.29429996E+02  0.33186E-03
 0.29479996E+02  0.27909E-03
 0.29529997E+02  0.69446E-03
 0.29579996E+02  0.10645E-02
 0.29629995E+02  0.10071E-02
 0.29679996E+02  0.10524E-02
 0.29729996E+02  0.88539E-03
 0.29779997E+02  0.67675E-03
 0.29829996E+02  0.29225E-03
 0.29879995E+02  0.13919E-04
 0.29929996E+02 -0.17156E-03
 0.29979996E+02 -0.44337E-03
 0.30029997E+02 -0.29913E-03
 0.30079996E+02 -0.41026E-03
 0.30129995E+02 -0.57874E-03
 0.30179996E+02 -0.53574E-03
 0.30229996E+02 -0.57788E-03
 0.30279997E+02 -0.46485E-03
 0.30329996E+02 -0.27243E-03
 0.30379995E+02  0.71502E-04
 0.30429996E+02 -0.10334E-03
 0.30479996E+02 -0.58974E-03
 0.30529997E+02 -0.65177E-03
 0.30579996E+02 -0.57754E-03
 0.30629995E+02 -0.86689E-04
 0.30679996E+02  0.33731E-03
 0.30729996E+02  0.14375E-03
 0.30779997E+02 -0.26029E-03
 0.30829996E+02 -0.26847E-03
 0.30879995E+02  0.35047E-03
 0.30929996E+02  0.70539E-03
 0.30979996E+02  0.77229E-03
 0.31029997E+02  0.82668E-03
 0.31079996E+02  0.61795E-03
 0.31129995E+02  0.53923E-03
 0.31179996E+02  0.51729E-03
 0.31229996E+02  0.47905E-04
 0.31279997E+02 -0.37541E-03
 0.31329996E+02 -0.45168E-03
 0.31379995E+02 -0.47671E-03
 0.31429996E+02 -0.40401E-03
 0.31479996E+02 -0.43758E-03
 0.31529997E+02 -0.14103E-03
 0.31579996E+02  0.39061E-03
 0.31629995E+02  0.44531E-03
 0.31679996E+02  0.18135E-03
 0.31729996E+02 -0.23537E-04
 0.31779997E+02  0.20893E-03
 0.31829996E+02  0.45038E-03
 0.31879995E+02  0.37310E-03
 0.31929996E+02 -0.25058E-04
 0.31979996E+02 -0.51459E-03
 0.32029995E+02 -0.70372E-03
 0.32079998E+02 -0.89215E-03
 0.32129997E+02 -0.80766E-03
 0.32179996E+02 -0.45239E-03
 0.32229996E+02 -0.45137E-03
 0.32279995E+02 -0.44858E-03
 0.32329998E+02  0.25106E-04
 0.32379997E+02  0.45902E-03
 0.32429996E+02  0.25482E-03
 0.32479996E+02  0.23931E-03
 0.32529995E+02  0.71347E-03
 0.32579998E+02  0.79193E-03
 0.32629997E+02  0.87213E-03
 0.32679996E+02  0.85365E-03
 0.32729996E+02  0.40379E-03
 0.32779995E+02  0.31403E-04
 0.32829998E+02 -0.28048E-03
 0.32879997E+02 -0.21319E-03
 0.32929996E+02 -0.23513E-03
 0.32979996E+02 -0.54684E-03
 0.33029995E+02 -0.37822E-03
 0.33079998E+02 -0.78783E-04
 0.33129997E+02 -0.37925E-04
 0.33179996E+02 -0.22596E-03
 0.33229996E+02 -0.19448E-03
 0.33279995E+02 -0.24830E-03
 0.33329998E+02 -0.48344E-03
 0.33379997E+02 -0.17892E-03
 0.33429996E+02 -0.47488E-04
 0.33479996E+02 -0.16941E-03
 0.33529995E+02  0.50755E-04
 0.33579998E+02  0.53484E-03
 0.33629997E+02  0.81124E-03
 0.33679996E+02  0.81538E-03
 0.33729996E+02  0.77829E-03
 0.33779995E+02  0.28204E-03
 0.33829998E+02 -0.17649E-03
 0.33879997E+02 -0.88696E-04
 0.33929996E+02 -0.19183E-03
 0.33979996E+02 -0.45694E-03
 0.34029995E+02 -0.34424E-03
 0.34079998E+02 -0.31640E-03
 0.34129997E+02 -0.38444E-03
 0.34179996E+02 -0.33342E-03
 0.34229996E+02 -0.15214E-03
 0.34279995E+02  0.19356E-03
 0.34329998E+02  0.23702E-03
 0.34379997E+02  0.12301E-03
 0.34429996E+02 -0.79478E-04
 0.34479996E+02 -0.11813E-03
 0.34529995E+02  0.15592E-03
 0.34579998E+02  0.67663E-04
 0.34629997E+02 -0.20114E-04
 0.34679996E+02  0.35171E-04
 0.34729996E+02 -0.68290E-05
 0.34779995E+02 -0.55944E-04
 0.34829998E+02 -0.72067E-04
 0.34879997E+02  0.13968E-03
 0.34929996E+02  0.35792E-03
 0.34979996E+02  0.45867E-03
 0.35029995E+02  0.38478E-03
 0.35079998E+02  0.21006E-03
 0.35129997E+02 -0.13494E-03
 0.35179996E+02 -0.61845E-03
 0.35229996E+02 -0.80025E-03
 0.35279995E+02 -0.79036E-03
 0.35329998E+02 -0.75763E-03
 0.35379997E+02 -0.61703E-03
 0.35429996E+02 -0.44276E-03
 0.35479996E+02 -0.40393E-03
 0.35529995E+02 -0.33281E-03
 0.35579998E+02 -0.73761E-04
 0.35629997E+02  0.18666E-03
 0.35679996E+02  0.35852E-03
 0.35729996E+02  0.85058E-03
 0.35779995E+02  0.11906E-02
 0.35829998E+02  0.87400E-03
 0.35879997E+02  0.50630E-03
 0.35929996E+02  0.28047E-03
 0.35979996E+02  0.55659E-03
 0.36029995E+02  0.82509E-03
 0.36079998E+02  0.73992E-03
 0.36129997E+02  0.68107E-03
 0.36179996E+02  0.21952E-03
 0.36229996E+02 -0.51499E-03
 0.36279995E+02 -0.12485E-02
 0.36329998E+02 -0.14804E-02
 0.36379997E+02 -0.13345E-02
 0.36429996E+02 -0.12927E-02
 0.36479996E+02 -0.76116E-03
 0.36529995E+02  0.16080E-03
 0.36579998E+02  0.15922E-02
 0.36629997E+02  0.21128E-02
 0.36679996E+02  0.11340E-02
 0.36729996E+02 -0.39846E-04
 0.36779995E+02 -0.15070E-02
 0.36829998E+02 -0.10712E-02
 0.36879997E+02  0.17790E-03
 0.36929996E+02  0.67397E-03
 0.36979996E+02 -0.64736E-03
 0.37029995E+02 -0.21546E-02
 0.37079998E+02  0.12234E-03
 0.37129997E+02  0.12568E-02
 0.37179996E+02  0.12144E-02
 0.37229996E+02  0.15311E-02
 0.37279995E+02  0.10764E-02
 0.37329998E+02  0.95327E-03
 0.37379997E+02  0.48891E-03
 0.37429996E+02  0.15203E-03
 0.37479996E+02 -0.14293E-03
 0.37529995E+02 -0.79784E-03
 0.37579998E+02 -0.19429E-02
 0.37629997E+02 -0.22439E-02
 0.37679996E+02 -0.20096E-02
 0.37729996E+02 -0.20903E-02
 0.37779995E+02 -0.91361E-03
 0.37829998E+02  0.53611E-03
 0.37879997E+02  0.49335E-03
 0.37929996E+02  0.22180E-03
 0.37979996E+02  0.41141E-03
 0.38029995E+02  0.45089E-03
 0.38079998E+02  0.10819E-02
 0.38129997E+02  0.13743E-02
 0.38179996E+02  0.78496E-03
 0.38229996E+02  0.17316E-03
 0.38279995E+02  0.13166E-03
 0.38329998E+02  0.84765E-03
 0.38379997E+02  0.18075E-02
 0.38429996E+02  0.27242E-02
 0.38479996E+02  0.25832E-02
 0.38529995E+02  0.17186E-02
 0.38579998E+02  0.91412E-03
 0.38629997E+02 -0.38551E-03
 0.38679996E+02 -0.23709E-02
 0.38729996E+02 -0.40271E-02
 0.38779995E+02 -0.44694E-02
 0.38829998E+02 -0.42731E-02
 0.38879997E+02 -0.30649E-02
 0.38929996E+02 -0.12538E-02
 0.38979996E+02  0.36587E-03
 0.39029995E+02  0.22601E-02
 0.39079998E+02  0.30832E-02
 0.39129997E+02  0.21867E-02
 0.39179996E+02  0.30134E-03
 0.39229996E+02 -0.12561E-02
 0.39279995E+02 -0.15032E-02
 0.39329998E+02 -0.10476E-02
 0.39379997E+02  0.16117E-03
 0.39429996E+02  0.62636E-03
 0.39479996E+02  0.33865E-03
 0.39529995E+02  0.14608E-02
 0.39579998E+02  0.22887E-02
 0.39629997E+02  0.18180E-02
 0.39679996E+02  0.11974E-02
 0.39729996E+02  0.77602E-03
 0.39779995E+02  0.12721E-02
 0.39829998E+02  0.19980E-02
 0.39879997E+02  0.11801E-02
 0.39929996E+02 -0.10726E-02
 0.39979996E+02 -0.29315E-02
 0.40029995E+02 -0.27464E-02
 0.40079998E+02 -0.19570E-02
 0.40129997E+02 -0.21249E-02
 0.40179996E+02 -0.19658E-02
 0.40229996E+02 -0.13276E-02
 0.40279995E+02 -0.59327E-03
 0.40329998E+02  0.14771E-03
 0.40379997E+02  0.65165E-03
 0.40429996E+02  0.87222E-03
 0.40479996E+02  0.12963E-02
 0.40529995E+02  0.25203E-02
 0.40579998E+02  0.31102E-02
 0.40629997E+02  0.30276E-02
 0.40679996E+02  0.32264E-02
 0.40729996E+02  0.26258E-02
 0.40779995E+02  0.13589E-02
 0.40829998E+02  0.22376E-03
 0.40879997E+02 -0.14859E-02
 0.40929996E+02 -0.35629E-02
 0.40979996E+02 -0.44241E-02
 0.41029995E+02 -0.33269E-02
 0.41079998E+02 -0.16476E-02
 0.41129997E+02 -0.86439E-03
 0.41179996E+02 -0.84000E-03
 0.41229996E+02 -0.84001E-03
 0.41279995E+02 -0.18915E-03
 0.41329998E+02  0.39026E-03
 0.41379997E+02  0.37318E-03
 0.41429996E+02 -0.34448E-03
 0.41479996E+02 -0.12744E-02
 0.41529995E+02 -0.12756E-02
 0.41579998E+02 -0.53339E-03
 0.41629997E+02  0.54798E-03
 0.41679996E+02  0.13360E-02
 0.41729996E+02  0.22166E-02
 0.41779995E+02  0.32423E-02
 0.41829998E+02  0.32413E-02
 0.41879997E+02  0.20531E-02
 0.41929996E+02  0.65066E-03
 0.41979996E+02  0.27918E-04
 0.42029995E+02 -0.48125E-03
 0.42079998E+02 -0.10083E-02
 0.42129997E+02 -0.11358E-02
 0.42179996E+02 -0.11594E-02
 0.42229996E+02 -0.10602E-02
 0.42279995E+02 -0.79289E-03
 0.42329998E+02 -0.13845E-03
 0.42379997E+02 -0.21101E-04
 0.42429996E+02 -0.74259E-03
 0.42479996E+02 -0.10050E-02
 0.42529995E+02 -0.72658E-03
 0.42579998E+02 -0.54573E-04
 0.42629997E+02  0.58560E-03
 0.42679996E+02  0.12516E-02
 0.42729996E+02  0.20240E-02
 0.42779995E+02  0.16504E-02
 0.42829998E+02  0.37781E-03
 0.42879997E+02 -0.76031E-03
 0.42929996E+02 -0.14441E-02
 0.42979996E+02 -0.18946E-02
 0.43029995E+02 -0.21236E-02
 0.43079998E+02 -0.21520E-02
 0.43129997E+02 -0.22319E-02
 0.43179996E+02 -0.16279E-02
 0.43229996E+02 -0.53400E-03
 0.43279995E+02  0.90040E-03
 0.43329998E+02  0.25604E-02
 0.43379997E+02  0.32443E-02
 0.43429996E+02  0.29265E-02
 0.43479996E+02  0.21672E-02
 0.43529995E+02  0.17471E-02
 0.43579998E+02  0.15774E-02
 0.43629997E+02  0.99447E-03
 0.43679996E+02  0.52164E-03
 0.43729996E+02  0.41267E-03
 0.43779995E+02  0.77892E-04
 0.43829998E+02 -0.59139E-03
 0.43879997E+02 -0.11404E-02
 0.43929996E+02 -0.14088E-02
 0.43979996E+02 -0.15340E-02
 0.44029995E+02 -0.16964E-02
 0.44079998E+02 -0.15497E-02
 0.44129997E+02 -0.10531E-02
 0.44179996E+02 -0.75809E-03
 0.44229996E+02 -0.38426E-03
 0.44279995E+02  0.54988E-04
 0.44329998E+02  0.79989E-05
 0.44379997E+02 -0.39132E-03
 0.44429996E+02 -0.75637E-03
 0.44479996E+02 -0.39290E-03
 0.44529995E+02  0.42167E-03
 0.44579998E+02  0.72394E-03
 0.44629997E+02  0.55349E-03
 0.44679996E+02  0.22505E-03
 0.44729996E+02  0.24855E-03
 0.44779995E+02  0.56523E-03
 0.44829998E+02  0.57137E-03
 0.44879997E+02  0.32570E-03
 0.44929996E+02  0.57979E-04
 0.44979996E+02 -0.44531E-04
 0.45029995E+02 -0.61930E-04
 0.45079998E+02 -0.38420E-04
 0.45129997E+02  0.17029E-03
 0.45179996E+02  0.15218E-03
 0.45229996E+02 -0.36698E-04
 0.45279995E+02  0.52656E-05
 0.45329998E+02  0.18612E-03
 0.45379997E+02  0.35896E-03
 0.45429996E+02  0.59689E-03
 0.45479996E+02  0.56761E-03
 0.45529995E+02 -0.15721E-03
 0.45579998E+02 -0.11004E-02
 0.45629997E+02 -0.16713E-02
 0.45679996E+02 -0.12463E-02
 0.45729996E+02  0.60311E-04
 0.45779995E+02  0.14438E-02
 0.45829998E+02  0.22398E-02
 0.45879997E+02  0.22172E-02
 0.45929996E+02  0.16826E-02
 0.45979996E+02  0.96712E-03
 0.46029995E+02  0.28161E-03
 0.46079998E+02 -0.89583E-03
 0.46129997E+02 -0.19484E-02
 0.46179996E+02 -0.22953E-02
 0.46229996E+02 -0.26267E-02
 0.46279995E+02 -0.27149E-02
 0.46329998E+02 -0.23487E-02
 0.46379997E+02 -0.17793E-02
 0.46429996E+02 -0.10436E-02
 0.46479996E+02 -0.34577E-03
 0.46529995E+02 -0.35172E-03
 0.46579998E+02 -0.51577E-03
 0.46629997E+02 -0.32227E-03
 0.46679996E+02 -0.43553E-03
 0.46729996E+02 -0.33484E-03
 0.46779995E+02  0.36386E-03
 0.46829998E+02  0.15434E-02
 0.46879997E+02  0.32195E-02
 0.46929996E+02  0.45663E-02
 0.46979996E+02  0.47462E-02
 0.47029995E+02  0.37121E-02
 0.47079998E+02  0.24243E-02
 0.47129997E+02  0.16904E-02
 0.47179996E+02  0.12988E-02
 0.47229996E+02  0.71778E-03
 0.47279995E+02 -0.25544E-04
 0.47329998E+02 -0.87029E-03
 0.47379997E+02 -0.18028E-02
 0.47429996E+02 -0.21078E-02
 0.47479996E+02 -0.19869E-02
 0.47529995E+02 -0.19654E-02
 0.47579998E+02 -0.20644E-02
 0.47629997E+02 -0.21146E-02
 0.47679996E+02 -0.17955E-02
 0.47729996E+02 -0.13100E-02
 0.47779995E+02 -0.63766E-03
 0.47829998E+02  0.57335E-04
 0.47879997E+02  0.37861E-03
 0.47929996E+02  0.52848E-03
 0.47979996E+02  0.81662E-03
 0.48029995E+02  0.12620E-02
 0.48079998E+02  0.15519E-02
 0.48129997E+02  0.16969E-02
 0.48179996E+02  0.17120E-02
 0.48229996E+02  0.13604E-02
 0.48279995E+02  0.85492E-03
 0.48329998E+02  0.12728E-03
 0.48379997E+02 -0.11166E-02
 0.48429996E+02 -0.24958E-02
 0.48479996E+02 -0.32782E-02
 0.48529995E+02 -0.32742E-02
 0.48579998E+02 -0.29236E-02
 0.48629997E+02 -0.25657E-02
 0.48679996E+02 -0.18109E-02
 0.48729996E+02 -0.47337E-03
 0.48779995E+02  0.87337E-03
 0.48829998E+02  0.19723E-02
 0.48879997E+02  0.24526E-02
 0.48929996E+02  0.20965E-02
 0.48979996E+02  0.11681E-02
 0.49029995E+02 -0.96220E-04
 0.49079998E+02 -0.88394E-03
 0.49129997E+02 -0.34386E-03
 0.49179996E+02  0.13302E-02
 0.49229996E+02  0.31211E-02
 0.49279995E+02  0.38228E-02
 0.49329998E+02  0.33099E-02
 0.49379997E+02  0.25066E-02
 0.49429996E+02  0.15549E-02
 0.49479996E+02  0.33524E-03
 0.49529995E+02 -0.78880E-03
 0.49579998E+02 -0.15665E-02
 0.49629997E+02 -0.23511E-02
 0.49679996E+02 -0.33257E-02
 0.49729996E+02 -0.39654E-02
 0.49779995E+02 -0.39973E-02
 0.49829998E+02 -0.34842E-02
 0.49879997E+02 -0.28001E-02
 0.49929996E+02 -0.19450E-02
 0.49979996E+02 -0.65229E-03
 0.50029995E+02  0.76325E-03
 0.50079998E+02  0.17890E-02
 0.50129997E+02  0.23928E-02
 0.50179996E+02  0.27242E-02
 0.50229996E+02  0.29203E-02
 0.50279995E+02  0.32337E-02
 0.50329998E+02  0.31525E-02
 0.50379997E+02  0.26665E-02
 0.50429996E+02  0.21697E-02
 0.50479996E+02  0.15336E-02
 0.50529995E+02  0.99485E-03
 0.50579998E+02  0.37665E-03
 0.50629997E+02 -0.58806E-03
 0.50679996E+02 -0.18426E-02
 0.50729996E+02 -0.30998E-02
 0.50779995E+02 -0.38293E-02
 0.50829998E+02 -0.39671E-02
 0.50879997E+02 -0.33154E-02
 0.50929996E+02 -0.20063E-02
 0.50979996E+02 -0.64146E-03
 0.51029995E+02  0.69301E-03
 0.51079998E+02  0.16406E-02
 0.51129997E+02  0.20235E-02
 0.51179996E+02  0.19881E-02
 0.51229996E+02  0.15444E-02
 0.51279995E+02  0.99476E-03
 0.51329998E+02  0.35447E-03
 0.51379997E+02 -0.40456E-03
 0.51429996E+02 -0.77460E-03
 0.51479996E+02 -0.34771E-03
 0.51529995E+02  0.33042E-03
 0.51579998E+02  0.86032E-03
 0.51629997E+02  0.14104E-02
 0.51679996E+02  0.14489E-02
 0.51729996E+02  0.83607E-03
 0.51779995E+02 -0.10812E-03
 0.51829998E+02 -0.13708E-02
 0.51879997E+02 -0.24533E-02
 0.51929996E+02 -0.26363E-02
 0.51979996E+02 -0.16021E-02
 0.52029995E+02 -0.22254E-03
 0.52079998E+02  0.36471E-03
 0.52129997E+02  0.48996E-03
 0.52179996E+02  0.48952E-03
 0.52229996E+02  0.17757E-03
 0.52279995E+02 -0.80196E-04
 0.52329998E+02  0.22480E-04
 0.52379997E+02  0.20551E-03
 0.52429996E+02  0.33090E-03
 0.52479996E+02  0.55912E-03
 0.52529995E+02  0.64198E-03
 0.52579998E+02  0.51680E-03
 0.52629997E+02  0.46205E-03
 0.52679996E+02  0.53327E-03
 0.52729996E+02  0.68867E-03
 0.52779995E+02  0.78972E-03
 0.52829998E+02  0.86487E-03
 0.52879997E+02  0.80602E-03
 0.52929996E+02  0.45820E-03
 0.52979996E+02  0.67928E-04
 0.53029995E+02 -0.35727E-03
 0.53079998E+02 -0.10945E-02
 0.53129997E+02 -0.20654E-02
 0.53179996E+02 -0.28508E-02
 0.53229996E+02 -0.30542E-02
 0.53279995E+02 -0.25497E-02
 0.53329998E+02 -0.13817E-02
 0.53379997E+02  0.30465E-03
 0.53429996E+02  0.17380E-02
 0.53479996E+02  0.22523E-02
 0.53529995E+02  0.20284E-02
 0.53579998E+02  0.14834E-02
 0.53629997E+02  0.10833E-02
 0.53679996E+02  0.96195E-03
 0.53729996E+02  0.10225E-02
 0.53779995E+02  0.11073E-02
 0.53829998E+02  0.87481E-03
 0.53879997E+02  0.47378E-03
 0.53929996E+02  0.28684E-03
 0.53979996E+02  0.35877E-03
 0.54029995E+02  0.27587E-03
 0.54079998E+02 -0.40994E-03
 0.54129997E+02 -0.12874E-02
 0.54179996E+02 -0.18715E-02
 0.54229996E+02 -0.21238E-02
 0.54279995E+02 -0.19123E-02
 0.54329998E+02 -0.13005E-02
 0.54379997E+02 -0.53375E-03
 0.54429996E+02  0.33268E-05
 0.54479996E+02  0.10876E-03
 0.54529995E+02 -0.12924E-03
 0.54579998E+02 -0.62852E-03
 0.54629997E+02 -0.89561E-03
 0.54679996E+02 -0.66457E-03
 0.54729996E+02 -0.16200E-03
 0.54779995E+02  0.36409E-03
 0.54829998E+02  0.88316E-03
 0.54879997E+02  0.14362E-02
 0.54929996E+02  0.17638E-02
 0.54979996E+02  0.17413E-02
 0.55029995E+02  0.12893E-02
 0.55079998E+02  0.64437E-03
 0.55129997E+02  0.17756E-03
 0.55179996E+02 -0.96180E-04
 0.55229996E+02 -0.81679E-04
 0.55279995E+02  0.41327E-04
 0.55329998E+02 -0.27337E-04
 0.55379997E+02 -0.20718E-03
 0.55429996E+02 -0.37025E-03
 0.55479996E+02 -0.48743E-03
 0.55529995E+02 -0.52030E-03
 0.55579998E+02 -0.57012E-03
 0.55629997E+02 -0.63198E-03
 0.55679996E+02 -0.64040E-03
 0.55729996E+02 -0.62217E-03
 0.55779995E+02 -0.35778E-03
 0.55829998E+02  0.23807E-03
 0.55879997E+02  0.98856E-03
 0.55929996E+02  0.15487E-02
 0.55979996E+02  0.17327E-02
 0.56029995E+02  0.16742E-02
 0.56079998E+02  0.13826E-02
 0.56129997E+02  0.88642E-03
 0.56179996E+02  0.26295E-03
 0.56229996E+02 -0.28212E-03
 0.56279995E+02 -0.68704E-03
 0.56329998E+02 -0.12561E-02
 0.56379997E+02 -0.19701E-02
 0.56429996E+02 -0.25479E-02
 0.56479996E+02 -0.25856E-02
 0.56529995E+02 -0.20001E-02
 0.56579998E+02 -0.11901E-02
 0.56629997E+02 -0.42662E-03
 0.56679996E+02  0.52032E-04
 0.56729996E+02  0.36508E-03
 0.56779995E+02  0.46425E-03
 0.56829998E+02  0.26069E-03
 0.56879997E+02  0.18534E-03
 0.56929996E+02  0.21298E-03
 0.56979996E+02  0.16979E-03
 0.57029995E+02  0.27785E-03
 0.57079998E+02  0.71544E-03
 0.57129997E+02  0.11593E-02
 0.57179996E+02  0.15468E-02
 0.57229996E+02  0.19282E-02
 0.57279995E+02  0.20207E-02
 0.57329998E+02  0.19321E-02
 0.57379997E+02  0.15186E-02
 0.57429996E+02  0.92901E-03
 0.57479996E+02  0.49591E-03
 0.57529995E+02 -0.32058E-04
 0.57579998E+02 -0.52301E-03
 0.57629997E+02 -0.70649E-03
 0.57679996E+02 -0.62168E-03
 0.57729996E+02 -0.56613E-03
 0.57779995E+02 -0.78527E-03
 0.57829998E+02 -0.12187E-02
 0.57879997E+02 -0.15891E-02
 0.57929996E+02 -0.15216E-02
 0.57979996E+02 -0.11102E-02
 0.58029995E+02 -0.67208E-03
 0.58079998E+02 -0.32897E-03
 0.58129997E+02 -0.31035E-03
 0.58179996E+02 -0.56035E-03
 0.58229996E+02 -0.77749E-03
 0.58279995E+02 -0.97069E-03
 0.58329998E+02 -0.97947E-03
 0.58379997E+02 -0.53060E-03
 0.58429996E+02  0.24848E-03
 0.58479996E+02  0.10082E-02
 0.58529995E+02  0.14543E-02
 0.58579998E+02  0.15711E-02
 0.58629997E+02  0.13924E-02
 0.58679996E+02  0.90475E-03
 0.58729996E+02  0.39859E-03
 0.58779995E+02  0.21969E-03
 0.58829998E+02  0.37392E-03
 0.58879997E+02  0.60312E-03
 0.58929996E+02  0.69048E-03
 0.58979996E+02  0.57551E-03
 0.59029995E+02  0.30288E-03
 0.59079998E+02 -0.61657E-04
 0.59129997E+02 -0.50379E-03
 0.59179996E+02 -0.82823E-03
 0.59229996E+02 -0.92118E-03
 0.59279995E+02 -0.88220E-03
 0.59329998E+02 -0.66498E-03
 0.59379997E+02 -0.27696E-03
 0.59429996E+02  0.14018E-03
 0.59479996E+02  0.38320E-03
 0.59529995E+02  0.32856E-03
 0.59579998E+02  0.10688E-03
 0.59629997E+02 -0.69138E-04
 0.59679996E+02 -0.20939E-03
 0.59729996E+02 -0.42868E-03
 0.59779995E+02 -0.53575E-03
 0.59829998E+02 -0.44510E-03
 0.59879997E+02 -0.42591E-03
 0.59929996E+02 -0.58248E-03
 0.59979996E+02 -0.87229E-03
 0.60029995E+02 -0.11348E-02
 0.60079998E+02 -0.10247E-02
 0.60129997E+02 -0.52009E-03
 0.60179996E+02 -0.18202E-05
 0.60229996E+02  0.42898E-03
 0.60279995E+02  0.10301E-02
 0.60329998E+02  0.17824E-02
 0.60379997E+02  0.24444E-02
 0.60429996E+02  0.28128E-02
 0.60479996E+02  0.26956E-02
 0.60529995E+02  0.21257E-02
 0.60579998E+02  0.13830E-02
 0.60629997E+02  0.51365E-03
 0.60679996E+02 -0.41174E-03
 0.60729996E+02 -0.10218E-02
 0.60779995E+02 -0.14079E-02
 0.60829998E+02 -0.15992E-02
 0.60879997E+02 -0.14649E-02
 0.60929996E+02 -0.14636E-02
 0.60979996E+02 -0.17492E-02
 0.61029995E+02 -0.19645E-02
 0.61079998E+02 -0.19728E-02
 0.61129997E+02 -0.19365E-02
 0.61179996E+02 -0.18670E-02
 0.61229996E+02 -0.15496E-02
 0.61279995E+02 -0.10242E-02
 0.61329998E+02 -0.37645E-03
 0.61379997E+02  0.26418E-03
 0.61429996E+02  0.63182E-03
 0.61479996E+02  0.76930E-03
 0.61529995E+02  0.90790E-03
 0.61579998E+02  0.11227E-02
 0.61629997E+02  0.12790E-02
 0.61679996E+02  0.12882E-02
 0.61729996E+02  0.12713E-02
 0.61779995E+02  0.13335E-02
 0.61829998E+02  0.14158E-02
 0.61879997E+02  0.14292E-02
 0.61929996E+02  0.13985E-02
 0.61979996E+02  0.12617E-02
 0.62029995E+02  0.93155E-03
 0.62079998E+02  0.57142E-03
 0.62129997E+02  0.17640E-03
 0.62179996E+02 -0.36567E-03
 0.62229996E+02 -0.85985E-03
 0.62279995E+02 -0.11276E-02
 0.62329998E+02 -0.11811E-02
 0.62379997E+02 -0.10497E-02
 0.62429996E+02 -0.70818E-03
 0.62479996E+02 -0.38484E-03
 0.62529995E+02 -0.21911E-03
 0.62579998E+02  0.96179E-05
 0.62629997E+02  0.24796E-03
 0.62679996E+02  0.37071E-03
 0.62729996E+02  0.43092E-03
 0.62779995E+02  0.51086E-03
 0.62829998E+02  0.44734E-03
 0.62879997E+02  0.21297E-03
 0.62929996E+02  0.73796E-04
 0.62979996E+02 -0.48726E-04
 0.63029995E+02 -0.11335E-04
 0.63079998E+02  0.65978E-04
 0.63129997E+02 -0.15526E-03
 0.63179996E+02 -0.41511E-03
 0.63229996E+02 -0.69206E-03
 0.63279995E+02 -0.10207E-02
 0.63329998E+02 -0.12577E-02
 0.63379997E+02 -0.13543E-02
 0.63429996E+02 -0.13235E-02
 0.63479996E+02 -0.11535E-02
 0.63529995E+02 -0.77541E-03
 0.63579998E+02 -0.13657E-03
 0.63629997E+02  0.68526E-03
 0.63679996E+02  0.13460E-02
 0.63729996E+02  0.16585E-02
 0.63779995E+02  0.16225E-02
 0.63829998E+02  0.14520E-02
 0.63879997E+02  0.12243E-02
 0.63929996E+02  0.80431E-03
 0.63979996E+02  0.42716E-03
 0.64029999E+02  0.27059E-03
 0.64079994E+02  0.32508E-03
 0.64129997E+02  0.45436E-03
 0.64180000E+02  0.55622E-03
 0.64229996E+02  0.54730E-03
 0.64279999E+02  0.25659E-03
 0.64329994E+02 -0.25215E-03
 0.64379997E+02 -0.79326E-03
 0.64430000E+02 -0.12240E-02
 0.64479996E+02 -0.15213E-02
 0.64529999E+02 -0.16462E-02
 0.64579994E+02 -0.15938E-02
 0.64629997E+02 -0.13894E-02
 0.64680000E+02 -0.92430E-03
 0.64729996E+02 -0.26096E-03
 0.64779999E+02  0.39171E-03
 0.64829994E+02  0.74794E-03
 0.64879997E+02  0.71632E-03
 0.64930000E+02  0.58726E-03
 0.64979996E+02  0.43771E-03
 0.65029999E+02  0.32153E-03
 0.65079994E+02  0.46848E-03
 0.65129997E+02  0.80492E-03
 0.65180000E+02  0.10031E-02
 0.65229996E+02  0.89360E-03
 0.65279999E+02  0.61074E-03
 0.65329994E+02  0.32240E-03
 0.65379997E+02  0.28065E-04
 0.65430000E+02 -0.34147E-03
 0.65479996E+02 -0.60964E-03
 0.65529999E+02 -0.68054E-03
 0.65579994E+02 -0.79435E-03
 0.65629997E+02 -0.95630E-03
 0.65680000E+02 -0.89398E-03
 0.65729996E+02 -0.55868E-03
 0.65779999E+02 -0.31011E-03
 0.65829994E+02 -0.22845E-03
 0.65879997E+02 -0.13410E-03
 0.65930000E+02 -0.12332E-04
 0.65979996E+02  0.22974E-03
 0.66029999E+02  0.47764E-03
 0.66079994E+02  0.60401E-03
 0.66129997E+02  0.63487E-03
 0.66180000E+02  0.50417E-03
 0.66229996E+02  0.24237E-03
 0.66279999E+02 -0.57718E-04
 0.66329994E+02 -0.30137E-03
 0.66379997E+02 -0.45219E-03
 0.66430000E+02 -0.43671E-03
 0.66479996E+02 -0.13292E-03
 0.66529999E+02  0.33360E-03
 0.66579994E+02  0.72940E-03
 0.66629997E+02  0.81391E-03
 0.66680000E+02  0.66698E-03
 0.66729996E+02  0.55165E-03
 0.66779999E+02  0.37951E-03
 0.66829994E+02  0.18102E-03
 0.66879997E+02  0.68645E-04
 0.66930000E+02 -0.12147E-03
 0.66979996E+02 -0.48058E-03
 0.67029999E+02 -0.91707E-03
 0.67079994E+02 -0.14085E-02
 0.67129997E+02 -0.17754E-02
 0.67180000E+02 -0.19036E-02
 0.67229996E+02 -0.18979E-02
 0.67279999E+02 -0.17057E-02
 0.67329994E+02 -0.12585E-02
 0.67379997E+02 -0.42663E-03
 0.67430000E+02  0.64210E-03
 0.67479996E+02  0.15926E-02
 0.67529999E+02  0.22695E-02
 0.67579994E+02  0.26320E-02
 0.67629997E+02  0.27179E-02
 0.67680000E+02  0.24344E-02
 0.67729996E+02  0.17563E-02
 0.67779999E+02  0.77549E-03
 0.67829994E+02 -0.30342E-03
 0.67879997E+02 -0.11696E-02
 0.67930000E+02 -0.16601E-02
 0.67979996E+02 -0.17157E-02
 0.68029999E+02 -0.13648E-02
 0.68079994E+02 -0.66380E-03
 0.68129997E+02  0.15854E-03
 0.68180000E+02  0.81701E-03
 0.68229996E+02  0.12329E-02
 0.68279999E+02  0.13334E-02
 0.68329994E+02  0.11204E-02
 0.68379997E+02  0.66732E-03
 0.68430000E+02  0.69848E-04
 0.68479996E+02 -0.47393E-03
 0.68529999E+02 -0.93562E-03
 0.68579994E+02 -0.12719E-02
 0.68629997E+02 -0.13291E-02
 0.68680000E+02 -0.12242E-02
 0.68729996E+02 -0.10380E-02
 0.68779999E+02 -0.76910E-03
 0.68829994E+02 -0.42660E-03
 0.68879997E+02  0.33288E-04
 0.68930000E+02  0.48770E-03
 0.68979996E+02  0.93413E-03
 0.69029999E+02  0.13288E-02
 0.69079994E+02  0.14948E-02
 0.69129997E+02  0.14935E-02
 0.69180000E+02  0.12861E-02
 0.69229996E+02  0.79392E-03
 0.69279999E+02  0.78233E-04
 0.69329994E+02 -0.70342E-03
 0.69379997E+02 -0.12491E-02
 0.69430000E+02 -0.14996E-02
 0.69479996E+02 -0.16128E-02
 0.69529999E+02 -0.16167E-02
 0.69579994E+02 -0.13437E-02
 0.69629997E+02 -0.81844E-03
 0.69680000E+02 -0.35363E-03
 0.69729996E+02  0.13323E-03
 0.69779999E+02  0.79292E-03
 0.69829994E+02  0.14004E-02
 0.69879997E+02  0.17519E-02
 0.69930000E+02  0.18137E-02
 0.69979996E+02  0.16480E-02
 0.70029999E+02  0.12243E-02
 0.70079994E+02  0.65790E-03
 0.70129997E+02  0.10474E-03
 0.70180000E+02 -0.47713E-03
 0.70229996E+02 -0.98606E-03
 0.70279999E+02 -0.13506E-02
 0.70329994E+02 -0.15592E-02
 0.70379997E+02 -0.15377E-02
 0.70430000E+02 -0.12437E-02
 0.70479996E+02 -0.76696E-03
 0.70529999E+02 -0.37813E-03
 0.70579994E+02 -0.11097E-03
 0.70629997E+02  0.22190E-03
 0.70680000E+02  0.62024E-03
 0.70729996E+02  0.98865E-03
 0.70779999E+02  0.12055E-02
 0.70829994E+02  0.11516E-02
 0.70879997E+02  0.80794E-03
 0.70930000E+02  0.28352E-03
 0.70979996E+02 -0.19637E-03
 0.71029999E+02 -0.53989E-03
 0.71079994E+02 -0.72132E-03
 0.71129997E+02 -0.73989E-03
 0.71180000E+02 -0.64511E-03
 0.71229996E+02 -0.47442E-03
 0.71279999E+02 -0.32447E-03
 0.71329994E+02 -0.22810E-03
 0.71379997E+02 -0.16354E-03
 0.71430000E+02 -0.85756E-04
 0.71479996E+02 -0.48212E-04
 0.71529999E+02  0.23263E-04
 0.71579994E+02  0.23014E-03
 0.71629997E+02  0.36017E-03
 0.71680000E+02  0.37287E-03
 0.71729996E+02  0.38246E-03
 0.71779999E+02  0.36070E-03
 0.71829994E+02  0.18669E-03
 0.71879997E+02 -0.10190E-03
 0.71930000E+02 -0.24248E-03
 0.71979996E+02 -0.19642E-03
 0.72029999E+02 -0.11315E-03
 0.72079994E+02  0.42557E-04
 0.72129997E+02  0.25866E-03
 0.72180000E+02  0.41276E-03
 0.72229996E+02  0.49921E-03
 0.72279999E+02  0.52670E-03
 0.72329994E+02  0.52652E-03
 0.72379997E+02  0.50120E-03
 0.72430000E+02  0.39530E-03
 0.72479996E+02  0.26652E-03
 0.72529999E+02  0.14161E-03
 0.72579994E+02 -0.11247E-04
 0.72629997E+02 -0.14431E-03
 0.72680000E+02 -0.26752E-03
 0.72729996E+02 -0.38757E-03
 0.72779999E+02 -0.46709E-03
 0.72829994E+02 -0.54739E-03
 0.72879997E+02 -0.66764E-03
 0.72930000E+02 -0.70457E-03
 0.72979996E+02 -0.58250E-03
 0.73029999E+02 -0.50151E-03
 0.73079994E+02 -0.53070E-03
 0.73129997E+02 -0.51034E-03
 0.73180000E+02 -0.34244E-03
 0.73229996E+02 -0.14041E-03
 0.73279999E+02 -0.66303E-04
 0.73329994E+02 -0.20630E-04
 0.73379997E+02  0.11625E-03
 0.73430000E+02  0.31460E-03
 0.73479996E+02  0.53125E-03
 0.73529999E+02  0.72844E-03
 0.73579994E+02  0.83736E-03
 0.73629997E+02  0.84303E-03
 0.73680000E+02  0.80975E-03
 0.73729996E+02  0.69946E-03
 0.73779999E+02  0.51120E-03
 0.73829994E+02  0.34132E-03
 0.73879997E+02  0.20763E-03
 0.73930000E+02  0.13366E-03
 0.73979996E+02  0.18774E-03
 0.74029999E+02  0.35151E-03
 0.74079994E+02  0.49471E-03
 0.74129997E+02  0.45211E-03
 0.74180000E+02  0.18078E-03
 0.74229996E+02 -0.14372E-03
 0.74279999E+02 -0.39443E-03
 0.74329994E+02 -0.63068E-03
 0.74379997E+02 -0.87109E-03
 0.74430000E+02 -0.10952E-02
 0.74479996E+02 -0.12730E-02
 0.74529999E+02 -0.12846E-02
 0.74579994E+02 -0.11110E-02
 0.74629997E+02 -0.82027E-03
 0.74680000E+02 -0.44657E-03
 0.74729996E+02 -0.20080E-04
 0.74779999E+02  0.47748E-03
 0.74829994E+02  0.97644E-03
 0.74879997E+02  0.13237E-02
 0.74930000E+02  0.14095E-02
 0.74979996E+02  0.12030E-02
 0.75029999E+02  0.84196E-03
 0.75079994E+02  0.53218E-03
 0.75129997E+02  0.27440E-03
 0.75180000E+02 -0.91544E-04
 0.75229996E+02 -0.51151E-03
 0.75279999E+02 -0.83530E-03
 0.75329994E+02 -0.10378E-02
 0.75379997E+02 -0.10739E-02
 0.75430000E+02 -0.93403E-03
 0.75479996E+02 -0.68106E-03
 0.75529999E+02 -0.34729E-03
 0.75579994E+02  0.57470E-04
 0.75629997E+02  0.41729E-03
 0.75680000E+02  0.68313E-03
 0.75729996E+02  0.95617E-03
 0.75779999E+02  0.11384E-02
 0.75829994E+02  0.10650E-02
 0.75879997E+02  0.76006E-03
 0.75930000E+02  0.38484E-03
 0.75979996E+02  0.35210E-04
 0.76029999E+02 -0.34679E-03
 0.76079994E+02 -0.74770E-03
 0.76129997E+02 -0.10948E-02
 0.76180000E+02 -0.13073E-02
 0.76229996E+02 -0.13512E-02
 0.76279999E+02 -0.12212E-02
 0.76329994E+02 -0.89762E-03
 0.76379997E+02 -0.55763E-03
 0.76430000E+02 -0.33811E-03
 0.76479996E+02 -0.16168E-03
 0.76529999E+02  0.68862E-04
 0.76579994E+02  0.36380E-03
 0.76629997E+02  0.67569E-03
 0.76680000E+02  0.10148E-02
 0.76729996E+02  0.12377E-02
 0.76779999E+02  0.12064E-02
 0.76829994E+02  0.94152E-03
 0.76879997E+02  0.51659E-03
 0.76930000E+02  0.17185E-03
 0.76979996E+02 -0.24954E-04
 0.77029999E+02 -0.20368E-03
 0.77079994E+02 -0.42550E-03
 0.77129997E+02 -0.70175E-03
 0.77180000E+02 -0.93242E-03
 0.77229996E+02 -0.10063E-02
 0.77279999E+02 -0.87679E-03
 0.77329994E+02 -0.55732E-03
 0.77379997E+02 -0.12877E-03
 0.77430000E+02  0.35860E-03
 0.77479996E+02  0.82023E-03
 0.77529999E+02  0.11151E-02
 0.77579994E+02  0.11631E-02
 0.77629997E+02  0.98505E-03
 0.77680000E+02  0.72211E-03
 0.77729996E+02  0.47172E-03
 0.77779999E+02  0.24231E-03
 0.77829994E+02  0.63716E-04
 0.77879997E+02 -0.49499E-04
 0.77930000E+02 -0.12424E-03
 0.77979996E+02 -0.26883E-03
 0.78029999E+02 -0.52781E-03
 0.78079994E+02 -0.71383E-03
 0.78129997E+02 -0.70539E-03
 0.78180000E+02 -0.59689E-03
 0.78229996E+02 -0.42787E-03
 0.78279999E+02 -0.24435E-03
 0.78329994E+02 -0.12440E-03
 0.78379997E+02 -0.66288E-04
 0.78430000E+02 -0.11839E-03
 0.78479996E+02 -0.18459E-03
 0.78529999E+02 -0.93305E-04
 0.78579994E+02  0.11213E-03
 0.78629997E+02  0.32890E-03
 0.78680000E+02  0.51399E-03
 0.78729996E+02  0.68751E-03
 0.78779999E+02  0.77361E-03
 0.78829994E+02  0.70842E-03
 0.78879997E+02  0.55899E-03
 0.78930000E+02  0.36592E-03
 0.78979996E+02  0.16432E-03
 0.79029999E+02 -0.48031E-04
 0.79079994E+02 -0.26934E-03
 0.79129997E+02 -0.53235E-03
 0.79180000E+02 -0.73258E-03
 0.79229996E+02 -0.71366E-03
 0.79279999E+02 -0.62170E-03
 0.79329994E+02 -0.48932E-03
 0.79379997E+02 -0.23508E-03
 0.79430000E+02  0.61091E-04
 0.79479996E+02  0.32754E-03
 0.79529999E+02  0.52399E-03
 0.79579994E+02  0.58808E-03
 0.79629997E+02  0.48667E-03
 0.79680000E+02  0.20434E-03
 0.79729996E+02 -0.18527E-03
 0.79779999E+02 -0.49575E-03
 0.79829994E+02 -0.67228E-03
 0.79879997E+02 -0.70980E-03
 0.79930000E+02 -0.58031E-03
 0.79979996E+02 -0.34048E-03
 0.80029999E+02 -0.47396E-04
 0.80079994E+02  0.32043E-03
 0.80129997E+02  0.70308E-03
 0.80180000E+02  0.96736E-03
 0.80229996E+02  0.11231E-02
 0.80279999E+02  0.11838E-02
 0.80329994E+02  0.10778E-02
 0.80379997E+02  0.77113E-03
 0.80430000E+02  0.34626E-03
 0.80479996E+02 -0.11666E-03
 0.80529999E+02 -0.51876E-03
 0.80579994E+02 -0.78853E-03
 0.80629997E+02 -0.10023E-02
 0.80680000E+02 -0.11399E-02
 0.80729996E+02 -0.11466E-02
 0.80779999E+02 -0.10647E-02
 0.80829994E+02 -0.89900E-03
 0.80879997E+02 -0.61342E-03
 0.80930000E+02 -0.26566E-03
 0.80979996E+02  0.71969E-04
 0.81029999E+02  0.36687E-03
 0.81079994E+02  0.48583E-03
 0.81129997E+02  0.40508E-03
 0.81180000E+02  0.28163E-03
 0.81229996E+02  0.18715E-03
 0.81279999E+02  0.10744E-03
 0.81329994E+02  0.60844E-04
 0.81379997E+02  0.51347E-04
 0.81430000E+02  0.44439E-04
 0.81479996E+02  0.64832E-04
 0.81529999E+02  0.11770E-03
 0.81579994E+02  0.14787E-03
 0.81629997E+02  0.16126E-03
 0.81680000E+02  0.15648E-03
 0.81729996E+02  0.11165E-03
 0.81779999E+02  0.28345E-04
 0.81829994E+02 -0.76337E-04
 0.81879997E+02 -0.18238E-03
 0.81930000E+02 -0.30718E-03
 0.81979996E+02 -0.40072E-03
 0.82029999E+02 -0.39534E-03
 0.82079994E+02 -0.27241E-03
 0.82129997E+02 -0.64538E-04
 0.82180000E+02  0.12507E-03
 0.82229996E+02  0.24960E-03
 0.82279999E+02  0.29816E-03
 0.82329994E+02  0.27959E-03
 0.82379997E+02  0.23659E-03
 0.82430000E+02  0.21770E-03
 0.82479996E+02  0.22120E-03
 0.82529999E+02  0.19261E-03
 0.82579994E+02  0.14810E-03
 0.82629997E+02  0.87542E-04
 0.82680000E+02 -0.14245E-04
 0.82729996E+02 -0.11328E-03
 0.82779999E+02 -0.19795E-03
 0.82829994E+02 -0.23913E-03
 0.82879997E+02 -0.19556E-03
 0.82930000E+02 -0.78173E-04
 0.82979996E+02  0.10332E-03
 0.83029999E+02  0.25228E-03
 0.83079994E+02  0.33514E-03
 0.83129997E+02  0.45610E-03
 0.83180000E+02  0.61615E-03
 0.83229996E+02  0.69003E-03
 0.83279999E+02  0.58109E-03
 0.83329994E+02  0.38584E-03
 0.83379997E+02  0.21049E-03
 0.83430000E+02  0.29986E-04
 0.83479996E+02 -0.12224E-03
 0.83529999E+02 -0.25098E-03
 0.83579994E+02 -0.37458E-03
 0.83629997E+02 -0.46905E-03
 0.83680000E+02 -0.59041E-03
 0.83729996E+02 -0.69839E-03
 0.83779999E+02 -0.69068E-03
 0.83829994E+02 -0.55801E-03
 0.83879997E+02 -0.38414E-03
 0.83930000E+02 -0.25244E-03
 0.83979996E+02 -0.12585E-03
 0.84029999E+02 -0.13625E-04
 0.84079994E+02  0.24214E-04
 0.84129997E+02  0.19346E-04
 0.84180000E+02  0.28173E-04
 0.84229996E+02  0.16932E-04
 0.84279999E+02 -0.21959E-04
 0.84329994E+02 -0.26181E-05
 0.84379997E+02  0.71643E-04
 0.84430000E+02  0.17718E-03
 0.84479996E+02  0.29071E-03
 0.84529999E+02  0.41454E-03
 0.84579994E+02  0.61250E-03
 0.84629997E+02  0.76803E-03
 0.84680000E+02  0.75501E-03
 0.84729996E+02  0.59942E-03
 0.84779999E+02  0.34894E-03
 0.84829994E+02  0.72745E-04
 0.84879997E+02 -0.21083E-03
 0.84930000E+02 -0.45962E-03
 0.84979996E+02 -0.67554E-03
 0.85029999E+02 -0.90770E-03
 0.85079994E+02 -0.10415E-02
 0.85129997E+02 -0.10298E-02
 0.85180000E+02 -0.90399E-03
 0.85229996E+02 -0.64853E-03
 0.85279999E+02 -0.28336E-03
 0.85329994E+02  0.16659E-03
 0.85379997E+02  0.61396E-03
 0.85430000E+02  0.99248E-03
 0.85479996E+02  0.12703E-02
 0.85529999E+02  0.13897E-02
 0.85579994E+02  0.13397E-02
 0.85629997E+02  0.11402E-02
 0.85680000E+02  0.87586E-03
 0.85729996E+02  0.54817E-03
 0.85779999E+02  0.11703E-03
 0.85829994E+02 -0.33338E-03
 0.85879997E+02 -0.73146E-03
 0.85930000E+02 -0.10252E-02
 0.85979996E+02 -0.11975E-02
 0.86029999E+02 -0.12645E-02
 0.86079994E+02 -0.12061E-02
 0.86129997E+02 -0.10162E-02
 0.86180000E+02 -0.77873E-03
 0.86229996E+02 -0.55172E-03
 0.86279999E+02 -0.24056E-03
 0.86329994E+02  0.15047E-03
 0.86379997E+02  0.45813E-03
 0.86430000E+02  0.60221E-03
 0.86479996E+02  0.60190E-03
 0.86529999E+02  0.48758E-03
 0.86579994E+02  0.29543E-03
 0.86629997E+02  0.14318E-03
 0.86680000E+02  0.73779E-04
 0.86729996E+02  0.69385E-05
 0.86779999E+02 -0.16629E-04
 0.86829994E+02 -0.54759E-05
 0.86879997E+02 -0.11334E-04
 0.86930000E+02 -0.32647E-05
 0.86979996E+02  0.21478E-05
 0.87029999E+02 -0.20230E-04
 0.87079994E+02 -0.11279E-03
 0.87129997E+02 -0.18627E-03
 0.87180000E+02 -0.10701E-03
 0.87229996E+02  0.53311E-04
 0.87279999E+02  0.20747E-03
 0.87329994E+02  0.34534E-03
 0.87379997E+02  0.48244E-03
 0.87430000E+02  0.57352E-03
 0.87479996E+02  0.56059E-03
 0.87529999E+02  0.44701E-03
 0.87579994E+02  0.22465E-03
 0.87629997E+02 -0.43164E-04
 0.87680000E+02 -0.27016E-03
 0.87729996E+02 -0.46527E-03
 0.87779999E+02 -0.62362E-03
 0.87829994E+02 -0.67651E-03
 0.87879997E+02 -0.60592E-03
 0.87930000E+02 -0.43312E-03
 0.87979996E+02 -0.20118E-03
 0.88029999E+02  0.49023E-05
 0.88079994E+02  0.10400E-03
 0.88129997E+02  0.90803E-04
 0.88180000E+02  0.34681E-04
 0.88229996E+02 -0.63716E-04
 0.88279999E+02 -0.14981E-03
 0.88329994E+02 -0.13563E-03
 0.88379997E+02 -0.33038E-05
 0.88430000E+02  0.23754E-03
 0.88479996E+02  0.48830E-03
 0.88529999E+02  0.68506E-03
 0.88579994E+02  0.79637E-03
 0.88629997E+02  0.82178E-03
 0.88680000E+02  0.78557E-03
 0.88729996E+02  0.67868E-03
 0.88779999E+02  0.51890E-03
 0.88829994E+02  0.29830E-03
 0.88879997E+02  0.33074E-04
 0.88930000E+02 -0.22891E-03
 0.88979996E+02 -0.46322E-03
 0.89029999E+02 -0.63573E-03
 0.89079994E+02 -0.74406E-03
 0.89129997E+02 -0.79487E-03
 0.89180000E+02 -0.80283E-03
 0.89229996E+02 -0.77553E-03
 0.89279999E+02 -0.68848E-03
 0.89329994E+02 -0.60616E-03
 0.89379997E+02 -0.53400E-03
 0.89430000E+02 -0.37064E-03
 0.89479996E+02 -0.13661E-03
 0.89529999E+02  0.10178E-03
 0.89579994E+02  0.32571E-03
 0.89629997E+02  0.49911E-03
 0.89680000E+02  0.59843E-03
 0.89729996E+02  0.62632E-03
 0.89779999E+02  0.60357E-03
 0.89829994E+02  0.56835E-03
 0.89879997E+02  0.47793E-03
 0.89930000E+02  0.33682E-03
 0.89979996E+02  0.21468E-03
 0.90029999E+02  0.71492E-04
 0.90079994E+02 -0.54077E-04
 0.90129997E+02 -0.85475E-04
 0.90180000E+02 -0.99388E-04
 0.90229996E+02 -0.14580E-03
 0.90279999E+02 -0.17355E-03
 0.90329994E+02 -0.17478E-03
 0.90379997E+02 -0.15505E-03
 0.90430000E+02 -0.82452E-04
 0.90479996E+02  0.29824E-04
 0.90529999E+02  0.10422E-03
 0.90579994E+02  0.63776E-04
 0.90629997E+02 -0.38095E-04
 0.90680000E+02 -0.12558E-03
 0.90729996E+02 -0.22124E-03
 0.90779999E+02 -0.34593E-03
 0.90829994E+02 -0.49589E-03
 0.90879997E+02 -0.60443E-03
 0.90930000E+02 -0.58378E-03
 0.90979996E+02 -0.43904E-03
 0.91029999E+02 -0.19244E-03
 0.91079994E+02  0.10893E-03
 0.91129997E+02  0.35179E-03
 0.91180000E+02  0.50975E-03
 0.91229996E+02  0.58732E-03
 0.91279999E+02  0.60279E-03
 0.91329994E+02  0.60343E-03
 0.91379997E+02  0.51331E-03
 0.91430000E+02  0.31219E-03
 0.91479996E+02  0.10095E-03
 0.91529999E+02 -0.79216E-04
 0.91579994E+02 -0.21689E-03
 0.91629997E+02 -0.30495E-03
 0.91680000E+02 -0.33037E-03
 0.91729996E+02 -0.30678E-03
 0.91779999E+02 -0.29609E-03
 0.91829994E+02 -0.26744E-03
 0.91879997E+02 -0.17289E-03
 0.91930000E+02 -0.57455E-04
 0.91979996E+02  0.20636E-04
 0.92029999E+02  0.35946E-04
 0.92079994E+02  0.47317E-04
 0.92129997E+02  0.10510E-03
 0.92180000E+02  0.17740E-03
 0.92229996E+02  0.21623E-03
 0.92279999E+02  0.20259E-03
 0.92329994E+02  0.19870E-03
 0.92379997E+02  0.22224E-03
 0.92430000E+02  0.18425E-03
 0.92479996E+02  0.67309E-04
 0.92529999E+02 -0.70081E-04
 0.92579994E+02 -0.18970E-03
 0.92629997E+02 -0.24668E-03
 0.92680000E+02 -0.21639E-03
 0.92729996E+02 -0.16007E-03
 0.92779999E+02 -0.14148E-03
 0.92829994E+02 -0.15633E-03
 0.92879997E+02 -0.20121E-03
 0.92930000E+02 -0.26587E-03
 0.92979996E+02 -0.28984E-03
 0.93029999E+02 -0.24400E-03
 0.93079994E+02 -0.15727E-03
 0.93129997E+02 -0.84114E-04
 0.93180000E+02 -0.35967E-04
 0.93229996E+02  0.54116E-04
 0.93279999E+02  0.16786E-03
 0.93329994E+02  0.25187E-03
 0.93379997E+02  0.35586E-03
 0.93430000E+02  0.47712E-03
 0.93479996E+02  0.52843E-03
 0.93529999E+02  0.48155E-03
 0.93579994E+02  0.36403E-03
 0.93629997E+02  0.20849E-03
 0.93680000E+02  0.55489E-04
 0.93729996E+02 -0.90133E-04
 0.93779999E+02 -0.19199E-03
 0.93829994E+02 -0.16073E-03
 0.93879997E+02 -0.34553E-04
 0.93930000E+02  0.78634E-04
 0.93979996E+02  0.16061E-03
 0.94029999E+02  0.20090E-03
 0.94079994E+02  0.14027E-03
 0.94129997E+02 -0.66354E-04
 0.94180000E+02 -0.36764E-03
 0.94229996E+02 -0.64005E-03
 0.94279999E+02 -0.82252E-03
 0.94329994E+02 -0.91085E-03
 0.94379997E+02 -0.86736E-03
 0.94430000E+02 -0.67851E-03
 0.94479996E+02 -0.40534E-03
 0.94529999E+02 -0.61189E-04
 0.94579994E+02  0.32970E-03
 0.94629997E+02  0.64319E-03
 0.94680000E+02  0.81881E-03
 0.94729996E+02  0.87791E-03
 0.94779999E+02  0.86010E-03
 0.94829994E+02  0.84346E-03
 0.94879997E+02  0.83135E-03
 0.94930000E+02  0.75754E-03
 0.94979996E+02  0.62807E-03
 0.95029999E+02  0.47587E-03
 0.95079994E+02  0.31417E-03
 0.95129997E+02  0.13551E-03
 0.95180000E+02 -0.34543E-04
 0.95229996E+02 -0.18010E-03
 0.95279999E+02 -0.33674E-03
 0.95329994E+02 -0.48755E-03
 0.95379997E+02 -0.63037E-03
 0.95430000E+02 -0.73353E-03
 0.95479996E+02 -0.75969E-03
 0.95529999E+02 -0.76668E-03
 0.95579994E+02 -0.76726E-03
 0.95629997E+02 -0.75349E-03
 0.95680000E+02 -0.71387E-03
 0.95729996E+02 -0.57728E-03
 0.95779999E+02 -0.32991E-03
 0.95829994E+02 -0.29676E-04
 0.95879997E+02  0.31355E-03
 0.95930000E+02  0.69370E-03
 0.95979996E+02  0.10098E-02
 0.96029999E+02  0.11770E-02
 0.96079994E+02  0.11849E-02
 0.96129997E+02  0.10468E-02
 0.96180000E+02  0.79904E-03
 0.96229996E+02  0.44082E-03
 0.96279999E+02  0.76032E-05
 0.96329994E+02 -0.38347E-03
 0.96379997E+02 -0.65351E-03
 0.96430000E+02 -0.80996E-03
 0.96479996E+02 -0.89700E-03
 0.96529999E+02 -0.90961E-03
 0.96579994E+02 -0.86416E-03
 0.96629997E+02 -0.80303E-03
 0.96680000E+02 -0.72070E-03
 0.96729996E+02 -0.56372E-03
 0.96779999E+02 -0.31250E-03
 0.96829994E+02 -0.55550E-04
 0.96879997E+02  0.17264E-03
 0.96930000E+02  0.39301E-03
 0.96979996E+02  0.57803E-03
 0.97029999E+02  0.69440E-03
 0.97079994E+02  0.71245E-03
 0.97129997E+02  0.64822E-03
 0.97180000E+02  0.51832E-03
 0.97229996E+02  0.34144E-03
 0.97279999E+02  0.16358E-03
 0.97329994E+02 -0.37491E-04
 0.97379997E+02 -0.25143E-03
 0.97430000E+02 -0.41759E-03
 0.97479996E+02 -0.53303E-03
 0.97529999E+02 -0.59134E-03
 0.97579994E+02 -0.58085E-03
 0.97629997E+02 -0.49662E-03
 0.97680000E+02 -0.32540E-03
 0.97729996E+02 -0.12368E-03
 0.97779999E+02  0.46007E-04
 0.97829994E+02  0.18332E-03
 0.97879997E+02  0.29346E-03
 0.97930000E+02  0.39282E-03
 0.97979996E+02  0.47552E-03
 0.98029999E+02  0.51284E-03
 0.98079994E+02  0.51310E-03
 0.98129997E+02  0.52313E-03
 0.98180000E+02  0.55189E-03
 0.98229996E+02  0.56243E-03
 0.98279999E+02  0.53256E-03
 0.98329994E+02  0.42069E-03
 0.98379997E+02  0.21594E-03
 0.98430000E+02 -0.29894E-04
 0.98479996E+02 -0.26688E-03
 0.98529999E+02 -0.44559E-03
 0.98579994E+02 -0.55123E-03
 0.98629997E+02 -0.59625E-03
 0.98680000E+02 -0.57043E-03
 0.98729996E+02 -0.49099E-03
 0.98779999E+02 -0.39403E-03
 0.98829994E+02 -0.28170E-03
 0.98879997E+02 -0.17716E-03
 0.98930000E+02 -0.11248E-03
 0.98979996E+02 -0.71349E-04
 0.99029999E+02 -0.52025E-04
 0.99079994E+02 -0.58811E-04
 0.99129997E+02 -0.41677E-04
 0.99180000E+02  0.15619E-04
 0.99229996E+02  0.96758E-04
 0.99279999E+02  0.20754E-03
 0.99329994E+02  0.30654E-03
 0.99379997E+02  0.38125E-03
 0.99430000E+02  0.44923E-03
 0.99479996E+02  0.49128E-03
 0.99529999E+02  0.50009E-03
 0.99579994E+02  0.46165E-03
 0.99629997E+02  0.38694E-03
 0.99680000E+02  0.27717E-03
 0.99729996E+02  0.10654E-03
 0.99779999E+02 -0.69112E-04
 0.99829994E+02 -0.18284E-03
 0.99879997E+02 -0.27187E-03
 0.99930000E+02 -0.36589E-03
 0.99979996E+02 -0.43285E-03
 0.10003000E+03 -0.44436E-03
 0.10007999E+03 -0.38306E-03
 0.10013000E+03 -0.28516E-03
 0.10018000E+03 -0.20053E-03
 0.10023000E+03 -0.13255E-03
 0.10028000E+03 -0.58606E-04
 0.10032999E+03  0.34027E-04
 0.10038000E+03  0.11100E-03
 0.10043000E+03  0.13111E-03
 0.10048000E+03  0.10089E-03
 0.10053000E+03  0.62645E-04
 0.10057999E+03  0.29507E-04
 0.10063000E+03  0.14654E-04
 0.10068000E+03  0.76499E-04
 0.10073000E+03  0.19667E-03
 0.10078000E+03  0.28617E-03
 0.10082999E+03  0.28353E-03
 0.10088000E+03  0.19590E-03
 0.10093000E+03  0.72063E-04
 0.10098000E+03 -0.86719E-04
 0.10103000E+03 -0.25375E-03
 0.10107999E+03 -0.38361E-03
 0.10113000E+03 -0.45848E-03
 0.10118000E+03 -0.47621E-03
 0.10123000E+03 -0.46468E-03
 0.10128000E+03 -0.42286E-03
 0.10132999E+03 -0.36180E-03
 0.10138000E+03 -0.31784E-03
 0.10143000E+03 -0.27369E-03
 0.10148000E+03 -0.16338E-03
 0.10153000E+03  0.34411E-04
 0.10157999E+03  0.25477E-03
 0.10163000E+03  0.44806E-03
 0.10168000E+03  0.60327E-03
 0.10173000E+03  0.69211E-03
 0.10178000E+03  0.71543E-03
 0.10182999E+03  0.70943E-03
 0.10188000E+03  0.67547E-03
 0.10193000E+03  0.58554E-03
 0.10198000E+03  0.42579E-03
 0.10203000E+03  0.23647E-03
 0.10207999E+03  0.66893E-04
 0.10213000E+03 -0.10076E-03
 0.10218000E+03 -0.29295E-03
 0.10223000E+03 -0.47304E-03
 0.10228000E+03 -0.58412E-03
 0.10232999E+03 -0.62709E-03
 0.10238000E+03 -0.63335E-03
 0.10243000E+03 -0.60597E-03
 0.10248000E+03 -0.52938E-03
 0.10253000E+03 -0.41517E-03
 0.10257999E+03 -0.30436E-03
 0.10263000E+03 -0.18630E-03
 0.10268000E+03 -0.41472E-04
 0.10273000E+03  0.87167E-04
 0.10278000E+03  0.17423E-03
 0.10282999E+03  0.22221E-03
 0.10288000E+03  0.21741E-03
 0.10293000E+03  0.16167E-03
 0.10298000E+03  0.11276E-03
 0.10303000E+03  0.11345E-03
 0.10307999E+03  0.13269E-03
 0.10313000E+03  0.16221E-03
 0.10318000E+03  0.20847E-03
 0.10323000E+03  0.25969E-03
 0.10328000E+03  0.32163E-03
 0.10332999E+03  0.37742E-03
 0.10338000E+03  0.40599E-03
 0.10343000E+03  0.39213E-03
 0.10348000E+03  0.33471E-03
 0.10353000E+03  0.24642E-03
 0.10357999E+03  0.13269E-03
 0.10363000E+03  0.27846E-04
 0.10368000E+03 -0.71076E-04
 0.10373000E+03 -0.19176E-03
 0.10378000E+03 -0.32208E-03
 0.10382999E+03 -0.44199E-03
 0.10388000E+03 -0.53143E-03
 0.10393000E+03 -0.58963E-03
 0.10398000E+03 -0.61490E-03
 0.10403000E+03 -0.60890E-03
 0.10407999E+03 -0.56876E-03
 0.10413000E+03 -0.46829E-03
 0.10418000E+03 -0.30808E-03
 0.10423000E+03 -0.11276E-03
 0.10428000E+03  0.84626E-04
 0.10432999E+03  0.26423E-03
 0.10438000E+03  0.42137E-03
 0.10443000E+03  0.53391E-03
 0.10448000E+03  0.58559E-03
 0.10453000E+03  0.60145E-03
 0.10457999E+03  0.59186E-03
 0.10463000E+03  0.53723E-03
 0.10468000E+03  0.43743E-03
 0.10473000E+03  0.30803E-03
 0.10478000E+03  0.17343E-03
 0.10482999E+03  0.35670E-04
 0.10488000E+03 -0.10264E-03
 0.10493000E+03 -0.21319E-03
 0.10498000E+03 -0.27345E-03
 0.10503000E+03 -0.29845E-03
 0.10507999E+03 -0.30022E-03
 0.10513000E+03 -0.24736E-03
 0.10518000E+03 -0.16164E-03
 0.10523000E+03 -0.86382E-04
 0.10528000E+03 -0.39038E-04
 0.10532999E+03 -0.28040E-04
 0.10538000E+03 -0.29480E-04
 0.10543000E+03 -0.37677E-04
 0.10548000E+03 -0.51405E-04
 0.10553000E+03 -0.43887E-04
 0.10557999E+03 -0.29589E-05
 0.10563000E+03  0.54274E-04
 0.10568000E+03  0.11026E-03
 0.10573000E+03  0.15331E-03
 0.10578000E+03  0.15338E-03
 0.10582999E+03  0.96786E-04
 0.10588000E+03  0.14774E-04
 0.10593000E+03 -0.63658E-04
 0.10598000E+03 -0.13276E-03
 0.10603000E+03 -0.19187E-03
 0.10607999E+03 -0.25704E-03
 0.10613000E+03 -0.34005E-03
 0.10618000E+03 -0.40723E-03
 0.10623000E+03 -0.40633E-03
 0.10628000E+03 -0.32785E-03
 0.10632999E+03 -0.21665E-03
 0.10638000E+03 -0.11163E-03
 0.10643000E+03 -0.26914E-04
 0.10648000E+03  0.17826E-04
 0.10653000E+03  0.35929E-04
 0.10657999E+03  0.75524E-04
 0.10663000E+03  0.16577E-03
 0.10668000E+03  0.29666E-03
 0.10673000E+03  0.43229E-03
 0.10678000E+03  0.54628E-03
 0.10682999E+03  0.62075E-03
 0.10688000E+03  0.64799E-03
 0.10693000E+03  0.60831E-03
 0.10698000E+03  0.50733E-03
 0.10703000E+03  0.38513E-03
 0.10707999E+03  0.25969E-03
 0.10713000E+03  0.15865E-03
 0.10718000E+03  0.67699E-04
 0.10723000E+03 -0.63862E-04
 0.10728000E+03 -0.23335E-03
 0.10732999E+03 -0.39685E-03
 0.10738000E+03 -0.51060E-03
 0.10743000E+03 -0.56899E-03
 0.10748000E+03 -0.60792E-03
 0.10753000E+03 -0.63599E-03
 0.10757999E+03 -0.63899E-03
 0.10763000E+03 -0.62401E-03
 0.10768000E+03 -0.56727E-03
 0.10773000E+03 -0.44741E-03
 0.10778000E+03 -0.29958E-03
 0.10782999E+03 -0.16052E-03
 0.10788000E+03 -0.36291E-04
 0.10793000E+03  0.82135E-04
 0.10798000E+03  0.20633E-03
 0.10803000E+03  0.31753E-03
 0.10807999E+03  0.39412E-03
 0.10813000E+03  0.44603E-03
 0.10818000E+03  0.45924E-03
 0.10823000E+03  0.42729E-03
 0.10828000E+03  0.36863E-03
 0.10832999E+03  0.31034E-03
 0.10838000E+03  0.27695E-03
 0.10843000E+03  0.23854E-03
 0.10848000E+03  0.17646E-03
 0.10853000E+03  0.10799E-03
 0.10857999E+03  0.57294E-04
 0.10863000E+03  0.39597E-04
 0.10868000E+03  0.42071E-04
 0.10873000E+03  0.60363E-04
 0.10878000E+03  0.60942E-04
 0.10882999E+03  0.25763E-04
 0.10888000E+03 -0.76015E-05
 0.10893000E+03 -0.30839E-04
 0.10898000E+03 -0.44630E-04
 0.10903000E+03 -0.52452E-04
 0.10907999E+03 -0.62036E-04
 0.10913000E+03 -0.61270E-04
 0.10918000E+03 -0.43302E-04
 0.10923000E+03 -0.12193E-04
 0.10928000E+03 -0.40990E-06
 0.10932999E+03 -0.37210E-04
 0.10938000E+03 -0.98810E-04
 0.10943000E+03 -0.15077E-03
 0.10948000E+03 -0.17573E-03
 0.10953000E+03 -0.16682E-03
 0.10957999E+03 -0.14294E-03
 0.10963000E+03 -0.13252E-03
 0.10968000E+03 -0.12105E-03
 0.10973000E+03 -0.92148E-04
 0.10978000E+03 -0.74917E-04
 0.10982999E+03 -0.82836E-04
 0.10988000E+03 -0.10142E-03
 0.10993000E+03 -0.11779E-03
 0.10998000E+03 -0.12791E-03
 0.11003000E+03 -0.11759E-03
 0.11007999E+03 -0.73406E-04
 0.11013000E+03 -0.20709E-04
 0.11018000E+03  0.23594E-04
 0.11023000E+03  0.63175E-04
 0.11028000E+03  0.96338E-04
 0.11032999E+03  0.11967E-03
 0.11038000E+03  0.12684E-03
 0.11043000E+03  0.11862E-03
 0.11048000E+03  0.93957E-04
 0.11053000E+03  0.55243E-04
 0.11057999E+03  0.14825E-04
 0.11063000E+03 -0.33170E-04
 0.11068000E+03 -0.10190E-03
 0.11073000E+03 -0.15434E-03
 0.11078000E+03 -0.15342E-03
 0.11082999E+03 -0.12664E-03
 0.11088000E+03 -0.88143E-04
 0.11093000E+03 -0.23925E-04
 0.11098000E+03  0.65121E-04
 0.11103000E+03  0.14907E-03
 0.11107999E+03  0.19251E-03
 0.11113000E+03  0.21082E-03
 0.11118000E+03  0.22530E-03
 0.11123000E+03  0.22851E-03
 0.11128000E+03  0.21319E-03
 0.11132999E+03  0.17789E-03
 0.11138000E+03  0.13182E-03
 0.11143000E+03  0.78538E-04
 0.11148000E+03  0.18998E-04
 0.11153000E+03 -0.29601E-04
 0.11157999E+03 -0.43507E-04
 0.11163000E+03 -0.86347E-05
 0.11168000E+03  0.55388E-04
 0.11173000E+03  0.11110E-03
 0.11178000E+03  0.15277E-03
 0.11182999E+03  0.18127E-03
 0.11188000E+03  0.17794E-03
 0.11193000E+03  0.13738E-03
 0.11198000E+03  0.64241E-04
 0.11203000E+03 -0.25703E-04
 0.11207999E+03 -0.11928E-03
 0.11213000E+03 -0.21691E-03
 0.11218000E+03 -0.30921E-03
 0.11223000E+03 -0.38553E-03
 0.11228000E+03 -0.44040E-03
 0.11232999E+03 -0.47019E-03
 0.11238000E+03 -0.46268E-03
 0.11243000E+03 -0.42282E-03
 0.11248000E+03 -0.37662E-03
 0.11253000E+03 -0.32153E-03
 0.11257999E+03 -0.23962E-03
 0.11263000E+03 -0.11863E-03
 0.11268000E+03  0.43805E-04
 0.11273000E+03  0.23454E-03
 0.11278000E+03  0.42452E-03
 0.11282999E+03  0.56701E-03
 0.11288000E+03  0.63945E-03
 0.11293000E+03  0.65269E-03
 0.11298000E+03  0.60719E-03
 0.11303000E+03  0.50824E-03
 0.11307999E+03  0.40031E-03
 0.11313000E+03  0.30615E-03
 0.11318000E+03  0.19855E-03
 0.11323000E+03  0.79154E-04
 0.11328000E+03 -0.38030E-04
 0.11332999E+03 -0.16457E-03
 0.11338000E+03 -0.29975E-03
 0.11343000E+03 -0.43187E-03
 0.11348000E+03 -0.54013E-03
 0.11353000E+03 -0.61268E-03
 0.11357999E+03 -0.66363E-03
 0.11363000E+03 -0.68447E-03
 0.11368000E+03 -0.63702E-03
 0.11373000E+03 -0.51999E-03
 0.11378000E+03 -0.37253E-03
 0.11382999E+03 -0.19480E-03
 0.11388000E+03  0.20206E-04
 0.11393000E+03  0.24203E-03
 0.11398000E+03  0.43528E-03
 0.11403000E+03  0.55286E-03
 0.11407999E+03  0.60007E-03
 0.11413000E+03  0.62211E-03
 0.11418000E+03  0.62366E-03
 0.11423000E+03  0.60269E-03
 0.11428000E+03  0.54344E-03
 0.11432999E+03  0.43118E-03
 0.11438000E+03  0.28433E-03
 0.11443000E+03  0.12034E-03
 0.11448000E+03 -0.44677E-04
 0.11453000E+03 -0.18841E-03
 0.11457999E+03 -0.29661E-03
 0.11463000E+03 -0.36807E-03
 0.11468000E+03 -0.40954E-03
 0.11473000E+03 -0.42602E-03
 0.11478000E+03 -0.41243E-03
 0.11482999E+03 -0.36476E-03
 0.11488000E+03 -0.29311E-03
 0.11493000E+03 -0.20530E-03
 0.11498000E+03 -0.10646E-03
 0.11503000E+03 -0.82358E-06
 0.11507999E+03  0.11243E-03
 0.11513000E+03  0.20991E-03
 0.11518000E+03  0.25768E-03
 0.11523000E+03  0.24595E-03
 0.11528000E+03  0.18242E-03
 0.11532999E+03  0.90143E-04
 0.11538000E+03  0.48243E-06
 0.11543000E+03 -0.66239E-04
 0.11548000E+03 -0.10074E-03
 0.11553000E+03 -0.92358E-04
 0.11557999E+03 -0.34835E-04
 0.11563000E+03  0.53271E-04
 0.11568000E+03  0.13167E-03
 0.11573000E+03  0.17705E-03
 0.11578000E+03  0.18541E-03
 0.11582999E+03  0.14542E-03
 0.11588000E+03  0.65335E-04
 0.11593000E+03 -0.26683E-04
 0.11598000E+03 -0.10338E-03
 0.11603000E+03 -0.15183E-03
 0.11607999E+03 -0.19208E-03
 0.11613000E+03 -0.22800E-03
 0.11618000E+03 -0.24524E-03
 0.11623000E+03 -0.24062E-03
 0.11628000E+03 -0.21443E-03
 0.11632999E+03 -0.17978E-03
 0.11638000E+03 -0.13896E-03
 0.11643000E+03 -0.89271E-04
 0.11648000E+03 -0.47679E-04
 0.11653000E+03 -0.30806E-04
 0.11657999E+03 -0.33355E-04
 0.11663000E+03 -0.33705E-04
 0.11668000E+03 -0.23987E-04
 0.11673000E+03 -0.11083E-04
 0.11678000E+03  0.45298E-05
 0.11682999E+03  0.28972E-04
 0.11688000E+03  0.62625E-04
 0.11693000E+03  0.96034E-04
 0.11698000E+03  0.11541E-03
 0.11703000E+03  0.12374E-03
 0.11707999E+03  0.13970E-03
 0.11713000E+03  0.16788E-03
 0.11718000E+03  0.19253E-03
 0.11723000E+03  0.19379E-03
 0.11728000E+03  0.17803E-03
 0.11732999E+03  0.15959E-03
 0.11738000E+03  0.12660E-03
 0.11743000E+03  0.69569E-04
 0.11748000E+03 -0.11579E-05
 0.11753000E+03 -0.66442E-04
 0.11757999E+03 -0.11337E-03
 0.11763000E+03 -0.13521E-03
 0.11768000E+03 -0.13006E-03
 0.11773000E+03 -0.10277E-03
 0.11778000E+03 -0.49634E-04
 0.11782999E+03  0.32306E-04
 0.11788000E+03  0.13626E-03
 0.11793000E+03  0.24771E-03
 0.11798000E+03  0.34180E-03
 0.11803000E+03  0.39436E-03
 0.11807999E+03  0.41173E-03
 0.11813000E+03  0.41565E-03
 0.11818000E+03  0.39806E-03
 0.11823000E+03  0.34266E-03
 0.11828000E+03  0.25659E-03
 0.11832999E+03  0.16567E-03
 0.11838000E+03  0.81722E-04
 0.11843000E+03 -0.67722E-05
 0.11848000E+03 -0.10749E-03
 0.11853000E+03 -0.21993E-03
 0.11857999E+03 -0.33921E-03
 0.11863000E+03 -0.45527E-03
 0.11868000E+03 -0.55084E-03
 0.11873000E+03 -0.60318E-03
 0.11878000E+03 -0.60233E-03
 0.11882999E+03 -0.54519E-03
 0.11888000E+03 -0.43616E-03
 0.11893000E+03 -0.29440E-03
 0.11898000E+03 -0.13452E-03
 0.11903000E+03  0.22932E-04
 0.11907999E+03  0.15185E-03
 0.11913000E+03  0.23197E-03
 0.11918000E+03  0.25168E-03
 0.11923000E+03  0.22394E-03
 0.11928000E+03  0.17963E-03
 0.11932999E+03  0.13891E-03
 0.11938000E+03  0.95095E-04
 0.11943000E+03  0.33207E-04
 0.11948000E+03 -0.38050E-04
 0.11953000E+03 -0.96209E-04
 0.11957999E+03 -0.14145E-03
 0.11963000E+03 -0.18037E-03
 0.11968000E+03 -0.20995E-03
 0.11973000E+03 -0.24071E-03
 0.11978000E+03 -0.27645E-03
 0.11982999E+03 -0.29273E-03
 0.11988000E+03 -0.27570E-03
 0.11993000E+03 -0.23618E-03
 0.11998000E+03 -0.18121E-03
 0.12003000E+03 -0.11117E-03
 0.12007999E+03 -0.34728E-04
 0.12013000E+03  0.35491E-04
 0.12018000E+03  0.92391E-04
 0.12023000E+03  0.13557E-03
 0.12028000E+03  0.17275E-03
 0.12032999E+03  0.20340E-03
 0.12038000E+03  0.22681E-03
 0.12043000E+03  0.25233E-03
 0.12048000E+03  0.27569E-03
 0.12053000E+03  0.28001E-03
 0.12057999E+03  0.26064E-03
 0.12063000E+03  0.22810E-03
 0.12068000E+03  0.17862E-03
 0.12073000E+03  0.11536E-03
 0.12078000E+03  0.60878E-04
 0.12082999E+03  0.24215E-04
 0.12088000E+03  0.15232E-04
 0.12093000E+03  0.35263E-04
 0.12098000E+03  0.62407E-04
 0.12103000E+03  0.90933E-04
 0.12107999E+03  0.13176E-03
 0.12113000E+03  0.18914E-03
 0.12118000E+03  0.25270E-03
 0.12123000E+03  0.29839E-03
 0.12128000E+03  0.32460E-03
 0.12132999E+03  0.34065E-03
 0.12138000E+03  0.34151E-03
 0.12143000E+03  0.32458E-03
 0.12148000E+03  0.29043E-03
 0.12153000E+03  0.23341E-03
 0.12157999E+03  0.14819E-03
 0.12163000E+03  0.48836E-04
 0.12168000E+03 -0.56995E-04
 0.12173000E+03 -0.17105E-03
 0.12178000E+03 -0.29428E-03
 0.12182999E+03 -0.42612E-03
 0.12188000E+03 -0.54674E-03
 0.12193000E+03 -0.64273E-03
 0.12198000E+03 -0.69778E-03
 0.12203000E+03 -0.68390E-03
 0.12207999E+03 -0.60248E-03
 0.12213000E+03 -0.47659E-03
 0.12218000E+03 -0.31704E-03
 0.12223000E+03 -0.13515E-03
 0.12228000E+03  0.47041E-04
 0.12232999E+03  0.21363E-03
 0.12238000E+03  0.33689E-03
 0.12243000E+03  0.39040E-03
 0.12248000E+03  0.38814E-03
 0.12253000E+03  0.34642E-03
 0.12257999E+03  0.26104E-03
 0.12263000E+03  0.14382E-03
 0.12268000E+03  0.12885E-04
 0.12273000E+03 -0.12380E-03
 0.12278000E+03 -0.25450E-03
 0.12282999E+03 -0.36697E-03
 0.12288000E+03 -0.45590E-03
 0.12293000E+03 -0.51166E-03
 0.12298000E+03 -0.51297E-03
 0.12303000E+03 -0.45666E-03
 0.12307999E+03 -0.36148E-03
 0.12313000E+03 -0.25152E-03
 0.12318000E+03 -0.14106E-03
 0.12323000E+03 -0.26135E-04
 0.12328000E+03  0.92317E-04
 0.12332999E+03  0.20477E-03
 0.12338000E+03  0.29692E-03
 0.12343000E+03  0.36076E-03
 0.12348000E+03  0.39767E-03
 0.12353000E+03  0.40324E-03
 0.12357999E+03  0.37609E-03
 0.12363000E+03  0.32711E-03
 0.12368000E+03  0.27059E-03
 0.12373000E+03  0.21011E-03
 0.12378000E+03  0.14542E-03
 0.12382999E+03  0.85806E-04
 0.12388000E+03  0.37524E-04
 0.12393000E+03 -0.36564E-05
 0.12398000E+03 -0.32669E-04
 0.12403000E+03 -0.39342E-04
 0.12407999E+03 -0.24108E-04
 0.12413000E+03  0.17616E-04
 0.12418000E+03  0.74865E-04
 0.12423000E+03  0.11764E-03
 0.12428000E+03  0.12938E-03
 0.12432999E+03  0.11385E-03
 0.12438000E+03  0.93892E-04
 0.12443000E+03  0.87063E-04
 0.12448000E+03  0.97668E-04
 0.12453000E+03  0.12684E-03
 0.12457999E+03  0.16993E-03
 0.12463000E+03  0.20416E-03
 0.12468000E+03  0.20873E-03
 0.12473000E+03  0.19082E-03
 0.12478000E+03  0.15572E-03
 0.12482999E+03  0.10611E-03
 0.12488000E+03  0.51592E-04
 0.12493000E+03 -0.32725E-05
 0.12498000E+03 -0.58797E-04
 0.12503000E+03 -0.12581E-03
 0.12507999E+03 -0.20255E-03
 0.12513000E+03 -0.26655E-03
 0.12518000E+03 -0.30541E-03
 0.12523000E+03 -0.31414E-03
 0.12528000E+03 -0.29678E-03
 0.12532999E+03 -0.26786E-03
 0.12538000E+03 -0.22425E-03
 0.12543000E+03 -0.16223E-03
 0.12548000E+03 -0.97465E-04
 0.12553000E+03 -0.36576E-04
 0.12557999E+03  0.18896E-04
 0.12563000E+03  0.62685E-04
 0.12568000E+03  0.95374E-04
 0.12573000E+03  0.11848E-03
 0.12578000E+03  0.12656E-03
 0.12582999E+03  0.10963E-03
 0.12588000E+03  0.66721E-04
 0.12593000E+03  0.44581E-05
 0.12598000E+03 -0.68366E-04
 0.12603000E+03 -0.13755E-03
 0.12607999E+03 -0.19871E-03
 0.12613000E+03 -0.25460E-03
 0.12618000E+03 -0.30096E-03
 0.12623000E+03 -0.33487E-03
 0.12628000E+03 -0.34459E-03
 0.12632999E+03 -0.31629E-03
 0.12638000E+03 -0.25934E-03
 0.12643000E+03 -0.19134E-03
 0.12648000E+03 -0.12141E-03
 0.12653000E+03 -0.55108E-04
 0.12657999E+03  0.24566E-05
 0.12663000E+03  0.60241E-04
 0.12668000E+03  0.13149E-03
 0.12673000E+03  0.20913E-03
 0.12678000E+03  0.27971E-03
 0.12682999E+03  0.33103E-03
 0.12688000E+03  0.35314E-03
 0.12693000E+03  0.34243E-03
 0.12698000E+03  0.30557E-03
 0.12703000E+03  0.25988E-03
 0.12707999E+03  0.20896E-03
 0.12713000E+03  0.16181E-03
 0.12718000E+03  0.13494E-03
 0.12723000E+03  0.11455E-03
 0.12728000E+03  0.90402E-04
 0.12732999E+03  0.71645E-04
 0.12738000E+03  0.55356E-04
 0.12743000E+03  0.44040E-04
 0.12748000E+03  0.51015E-04
 0.12753000E+03  0.73462E-04
 0.12757999E+03  0.10182E-03
 0.12763000E+03  0.13050E-03
 0.12768000E+03  0.15405E-03
 0.12773000E+03  0.16932E-03
 0.12778000E+03  0.17140E-03
 0.12782999E+03  0.15255E-03
 0.12788000E+03  0.10429E-03
 0.12793000E+03  0.23761E-04
 0.12798000E+03 -0.78721E-04
 0.12803000E+03 -0.18664E-03
 0.12808000E+03 -0.28036E-03
 0.12813000E+03 -0.34216E-03
 0.12817999E+03 -0.36279E-03
 0.12823000E+03 -0.33982E-03
 0.12828000E+03 -0.28226E-03
 0.12833000E+03 -0.21268E-03
 0.12838000E+03 -0.15335E-03
 0.12842999E+03 -0.10880E-03
 0.12848000E+03 -0.80822E-04
 0.12853000E+03 -0.68208E-04
 0.12858000E+03 -0.57591E-04
 0.12863000E+03 -0.45592E-04
 0.12867999E+03 -0.33595E-04
 0.12873000E+03 -0.21914E-04
 0.12878000E+03 -0.13556E-04
 0.12883000E+03 -0.20574E-05
 0.12888000E+03  0.19154E-04
 0.12892999E+03  0.43264E-04
 0.12898000E+03  0.63024E-04
 0.12903000E+03  0.63917E-04
 0.12908000E+03  0.32320E-04
 0.12913000E+03 -0.22362E-04
 0.12917999E+03 -0.84663E-04
 0.12923000E+03 -0.12777E-03
 0.12928000E+03 -0.12882E-03
 0.12933000E+03 -0.98322E-04
 0.12938000E+03 -0.56548E-04
 0.12942999E+03 -0.12204E-04
 0.12948000E+03  0.33835E-04
 0.12953000E+03  0.73076E-04
 0.12958000E+03  0.96588E-04
 0.12963000E+03  0.10774E-03
 0.12967999E+03  0.11185E-03
 0.12973000E+03  0.11196E-03
 0.12978000E+03  0.10768E-03
 0.12983000E+03  0.96900E-04
 0.12988000E+03  0.70945E-04
 0.12992999E+03  0.30187E-04
 0.12998000E+03  0.19612E-05
 0.13003000E+03  0.40438E-05
 0.13008000E+03  0.28099E-04
 0.13013000E+03  0.55883E-04
 0.13017999E+03  0.77101E-04
 0.13023000E+03  0.94340E-04
 0.13028000E+03  0.10012E-03
 0.13033000E+03  0.81214E-04
 0.13038000E+03  0.46062E-04
 0.13042999E+03  0.99597E-05
 0.13048000E+03 -0.25286E-04
 0.13053000E+03 -0.51190E-04
 0.13058000E+03 -0.57134E-04
 0.13063000E+03 -0.44263E-04
 0.13067999E+03 -0.17901E-04
 0.13073000E+03  0.14240E-04
 0.13078000E+03  0.51714E-04
 0.13083000E+03  0.93775E-04
 0.13088000E+03  0.12564E-03
 0.13092999E+03  0.13854E-03
 0.13098000E+03  0.14240E-03
 0.13103000E+03  0.14619E-03
 0.13108000E+03  0.14819E-03
 0.13113000E+03  0.14368E-03
 0.13117999E+03  0.13004E-03
 0.13123000E+03  0.10809E-03
 0.13128000E+03  0.72152E-04
 0.13133000E+03  0.16228E-04
 0.13138000E+03 -0.50717E-04
 0.13142999E+03 -0.11946E-03
 0.13148000E+03 -0.18771E-03
 0.13153000E+03 -0.24808E-03
 0.13158000E+03 -0.29307E-03
 0.13163000E+03 -0.31954E-03
 0.13167999E+03 -0.32665E-03
 0.13173000E+03 -0.32136E-03
 0.13178000E+03 -0.30441E-03
 0.13183000E+03 -0.26763E-03
 0.13188000E+03 -0.20904E-03
 0.13192999E+03 -0.13413E-03
 0.13198000E+03 -0.60859E-04
 0.13203000E+03 -0.66559E-05
 0.13208000E+03  0.30039E-04
 0.13213000E+03  0.60314E-04
 0.13217999E+03  0.92816E-04
 0.13223000E+03  0.12980E-03
 0.13228000E+03  0.16318E-03
 0.13233000E+03  0.17811E-03
 0.13238000E+03  0.16713E-03
 0.13242999E+03  0.14505E-03
 0.13248000E+03  0.12133E-03
 0.13253000E+03  0.89673E-04
 0.13258000E+03  0.58580E-04
 0.13263000E+03  0.32160E-04
 0.13267999E+03  0.15753E-04
 0.13273000E+03  0.17076E-04
 0.13278000E+03  0.26334E-04
 0.13283000E+03  0.34108E-04
 0.13288000E+03  0.30531E-04
 0.13292999E+03  0.16918E-04
 0.13298000E+03 -0.17533E-05
 0.13303000E+03 -0.26439E-04
 0.13308000E+03 -0.44826E-04
 0.13313000E+03 -0.45502E-04
 0.13317999E+03 -0.31273E-04
 0.13323000E+03 -0.15788E-04
 0.13328000E+03  0.41225E-06
 0.13333000E+03  0.28447E-04
 0.13338000E+03  0.60526E-04
 0.13342999E+03  0.83520E-04
 0.13348000E+03  0.94139E-04
 0.13353000E+03  0.95856E-04
 0.13358000E+03  0.93286E-04
 0.13363000E+03  0.85802E-04
 0.13367999E+03  0.68298E-04
 0.13373000E+03  0.44922E-04
 0.13378000E+03  0.29485E-04
 0.13383000E+03  0.22782E-04
 0.13388000E+03  0.17830E-04
 0.13392999E+03  0.89174E-05
 0.13398000E+03 -0.10290E-04
 0.13403000E+03 -0.37123E-04
 0.13408000E+03 -0.66129E-04
 0.13413000E+03 -0.95172E-04
 0.13417999E+03 -0.11859E-03
 0.13423000E+03 -0.13120E-03
 0.13428000E+03 -0.12855E-03
 0.13433000E+03 -0.11176E-03
 0.13438000E+03 -0.89977E-04
 0.13442999E+03 -0.66855E-04
 0.13448000E+03 -0.43972E-04
 0.13453000E+03 -0.26179E-04
 0.13458000E+03 -0.11718E-04
 0.13463000E+03  0.60866E-05
 0.13467999E+03  0.28073E-04
 0.13473000E+03  0.52235E-04
 0.13478000E+03  0.79349E-04
 0.13483000E+03  0.10323E-03
 0.13488000E+03  0.11109E-03
 0.13492999E+03  0.96325E-04
 0.13498000E+03  0.59124E-04
 0.13503000E+03  0.12343E-04
 0.13508000E+03 -0.31125E-04
 0.13513000E+03 -0.70570E-04
 0.13517999E+03 -0.10163E-03
 0.13523000E+03 -0.12428E-03
 0.13528000E+03 -0.13720E-03
 0.13533000E+03 -0.13164E-03
 0.13538000E+03 -0.10702E-03
 0.13542999E+03 -0.72033E-04
 0.13548000E+03 -0.36524E-04
 0.13553000E+03 -0.34164E-05
 0.13558000E+03  0.20581E-04
 0.13563000E+03  0.37035E-04
 0.13567999E+03  0.49110E-04
 0.13573000E+03  0.53600E-04
 0.13578000E+03  0.65273E-04
 0.13583000E+03  0.88471E-04
 0.13588000E+03  0.11488E-03
 0.13592999E+03  0.13962E-03
 0.13598000E+03  0.15451E-03
 0.13603000E+03  0.15648E-03
 0.13608000E+03  0.14323E-03
 0.13613000E+03  0.11572E-03
 0.13617999E+03  0.77665E-04
 0.13623000E+03  0.29155E-04
 0.13628000E+03 -0.24944E-04
 0.13633000E+03 -0.71409E-04
 0.13638000E+03 -0.10562E-03
 0.13642999E+03 -0.13513E-03
 0.13648000E+03 -0.15938E-03
 0.13653000E+03 -0.17770E-03
 0.13658000E+03 -0.19678E-03
 0.13663000E+03 -0.21799E-03
 0.13667999E+03 -0.23145E-03
 0.13673000E+03 -0.22220E-03
 0.13678000E+03 -0.18119E-03
 0.13683000E+03 -0.10929E-03
 0.13688000E+03 -0.15267E-04
 0.13692999E+03  0.89197E-04
 0.13698000E+03  0.18242E-03
 0.13703000E+03  0.24575E-03
 0.13708000E+03  0.27863E-03
 0.13713000E+03  0.28695E-03
 0.13717999E+03  0.27475E-03
 0.13723000E+03  0.24007E-03
 0.13728000E+03  0.18556E-03
 0.13733000E+03  0.12260E-03
 0.13738000E+03  0.58210E-04
 0.13742999E+03 -0.79399E-05
 0.13748000E+03 -0.72931E-04
 0.13753000E+03 -0.13116E-03
 0.13758000E+03 -0.17115E-03
 0.13763000E+03 -0.17501E-03
 0.13767999E+03 -0.14523E-03
 0.13773000E+03 -0.94791E-04
 0.13778000E+03 -0.29950E-04
 0.13783000E+03  0.39348E-04
 0.13788000E+03  0.10268E-03
 0.13792999E+03  0.15404E-03
 0.13798000E+03  0.18993E-03
 0.13803000E+03  0.20401E-03
 0.13808000E+03  0.19569E-03
 0.13813000E+03  0.17257E-03
 0.13817999E+03  0.13123E-03
 0.13823000E+03  0.67307E-04
 0.13828000E+03 -0.55989E-05
 0.13833000E+03 -0.73802E-04
 0.13838000E+03 -0.13489E-03
 0.13842999E+03 -0.18420E-03
 0.13848000E+03 -0.21543E-03
 0.13853000E+03 -0.22507E-03
 0.13858000E+03 -0.21411E-03
 0.13863000E+03 -0.19059E-03
 0.13867999E+03 -0.15948E-03
 0.13873000E+03 -0.12787E-03
 0.13878000E+03 -0.10087E-03
 0.13883000E+03 -0.75609E-04
 0.13888000E+03 -0.51724E-04
 0.13892999E+03 -0.28555E-04
 0.13898000E+03 -0.10249E-04
 0.13903000E+03  0.69439E-06
 0.13908000E+03  0.16215E-05
 0.13913000E+03 -0.12057E-04
 0.13917999E+03 -0.36253E-04
 0.13923000E+03 -0.64104E-04
 0.13928000E+03 -0.79042E-04
 0.13933000E+03 -0.71702E-04
 0.13938000E+03 -0.51857E-04
 0.13942999E+03 -0.27201E-04
 0.13948000E+03 -0.22926E-05
 0.13953000E+03  0.16477E-04
 0.13958000E+03  0.27495E-04
 0.13963000E+03  0.35195E-04
 0.13967999E+03  0.43312E-04
 0.13973000E+03  0.59015E-04
 0.13978000E+03  0.81465E-04
 0.13983000E+03  0.98320E-04
 0.13988000E+03  0.10689E-03
 0.13992999E+03  0.10915E-03
 0.13998000E+03  0.10697E-03
 0.14003000E+03  0.99120E-04
 0.14008000E+03  0.88875E-04
 0.14013000E+03  0.89268E-04
 0.14017999E+03  0.93697E-04
 0.14023000E+03  0.85856E-04
 0.14028000E+03  0.66771E-04
 0.14033000E+03  0.47756E-04
 0.14038000E+03  0.33177E-04
 0.14042999E+03  0.19226E-04
 0.14048000E+03  0.77311E-05
 0.14053000E+03 -0.28044E-05
 0.14058000E+03 -0.11566E-04
 0.14063000E+03 -0.12746E-04
 0.14067999E+03 -0.10046E-04
 0.14073000E+03 -0.47212E-05
 0.14078000E+03  0.63254E-05
 0.14083000E+03  0.20967E-04
 0.14088000E+03  0.29514E-04
 0.14092999E+03  0.34093E-04
 0.14098000E+03  0.49087E-04
 0.14103000E+03  0.74982E-04
 0.14108000E+03  0.10030E-03
 0.14113000E+03  0.11944E-03
 0.14117999E+03  0.13733E-03
 0.14123000E+03  0.14857E-03
 0.14128000E+03  0.14306E-03
 0.14133000E+03  0.12261E-03
 0.14138000E+03  0.94099E-04
 0.14142999E+03  0.59377E-04
 0.14148000E+03  0.13841E-04
 0.14153000E+03 -0.47341E-04
 0.14158000E+03 -0.12920E-03
 0.14163000E+03 -0.21727E-03
 0.14167999E+03 -0.28627E-03
 0.14173000E+03 -0.33281E-03
 0.14178000E+03 -0.36364E-03
 0.14183000E+03 -0.37902E-03
 0.14188000E+03 -0.37819E-03
 0.14192999E+03 -0.36321E-03
 0.14198000E+03 -0.32910E-03
 0.14203000E+03 -0.27393E-03
 0.14208000E+03 -0.20909E-03
 0.14213000E+03 -0.13981E-03
 0.14217999E+03 -0.65018E-04
 0.14223000E+03  0.11876E-04
 0.14228000E+03  0.86996E-04
 0.14233000E+03  0.15939E-03
 0.14238000E+03  0.22394E-03
 0.14242999E+03  0.26876E-03
 0.14248000E+03  0.28876E-03
 0.14253000E+03  0.28333E-03
 0.14258000E+03  0.25177E-03
 0.14263000E+03  0.19931E-03
 0.14267999E+03  0.13585E-03
 0.14273000E+03  0.72240E-04
 0.14278000E+03  0.16173E-04
 0.14283000E+03 -0.23243E-04
 0.14288000E+03 -0.42891E-04
 0.14292999E+03 -0.44520E-04
 0.14298000E+03 -0.22837E-04
 0.14303000E+03  0.16661E-04
 0.14308000E+03  0.60767E-04
 0.14313000E+03  0.10231E-03
 0.14317999E+03  0.13606E-03
 0.14323000E+03  0.16111E-03
 0.14328000E+03  0.18059E-03
 0.14333000E+03  0.19560E-03
 0.14338000E+03  0.19786E-03
 0.14342999E+03  0.17660E-03
 0.14348000E+03  0.13379E-03
 0.14353000E+03  0.80785E-04
 0.14358000E+03  0.25290E-04
 0.14363000E+03 -0.30205E-04
 0.14367999E+03 -0.84241E-04
 0.14373000E+03 -0.13565E-03
 0.14378000E+03 -0.18151E-03
 0.14383000E+03 -0.21187E-03
 0.14388000E+03 -0.21699E-03
 0.14392999E+03 -0.19675E-03
 0.14398000E+03 -0.15227E-03
 0.14403000E+03 -0.84817E-04
 0.14408000E+03 -0.38767E-05
 0.14413000E+03  0.75740E-04
 0.14417999E+03  0.14025E-03
 0.14423000E+03  0.17631E-03
 0.14428000E+03  0.17118E-03
 0.14433000E+03  0.12500E-03
 0.14438000E+03  0.57923E-04
 0.14442999E+03 -0.14038E-04
 0.14448000E+03 -0.80517E-04
 0.14453000E+03 -0.12585E-03
 0.14458000E+03 -0.14883E-03
 0.14463000E+03 -0.16039E-03
 0.14467999E+03 -0.17138E-03
 0.14473000E+03 -0.17848E-03
 0.14478000E+03 -0.17287E-03
 0.14483000E+03 -0.16257E-03
 0.14488000E+03 -0.15464E-03
 0.14492999E+03 -0.14390E-03
 0.14498000E+03 -0.12111E-03
 0.14503000E+03 -0.86634E-04
 0.14508000E+03 -0.46882E-04
 0.14513000E+03 -0.75642E-05
 0.14517999E+03  0.22244E-04
 0.14523000E+03  0.38078E-04
 0.14528000E+03  0.39729E-04
 0.14533000E+03  0.30646E-04
 0.14538000E+03  0.15556E-04
 0.14542999E+03 -0.38437E-05
 0.14548000E+03 -0.25537E-04
 0.14553000E+03 -0.45754E-04
 0.14558000E+03 -0.58976E-04
 0.14563000E+03 -0.63895E-04
 0.14567999E+03 -0.57782E-04
 0.14573000E+03 -0.32012E-04
 0.14578000E+03  0.14552E-04
 0.14583000E+03  0.73305E-04
 0.14588000E+03  0.12951E-03
 0.14592999E+03  0.17006E-03
 0.14598000E+03  0.19591E-03
 0.14603000E+03  0.21345E-03
 0.14608000E+03  0.22186E-03
 0.14613000E+03  0.21887E-03
 0.14617999E+03  0.20746E-03
 0.14623000E+03  0.19040E-03
 0.14628000E+03  0.16771E-03
 0.14633000E+03  0.13959E-03
 0.14638000E+03  0.10823E-03
 0.14642999E+03  0.76403E-04
 0.14648000E+03  0.44822E-04
 0.14653000E+03  0.18400E-04
 0.14658000E+03  0.38702E-05
 0.14663000E+03 -0.21529E-05
 0.14667999E+03 -0.44228E-05
 0.14673000E+03 -0.97035E-06
 0.14678000E+03  0.38633E-05
 0.14683000E+03  0.17252E-05
 0.14688000E+03 -0.13107E-04
 0.14692999E+03 -0.42481E-04
 0.14698000E+03 -0.76801E-04
 0.14703000E+03 -0.10404E-03
 0.14708000E+03 -0.11689E-03
 0.14713000E+03 -0.11779E-03
 0.14717999E+03 -0.12147E-03
 0.14723000E+03 -0.13583E-03
 0.14728000E+03 -0.15131E-03
 0.14733000E+03 -0.15410E-03
 0.14738000E+03 -0.14097E-03
 0.14742999E+03 -0.11340E-03
 0.14748000E+03 -0.75997E-04
 0.14753000E+03 -0.38936E-04
 0.14758000E+03 -0.75358E-05
 0.14763000E+03  0.19533E-04
 0.14767999E+03  0.46783E-04
 0.14773000E+03  0.78193E-04
 0.14778000E+03  0.10686E-03
 0.14783000E+03  0.11789E-03
 0.14788000E+03  0.10746E-03
 0.14792999E+03  0.81758E-04
 0.14798000E+03  0.46645E-04
 0.14803000E+03  0.84954E-05
 0.14808000E+03 -0.30434E-04
 0.14813000E+03 -0.71178E-04
 0.14817999E+03 -0.10662E-03
 0.14823000E+03 -0.12682E-03
 0.14828000E+03 -0.13076E-03
 0.14833000E+03 -0.12208E-03
 0.14838000E+03 -0.10281E-03
 0.14842999E+03 -0.74741E-04
 0.14848000E+03 -0.45173E-04
 0.14853000E+03 -0.19908E-04
 0.14858000E+03  0.40180E-05
 0.14863000E+03  0.23747E-04
 0.14867999E+03  0.29573E-04
 0.14873000E+03  0.20646E-04
 0.14878000E+03  0.30617E-05
 0.14883000E+03 -0.19534E-04
 0.14888000E+03 -0.39792E-04
 0.14892999E+03 -0.41129E-04
 0.14898000E+03 -0.16626E-04
 0.14903000E+03  0.19699E-04
 0.14908000E+03  0.49233E-04
 0.14913000E+03  0.69662E-04
 0.14917999E+03  0.88423E-04
 0.14923000E+03  0.10609E-03
 0.14928000E+03  0.12020E-03
 0.14933000E+03  0.12628E-03
 0.14938000E+03  0.11928E-03
 0.14942999E+03  0.97714E-04
 0.14948000E+03  0.65142E-04
 0.14953000E+03  0.27077E-04
 0.14958000E+03 -0.95777E-05
 0.14963000E+03 -0.34883E-04
 0.14967999E+03 -0.40476E-04
 0.14973000E+03 -0.19508E-04
 0.14978000E+03  0.21742E-04
 0.14983000E+03  0.66135E-04
 0.14988000E+03  0.10091E-03
 0.14992999E+03  0.12020E-03
 0.14998000E+03  0.12849E-03
