-0.19989014E-01  0.18967E-05
 0.30010987E-01  0.11700E-05
 0.80010988E-01  0.51334E-06
 0.13001099E+00 -0.91178E-08
 0.18001099E+00 -0.36444E-06
 0.23001099E+00 -0.55161E-06
 0.28001100E+00 -0.66357E-06
 0.33001098E+00 -0.69415E-06
 0.38001099E+00 -0.61032E-06
 0.43001100E+00 -0.49608E-06
 0.48001099E+00 -0.41157E-06
 0.53001100E+00 -0.36404E-06
 0.58001101E+00 -0.29636E-06
 0.63001102E+00 -0.16781E-06
 0.68001097E+00 -0.70287E-07
 0.73001099E+00 -0.79331E-07
 0.78001100E+00 -0.12262E-06
 0.83001101E+00 -0.81733E-07
 0.88001102E+00  0.24475E-07
 0.93001097E+00  0.63928E-07
 0.98001099E+00  0.21800E-07
 0.10300111E+01 -0.40343E-07
 0.10800110E+01 -0.38499E-07
 0.11300110E+01 -0.46657E-08
 0.11800110E+01 -0.25817E-07
 0.12300110E+01 -0.18556E-07
 0.12800111E+01  0.26049E-07
 0.13300110E+01  0.69727E-07
 0.13800110E+01  0.10136E-06
 0.14300110E+01  0.11318E-06
 0.14800110E+01  0.13329E-06
 0.15300111E+01  0.15359E-06
 0.15800110E+01  0.19368E-06
 0.16300110E+01  0.19367E-06
 0.16800110E+01  0.15458E-06
 0.17300110E+01  0.18924E-06
 0.17800111E+01  0.25539E-06
 0.18300110E+01  0.28842E-06
 0.18800110E+01  0.25560E-06
 0.19300110E+01  0.22324E-06
 0.19800110E+01  0.21856E-06
 0.20300109E+01  0.19418E-06
 0.20800111E+01  0.15056E-06
 0.21300111E+01  0.79334E-07
 0.21800110E+01  0.46988E-07
 0.22300110E+01  0.28507E-07
 0.22800109E+01 -0.55878E-07
 0.23300111E+01 -0.15191E-06
 0.23800111E+01 -0.22546E-06
 0.24300110E+01 -0.26754E-06
 0.24800110E+01 -0.26828E-06
 0.25300109E+01 -0.24116E-06
 0.25800111E+01 -0.15417E-06
 0.26300111E+01 -0.95215E-07
 0.26800110E+01 -0.99337E-07
 0.27300110E+01 -0.10544E-06
 0.27800109E+01 -0.10407E-06
 0.28300111E+01 -0.79568E-07
 0.28800111E+01 -0.72719E-07
 0.29300110E+01 -0.67889E-07
 0.29800110E+01 -0.97795E-07
 0.30300109E+01 -0.15457E-06
 0.30800111E+01 -0.16363E-06
 0.31300111E+01 -0.17059E-06
 0.31800110E+01 -0.16612E-06
 0.32300110E+01 -0.12894E-06
 0.32800109E+01 -0.64851E-07
 0.33300111E+01  0.22779E-07
 0.33800111E+01  0.50452E-07
 0.34300110E+01  0.20286E-07
 0.34800110E+01  0.71458E-07
 0.35300109E+01  0.19834E-06
 0.35800111E+01  0.26441E-06
 0.36300111E+01  0.24455E-06
 0.36800110E+01  0.18960E-06
 0.37300110E+01  0.16678E-06
 0.37800109E+01  0.19818E-06
 0.38300111E+01  0.19254E-06
 0.38800111E+01  0.19126E-06
 0.39300110E+01  0.24309E-06
 0.39800110E+01  0.30034E-06
 0.40300112E+01  0.30754E-06
 0.40800109E+01  0.23595E-06
 0.41300111E+01  0.15933E-06
 0.41800113E+01  0.10279E-06
 0.42300110E+01  0.72254E-07
 0.42800112E+01  0.71369E-08
 0.43300109E+01 -0.12769E-06
 0.43800111E+01 -0.19278E-06
 0.44300113E+01 -0.21332E-06
 0.44800110E+01 -0.27419E-06
 0.45300112E+01 -0.33221E-06
 0.45800109E+01 -0.40025E-06
 0.46300111E+01 -0.38028E-06
 0.46800113E+01 -0.29910E-06
 0.47300110E+01 -0.30024E-06
 0.47800112E+01 -0.28384E-06
 0.48300109E+01 -0.23527E-06
 0.48800111E+01 -0.18553E-06
 0.49300113E+01 -0.18132E-06
 0.49800110E+01 -0.22094E-06
 0.50300112E+01 -0.21907E-06
 0.50800109E+01 -0.15959E-06
 0.51300111E+01 -0.66669E-07
 0.51800113E+01 -0.27144E-07
 0.52300110E+01 -0.27900E-07
 0.52800112E+01  0.33608E-07
 0.53300109E+01  0.18224E-06
 0.53800111E+01  0.34937E-06
 0.54300113E+01  0.48125E-06
 0.54800110E+01  0.53576E-06
 0.55300112E+01  0.54452E-06
 0.55800109E+01  0.58840E-06
 0.56300111E+01  0.62172E-06
 0.56800113E+01  0.56072E-06
 0.57300110E+01  0.42189E-06
 0.57800112E+01  0.29451E-06
 0.58300109E+01  0.13130E-06
 0.58800111E+01 -0.10247E-06
 0.59300113E+01 -0.30678E-06
 0.59800110E+01 -0.40999E-06
 0.60300112E+01 -0.43594E-06
 0.60800109E+01 -0.46810E-06
 0.61300111E+01 -0.49720E-06
 0.61800113E+01 -0.50994E-06
 0.62300110E+01 -0.47523E-06
 0.62800112E+01 -0.39732E-06
 0.63300109E+01 -0.31797E-06
 0.63800111E+01 -0.19768E-06
 0.64300113E+01 -0.12403E-06
 0.64800110E+01 -0.91311E-07
 0.65300112E+01 -0.14997E-07
 0.65800109E+01  0.64393E-07
 0.66300111E+01  0.14097E-06
 0.66800113E+01  0.23437E-06
 0.67300110E+01  0.32472E-06
 0.67800112E+01  0.37088E-06
 0.68300109E+01  0.40438E-06
 0.68800111E+01  0.40482E-06
 0.69300113E+01  0.35351E-06
 0.69800110E+01  0.29380E-06
 0.70300112E+01  0.22618E-06
 0.70800109E+01  0.16464E-06
 0.71300111E+01  0.11290E-06
 0.71800113E+01  0.70326E-07
 0.72300110E+01  0.38327E-07
 0.72800112E+01  0.20124E-08
 0.73300109E+01 -0.26843E-07
 0.73800111E+01  0.19391E-08
 0.74300113E+01  0.52344E-07
 0.74800110E+01  0.32474E-07
 0.75300112E+01 -0.34686E-07
 0.75800109E+01 -0.96903E-07
 0.76300111E+01 -0.14587E-06
 0.76800113E+01 -0.16460E-06
 0.77300110E+01 -0.15449E-06
 0.77800112E+01 -0.16515E-06
 0.78300109E+01 -0.25217E-06
 0.78800111E+01 -0.37322E-06
 0.79300113E+01 -0.42310E-06
 0.79800110E+01 -0.37406E-06
 0.80300112E+01 -0.30620E-06
 0.80800114E+01 -0.28131E-06
 0.81300116E+01 -0.25482E-06
 0.81800108E+01 -0.18113E-06
 0.82300110E+01 -0.10279E-06
 0.82800112E+01 -0.86561E-07
 0.83300114E+01 -0.68881E-07
 0.83800116E+01 -0.78296E-08
 0.84300108E+01  0.65645E-07
 0.84800110E+01  0.14119E-06
 0.85300112E+01  0.14778E-06
 0.85800114E+01  0.10549E-06
 0.86300116E+01  0.13505E-06
 0.86800108E+01  0.23629E-06
 0.87300110E+01  0.29018E-06
 0.87800112E+01  0.22897E-06
 0.88300114E+01  0.13762E-06
 0.88800116E+01  0.18812E-06
 0.89300108E+01  0.33603E-06
 0.89800110E+01  0.39945E-06
 0.90300112E+01  0.36989E-06
 0.90800114E+01  0.32472E-06
 0.91300116E+01  0.33577E-06
 0.91800108E+01  0.32287E-06
 0.92300110E+01  0.26229E-06
 0.92800112E+01  0.21030E-06
 0.93300114E+01  0.14068E-06
 0.93800116E+01  0.55489E-07
 0.94300108E+01 -0.89106E-07
 0.94800110E+01 -0.22744E-06
 0.95300112E+01 -0.32173E-06
 0.95800114E+01 -0.39450E-06
 0.96300116E+01 -0.44285E-06
 0.96800108E+01 -0.51329E-06
 0.97300110E+01 -0.56968E-06
 0.97800112E+01 -0.54641E-06
 0.98300114E+01 -0.48092E-06
 0.98800116E+01 -0.40219E-06
 0.99300108E+01 -0.26345E-06
 0.99800110E+01 -0.63989E-07
 0.10030011E+02  0.14567E-06
 0.10080011E+02  0.23157E-06
 0.10130012E+02  0.20830E-06
 0.10180011E+02  0.19953E-06
 0.10230011E+02  0.23223E-06
 0.10280011E+02  0.30287E-06
 0.10330011E+02  0.28953E-06
 0.10380012E+02  0.23196E-06
 0.10430011E+02  0.19580E-06
 0.10480011E+02  0.18230E-06
 0.10530011E+02  0.25975E-06
 0.10580011E+02  0.25710E-06
 0.10630012E+02  0.13081E-06
 0.10680011E+02  0.38665E-07
 0.10730011E+02  0.25275E-08
 0.10780011E+02 -0.45644E-07
 0.10830011E+02 -0.15710E-06
 0.10880012E+02 -0.27253E-06
 0.10930011E+02 -0.29830E-06
 0.10980011E+02 -0.27433E-06
 0.11030011E+02 -0.27728E-06
 0.11080011E+02 -0.27375E-06
 0.11130012E+02 -0.26316E-06
 0.11180011E+02 -0.21456E-06
 0.11230011E+02 -0.16426E-06
 0.11280011E+02 -0.17092E-06
 0.11330011E+02 -0.14621E-06
 0.11380012E+02 -0.81426E-07
 0.11430011E+02 -0.26027E-07
 0.11480011E+02  0.62766E-07
 0.11530011E+02  0.18428E-06
 0.11580011E+02  0.27760E-06
 0.11630012E+02  0.34693E-06
 0.11680011E+02  0.36798E-06
 0.11730011E+02  0.37830E-06
 0.11780011E+02  0.42509E-06
 0.11830011E+02  0.42857E-06
 0.11880012E+02  0.39225E-06
 0.11930011E+02  0.34380E-06
 0.11980011E+02  0.28606E-06
 0.12030011E+02  0.26578E-06
 0.12080011E+02  0.23968E-06
 0.12130012E+02  0.17985E-06
 0.12180011E+02  0.96204E-07
 0.12230011E+02 -0.17234E-08
 0.12280011E+02 -0.57399E-07
 0.12330011E+02 -0.16795E-06
 0.12380012E+02 -0.31182E-06
 0.12430011E+02 -0.35297E-06
 0.12480011E+02 -0.39170E-06
 0.12530011E+02 -0.46548E-06
 0.12580011E+02 -0.52467E-06
 0.12630012E+02 -0.51762E-06
 0.12680011E+02 -0.43401E-06
 0.12730011E+02 -0.34457E-06
 0.12780011E+02 -0.26430E-06
 0.12830011E+02 -0.21860E-06
 0.12880012E+02 -0.18285E-06
 0.12930011E+02 -0.15254E-06
 0.12980011E+02 -0.12785E-06
 0.13030011E+02 -0.98239E-07
 0.13080011E+02 -0.11141E-06
 0.13130012E+02 -0.94056E-07
 0.13180011E+02 -0.10779E-06
 0.13230011E+02 -0.17914E-06
 0.13280011E+02 -0.14185E-06
 0.13330011E+02 -0.31851E-07
 0.13380012E+02  0.12071E-06
 0.13430011E+02  0.27212E-06
 0.13480011E+02  0.32574E-06
 0.13530011E+02  0.35240E-06
 0.13580011E+02  0.40063E-06
 0.13630012E+02  0.41526E-06
 0.13680011E+02  0.36173E-06
 0.13730011E+02  0.26656E-06
 0.13780011E+02  0.21017E-06
 0.13830011E+02  0.25692E-06
 0.13880012E+02  0.32760E-06
 0.13930011E+02  0.28496E-06
 0.13980011E+02  0.21311E-06
 0.14030011E+02  0.25129E-06
 0.14080011E+02  0.35349E-06
 0.14130012E+02  0.37061E-06
 0.14180011E+02  0.31019E-06
 0.14230011E+02  0.22554E-06
 0.14280011E+02  0.95599E-07
 0.14330011E+02 -0.71759E-08
 0.14380012E+02 -0.15038E-06
 0.14430011E+02 -0.31819E-06
 0.14480011E+02 -0.39962E-06
 0.14530011E+02 -0.44262E-06
 0.14580011E+02 -0.46770E-06
 0.14630012E+02 -0.49198E-06
 0.14680011E+02 -0.48646E-06
 0.14730011E+02 -0.41874E-06
 0.14780011E+02 -0.31083E-06
 0.14830011E+02 -0.20394E-06
 0.14880012E+02 -0.13267E-06
 0.14930011E+02 -0.84253E-07
 0.14980011E+02  0.56952E-08
 0.15030011E+02  0.10615E-06
 0.15080011E+02  0.12328E-06
 0.15130012E+02  0.97340E-07
 0.15180011E+02  0.26482E-07
 0.15230011E+02 -0.37618E-07
 0.15280011E+02 -0.26040E-08
 0.15330011E+02  0.33093E-07
 0.15380012E+02  0.69538E-07
 0.15430011E+02  0.12038E-06
 0.15480011E+02  0.12743E-06
 0.15530011E+02  0.16779E-06
 0.15580011E+02  0.20277E-06
 0.15630012E+02  0.24451E-06
 0.15680011E+02  0.23352E-06
 0.15730011E+02  0.84396E-07
 0.15780011E+02  0.13121E-07
 0.15830011E+02 -0.24428E-07
 0.15880012E+02 -0.68796E-07
 0.15930011E+02 -0.51678E-07
 0.15980011E+02 -0.73735E-07
 0.16030012E+02 -0.96895E-07
 0.16080011E+02 -0.85849E-07
 0.16130011E+02 -0.85217E-07
 0.16180012E+02 -0.10466E-06
 0.16230011E+02 -0.12335E-06
 0.16280012E+02 -0.12701E-06
 0.16330011E+02 -0.13823E-06
 0.16380011E+02 -0.17023E-06
 0.16430012E+02 -0.16977E-06
 0.16480011E+02 -0.10626E-06
 0.16530012E+02 -0.55080E-07
 0.16580011E+02 -0.12746E-07
 0.16630011E+02  0.39584E-07
 0.16680012E+02  0.78230E-07
 0.16730011E+02  0.17619E-06
 0.16780012E+02  0.26364E-06
 0.16830011E+02  0.26613E-06
 0.16880011E+02  0.28067E-06
 0.16930012E+02  0.32815E-06
 0.16980011E+02  0.37261E-06
 0.17030012E+02  0.30699E-06
 0.17080011E+02  0.15856E-06
 0.17130011E+02  0.91306E-07
 0.17180012E+02  0.89468E-07
 0.17230011E+02  0.43597E-07
 0.17280012E+02 -0.86582E-07
 0.17330011E+02 -0.17233E-06
 0.17380011E+02 -0.18393E-06
 0.17430012E+02 -0.19884E-06
 0.17480011E+02 -0.18893E-06
 0.17530012E+02 -0.20554E-06
 0.17580011E+02 -0.23941E-06
 0.17630011E+02 -0.17642E-06
 0.17680012E+02 -0.11518E-06
 0.17730011E+02 -0.13848E-06
 0.17780012E+02 -0.15533E-06
 0.17830011E+02 -0.14126E-06
 0.17880011E+02 -0.11867E-06
 0.17930012E+02 -0.99095E-07
 0.17980011E+02 -0.72541E-07
 0.18030012E+02 -0.85281E-07
 0.18080011E+02 -0.84058E-07
 0.18130011E+02 -0.40542E-08
 0.18180012E+02  0.36458E-07
 0.18230011E+02  0.65232E-07
 0.18280012E+02  0.12294E-06
 0.18330011E+02  0.15993E-06
 0.18380011E+02  0.16699E-06
 0.18430012E+02  0.12918E-06
 0.18480011E+02  0.94240E-07
 0.18530012E+02  0.11638E-06
 0.18580011E+02  0.14348E-06
 0.18630011E+02  0.11724E-06
 0.18680012E+02  0.81449E-07
 0.18730011E+02  0.89776E-07
 0.18780012E+02  0.16768E-06
 0.18830011E+02  0.22102E-06
 0.18880011E+02  0.18916E-06
 0.18930012E+02  0.18055E-06
 0.18980011E+02  0.17133E-06
 0.19030012E+02  0.12909E-06
 0.19080011E+02  0.47445E-07
 0.19130011E+02 -0.12124E-06
 0.19180012E+02 -0.25529E-06
 0.19230011E+02 -0.30486E-06
 0.19280012E+02 -0.40910E-06
 0.19330011E+02 -0.55179E-06
 0.19380011E+02 -0.63076E-06
 0.19430012E+02 -0.62851E-06
 0.19480011E+02 -0.51047E-06
 0.19530012E+02 -0.41696E-06
 0.19580011E+02 -0.31395E-06
 0.19630011E+02 -0.71698E-07
 0.19680012E+02  0.10787E-06
 0.19730011E+02  0.40189E-06
 0.19780012E+02  0.48984E-06
 0.19830011E+02  0.53709E-06
 0.19880011E+02  0.64344E-06
 0.19930012E+02  0.10544E-05
 0.19980011E+02  0.31558E-05
 0.20030012E+02  0.60414E-05
 0.20080011E+02  0.11619E-04
 0.20130011E+02  0.23997E-04
 0.20180012E+02  0.41696E-04
 0.20230011E+02  0.42471E-04
 0.20280012E+02  0.24297E-04
 0.20330011E+02  0.10058E-04
 0.20380011E+02  0.62414E-05
 0.20430012E+02  0.57973E-05
 0.20480011E+02 -0.23419E-04
 0.20530012E+02 -0.18915E-04
 0.20580011E+02  0.35886E-04
 0.20630011E+02  0.71652E-04
 0.20680012E+02  0.11348E-03
 0.20730011E+02  0.91269E-04
 0.20780012E+02  0.79396E-05
 0.20830011E+02 -0.73770E-04
 0.20880011E+02 -0.16532E-03
 0.20930012E+02 -0.18857E-03
 0.20980011E+02 -0.12890E-03
 0.21030012E+02 -0.24364E-04
 0.21080011E+02  0.60020E-04
 0.21130011E+02  0.73427E-04
 0.21180012E+02  0.38246E-04
 0.21230011E+02 -0.13147E-05
 0.21280012E+02 -0.61805E-04
 0.21330011E+02 -0.10635E-03
 0.21380011E+02 -0.11953E-04
 0.21430012E+02 -0.14460E-05
 0.21480011E+02 -0.92941E-04
 0.21530012E+02 -0.28343E-04
 0.21580011E+02  0.10270E-05
 0.21630011E+02 -0.17889E-04
 0.21680012E+02  0.99085E-04
 0.21730011E+02  0.18871E-03
 0.21780012E+02  0.15487E-03
 0.21830011E+02  0.63200E-04
 0.21880011E+02  0.22993E-04
 0.21930012E+02  0.12700E-03
 0.21980011E+02  0.19463E-03
 0.22030012E+02  0.16004E-03
 0.22080011E+02  0.49860E-04
 0.22130011E+02 -0.36634E-04
 0.22180012E+02  0.90852E-04
 0.22230011E+02  0.35737E-04
 0.22280012E+02 -0.22973E-03
 0.22330011E+02 -0.28792E-03
 0.22380011E+02 -0.26465E-03
 0.22430012E+02 -0.36578E-03
 0.22480011E+02 -0.41782E-03
 0.22530012E+02 -0.20746E-03
 0.22580011E+02 -0.58553E-04
 0.22630011E+02 -0.10791E-04
 0.22680012E+02 -0.23167E-04
 0.22730011E+02 -0.20230E-03
 0.22780012E+02 -0.24477E-03
 0.22830011E+02 -0.16969E-03
 0.22880011E+02  0.16339E-04
 0.22930012E+02  0.77380E-04
 0.22980011E+02 -0.77190E-05
 0.23030012E+02  0.21465E-03
 0.23080011E+02  0.35501E-03
 0.23130011E+02  0.21223E-03
 0.23180012E+02  0.44083E-04
 0.23230011E+02 -0.61968E-04
 0.23280012E+02  0.58570E-04
 0.23330011E+02  0.26394E-03
 0.23380011E+02  0.19318E-03
 0.23430012E+02  0.44771E-04
 0.23480011E+02  0.19815E-03
 0.23530012E+02  0.29853E-03
 0.23580011E+02  0.14520E-03
 0.23630011E+02  0.74101E-04
 0.23680012E+02  0.15803E-03
 0.23730011E+02  0.21096E-03
 0.23780012E+02 -0.24598E-04
 0.23830011E+02 -0.24730E-03
 0.23880011E+02 -0.84492E-04
 0.23930012E+02  0.60618E-04
 0.23980011E+02  0.15997E-04
 0.24030012E+02  0.16421E-05
 0.24080011E+02 -0.11156E-04
 0.24130011E+02  0.10782E-03
 0.24180012E+02  0.28691E-03
 0.24230011E+02  0.20891E-03
 0.24280012E+02  0.11347E-04
 0.24330011E+02 -0.49852E-04
 0.24380011E+02  0.17643E-04
 0.24430012E+02 -0.10337E-03
 0.24480011E+02 -0.21805E-03
 0.24530012E+02 -0.18720E-03
 0.24580011E+02 -0.22473E-03
 0.24630011E+02 -0.27605E-03
 0.24680012E+02 -0.35760E-03
 0.24730011E+02 -0.23881E-03
 0.24780012E+02 -0.61948E-04
 0.24830011E+02  0.36315E-04
 0.24880011E+02  0.48295E-04
 0.24930012E+02 -0.93316E-04
 0.24980011E+02 -0.18697E-04
 0.25030012E+02 -0.25778E-04
 0.25080011E+02 -0.21615E-03
 0.25130011E+02 -0.17798E-03
 0.25180012E+02 -0.89422E-04
 0.25230011E+02 -0.10354E-03
 0.25280012E+02  0.19643E-04
 0.25330011E+02  0.27548E-03
 0.25380011E+02  0.25962E-03
 0.25430012E+02  0.17626E-03
 0.25480011E+02  0.18491E-03
 0.25530012E+02  0.79773E-04
 0.25580011E+02 -0.62226E-04
 0.25630011E+02 -0.16256E-03
 0.25680012E+02 -0.11131E-05
 0.25730011E+02  0.12485E-03
 0.25780012E+02  0.13675E-03
 0.25830011E+02  0.27016E-03
 0.25880011E+02  0.22271E-03
 0.25930012E+02  0.21951E-03
 0.25980011E+02  0.37436E-03
 0.26030012E+02  0.27405E-03
 0.26080011E+02  0.52779E-04
 0.26130011E+02 -0.18049E-04
 0.26180012E+02 -0.99923E-04
 0.26230011E+02 -0.21570E-03
 0.26280012E+02 -0.16448E-03
 0.26330011E+02  0.93964E-04
 0.26380011E+02  0.13129E-03
 0.26430012E+02 -0.39221E-04
 0.26480011E+02  0.28241E-04
 0.26530012E+02 -0.22514E-04
 0.26580011E+02 -0.18103E-03
 0.26630011E+02 -0.68572E-04
 0.26680012E+02 -0.11049E-03
 0.26730011E+02 -0.41997E-03
 0.26780012E+02 -0.38861E-03
 0.26830011E+02 -0.14212E-03
 0.26880011E+02  0.29823E-04
 0.26930012E+02  0.20289E-03
 0.26980011E+02  0.17043E-03
 0.27030012E+02  0.10888E-03
 0.27080011E+02  0.39337E-04
 0.27130011E+02 -0.24987E-03
 0.27180012E+02 -0.54229E-03
 0.27230011E+02 -0.60556E-03
 0.27280012E+02 -0.39585E-03
 0.27330011E+02 -0.68678E-04
 0.27380011E+02  0.10574E-03
 0.27430012E+02  0.15737E-03
 0.27480011E+02  0.34428E-03
 0.27530012E+02  0.42171E-03
 0.27580011E+02  0.29796E-03
 0.27630011E+02  0.14134E-03
 0.27680012E+02 -0.19853E-03
 0.27730011E+02 -0.45260E-03
 0.27780012E+02 -0.49454E-03
 0.27830011E+02 -0.55889E-03
 0.27880011E+02 -0.35005E-03
 0.27930012E+02 -0.66617E-04
 0.27980011E+02 -0.45616E-04
 0.28030012E+02  0.11841E-03
 0.28080011E+02  0.30274E-03
 0.28130011E+02  0.32626E-03
 0.28180012E+02  0.38833E-03
 0.28230011E+02  0.32442E-03
 0.28280012E+02  0.26022E-03
 0.28330011E+02  0.34214E-03
 0.28380011E+02  0.41088E-03
 0.28430012E+02  0.55297E-03
 0.28480011E+02  0.57018E-03
 0.28530012E+02  0.39180E-03
 0.28580011E+02  0.12886E-03
 0.28630011E+02 -0.57833E-04
 0.28680012E+02 -0.53339E-05
 0.28730011E+02 -0.12661E-03
 0.28780012E+02 -0.23398E-03
 0.28830011E+02 -0.13190E-03
 0.28880011E+02 -0.51610E-04
 0.28930012E+02  0.93053E-04
 0.28980011E+02  0.74525E-04
 0.29030012E+02 -0.64190E-04
 0.29080011E+02 -0.20310E-03
 0.29130011E+02 -0.43051E-03
 0.29180012E+02 -0.47488E-03
 0.29230011E+02 -0.43998E-03
 0.29280012E+02 -0.42749E-03
 0.29330011E+02 -0.20674E-03
 0.29380011E+02  0.59583E-04
 0.29430012E+02  0.30221E-03
 0.29480011E+02  0.55883E-03
 0.29530012E+02  0.58980E-03
 0.29580011E+02  0.26672E-03
 0.29630011E+02 -0.49975E-04
 0.29680012E+02 -0.17628E-03
 0.29730011E+02 -0.25960E-03
 0.29780012E+02 -0.24570E-03
 0.29830011E+02 -0.21479E-03
 0.29880011E+02 -0.18375E-03
 0.29930012E+02 -0.13646E-03
 0.29980011E+02 -0.12632E-03
 0.30030012E+02 -0.33179E-04
 0.30080011E+02  0.30242E-04
 0.30130011E+02  0.21044E-05
 0.30180012E+02  0.96440E-04
 0.30230011E+02  0.12407E-03
 0.30280012E+02  0.88151E-04
 0.30330011E+02 -0.12023E-03
 0.30380011E+02 -0.38905E-03
 0.30430012E+02 -0.12580E-03
 0.30480011E+02  0.62515E-04
 0.30530012E+02 -0.55495E-04
 0.30580011E+02 -0.61312E-04
 0.30630011E+02 -0.63862E-04
 0.30680012E+02 -0.52478E-04
 0.30730011E+02  0.35761E-04
 0.30780012E+02  0.14979E-03
 0.30830011E+02  0.28492E-03
 0.30880011E+02  0.44107E-03
 0.30930012E+02  0.46234E-03
 0.30980011E+02  0.41857E-03
 0.31030012E+02  0.48662E-03
 0.31080011E+02  0.61133E-03
 0.31130011E+02  0.48698E-03
 0.31180012E+02  0.11951E-03
 0.31230011E+02  0.14263E-04
 0.31280012E+02  0.80678E-04
 0.31330011E+02 -0.12197E-03
 0.31380011E+02 -0.39419E-03
 0.31430012E+02 -0.35271E-03
 0.31480011E+02 -0.33635E-03
 0.31530012E+02 -0.52719E-03
 0.31580011E+02 -0.32779E-03
 0.31630011E+02  0.77769E-04
 0.31680012E+02  0.43467E-04
 0.31730011E+02 -0.24782E-03
 0.31780012E+02 -0.42971E-03
 0.31830011E+02 -0.40357E-03
 0.31880011E+02 -0.41781E-03
 0.31930012E+02 -0.50678E-03
 0.31980011E+02 -0.43621E-03
 0.32030010E+02 -0.23519E-03
 0.32080013E+02 -0.26608E-04
 0.32130013E+02  0.45698E-04
 0.32180012E+02  0.17255E-03
 0.32230011E+02  0.18521E-03
 0.32280010E+02  0.63336E-05
 0.32330013E+02  0.74428E-04
 0.32380013E+02  0.15848E-03
 0.32430012E+02  0.33504E-03
 0.32480011E+02  0.60769E-03
 0.32530010E+02  0.45587E-03
 0.32580013E+02  0.23205E-03
 0.32630013E+02  0.18492E-03
 0.32680012E+02  0.69849E-04
 0.32730011E+02  0.13921E-04
 0.32780010E+02  0.11926E-03
 0.32830013E+02  0.18913E-03
 0.32880013E+02  0.39630E-04
 0.32930012E+02 -0.13796E-03
 0.32980011E+02 -0.17222E-03
 0.33030010E+02 -0.72041E-04
 0.33080013E+02  0.22178E-03
 0.33130013E+02  0.29814E-03
 0.33180012E+02  0.34200E-04
 0.33230011E+02 -0.10274E-03
 0.33280010E+02 -0.65369E-04
 0.33330013E+02  0.62795E-06
 0.33380013E+02 -0.21041E-04
 0.33430012E+02 -0.10026E-03
 0.33480011E+02 -0.12257E-03
 0.33530010E+02 -0.17476E-03
 0.33580013E+02 -0.23285E-03
 0.33630013E+02 -0.17622E-03
 0.33680012E+02 -0.14100E-03
 0.33730011E+02 -0.27622E-04
 0.33780010E+02  0.28762E-03
 0.33830013E+02  0.57420E-03
 0.33880013E+02  0.55195E-03
 0.33930012E+02  0.19032E-04
 0.33980011E+02 -0.68145E-03
 0.34030010E+02 -0.99870E-03
 0.34080013E+02 -0.82745E-03
 0.34130013E+02 -0.58336E-03
 0.34180012E+02 -0.28234E-03
 0.34230011E+02  0.73943E-04
 0.34280010E+02  0.21875E-03
 0.34330013E+02  0.37536E-03
 0.34380013E+02  0.32044E-03
 0.34430012E+02  0.20589E-03
 0.34480011E+02  0.19732E-03
 0.34530010E+02 -0.17121E-04
 0.34580013E+02 -0.10757E-04
 0.34630013E+02  0.12732E-03
 0.34680012E+02  0.21552E-03
 0.34730011E+02  0.38623E-03
 0.34780010E+02  0.48921E-03
 0.34830013E+02  0.50650E-03
 0.34880013E+02  0.39376E-03
 0.34930012E+02  0.19822E-03
 0.34980011E+02  0.10248E-03
 0.35030010E+02 -0.86978E-05
 0.35080013E+02 -0.58493E-03
 0.35130013E+02 -0.10846E-02
 0.35180012E+02 -0.83458E-03
 0.35230011E+02 -0.32785E-03
 0.35280010E+02  0.26538E-03
 0.35330013E+02  0.11269E-02
 0.35380013E+02  0.18037E-02
 0.35430012E+02  0.17089E-02
 0.35480011E+02  0.88457E-03
 0.35530010E+02 -0.36663E-04
 0.35580013E+02 -0.37012E-03
 0.35630013E+02 -0.34945E-03
 0.35680012E+02 -0.44301E-03
 0.35730011E+02 -0.53705E-03
 0.35780010E+02 -0.58038E-03
 0.35830013E+02 -0.36306E-03
 0.35880013E+02 -0.15767E-03
 0.35930012E+02 -0.40804E-03
 0.35980011E+02 -0.67542E-03
 0.36030010E+02 -0.29177E-03
 0.36080013E+02  0.53091E-03
 0.36130013E+02  0.31403E-03
 0.36180012E+02 -0.14860E-02
 0.36230011E+02 -0.36622E-02
 0.36280010E+02 -0.47325E-02
 0.36330013E+02 -0.39529E-02
 0.36380013E+02 -0.13862E-02
 0.36430012E+02  0.10312E-02
 0.36480011E+02  0.23792E-02
 0.36530010E+02  0.33662E-02
 0.36580013E+02  0.34905E-02
 0.36630013E+02  0.25886E-02
 0.36680012E+02  0.29580E-03
 0.36730011E+02 -0.32935E-02
 0.36780010E+02 -0.62816E-02
 0.36830013E+02 -0.51383E-02
 0.36880013E+02 -0.21640E-02
 0.36930012E+02  0.39713E-03
 0.36980011E+02  0.40914E-02
 0.37030010E+02  0.76324E-02
 0.37080013E+02  0.10383E-01
 0.37130013E+02  0.92506E-02
 0.37180012E+02  0.50372E-02
 0.37230011E+02  0.11026E-02
 0.37280010E+02 -0.15109E-02
 0.37330013E+02 -0.34347E-02
 0.37380013E+02 -0.50840E-02
 0.37430012E+02 -0.42897E-02
 0.37480011E+02 -0.27898E-02
 0.37530010E+02 -0.94480E-03
 0.37580013E+02  0.76401E-03
 0.37630013E+02  0.18364E-02
 0.37680012E+02  0.26847E-02
 0.37730011E+02  0.10807E-02
 0.37780010E+02 -0.56736E-03
 0.37830013E+02 -0.66141E-03
 0.37880013E+02 -0.49236E-03
 0.37930012E+02 -0.25781E-03
 0.37980011E+02 -0.61882E-03
 0.38030010E+02 -0.23847E-03
 0.38080013E+02 -0.46398E-03
 0.38130013E+02 -0.26797E-02
 0.38180012E+02 -0.42587E-02
 0.38230011E+02 -0.49449E-02
 0.38280010E+02 -0.51489E-02
 0.38330013E+02 -0.49934E-02
 0.38380013E+02 -0.37922E-02
 0.38430012E+02 -0.73548E-03
 0.38480011E+02  0.30643E-02
 0.38530010E+02  0.58938E-02
 0.38580013E+02  0.65869E-02
 0.38630013E+02  0.59372E-02
 0.38680012E+02  0.43465E-02
 0.38730011E+02  0.25675E-02
 0.38780010E+02  0.16438E-02
 0.38830013E+02  0.63707E-03
 0.38880013E+02 -0.49223E-03
 0.38930012E+02 -0.13668E-02
 0.38980011E+02 -0.26703E-02
 0.39030010E+02 -0.36516E-02
 0.39080013E+02 -0.38926E-02
 0.39130013E+02 -0.31248E-02
 0.39180012E+02 -0.13766E-02
 0.39230011E+02 -0.17824E-03
 0.39280010E+02  0.63039E-03
 0.39330013E+02  0.11199E-02
 0.39380013E+02  0.12845E-02
 0.39430012E+02  0.17307E-02
 0.39480011E+02  0.26314E-02
 0.39530010E+02  0.28163E-02
 0.39580013E+02  0.86546E-03
 0.39630013E+02 -0.11541E-02
 0.39680012E+02 -0.19546E-02
 0.39730011E+02 -0.15116E-02
 0.39780010E+02  0.83917E-03
 0.39830013E+02  0.22894E-02
 0.39880013E+02  0.11166E-02
 0.39930012E+02  0.26783E-03
 0.39980011E+02  0.45505E-03
 0.40030010E+02  0.31158E-03
 0.40080013E+02  0.41937E-03
 0.40130013E+02  0.10241E-02
 0.40180012E+02  0.18338E-02
 0.40230011E+02  0.15300E-02
 0.40280010E+02 -0.41307E-04
 0.40330013E+02 -0.13918E-02
 0.40380013E+02 -0.32224E-02
 0.40430012E+02 -0.46981E-02
 0.40480011E+02 -0.49749E-02
 0.40530010E+02 -0.46582E-02
 0.40580013E+02 -0.27759E-02
 0.40630013E+02  0.78960E-04
 0.40680012E+02  0.27039E-02
 0.40730011E+02  0.51037E-02
 0.40780010E+02  0.59704E-02
 0.40830013E+02  0.45811E-02
 0.40880013E+02  0.23062E-02
 0.40930012E+02  0.46419E-04
 0.40980011E+02 -0.19961E-02
 0.41030010E+02 -0.25574E-02
 0.41080013E+02 -0.57165E-03
 0.41130013E+02  0.19987E-02
 0.41180012E+02  0.31735E-02
 0.41230011E+02  0.30313E-02
 0.41280010E+02  0.17626E-02
 0.41330013E+02 -0.38143E-03
 0.41380013E+02 -0.32529E-02
 0.41430012E+02 -0.58214E-02
 0.41480011E+02 -0.65513E-02
 0.41530010E+02 -0.57520E-02
 0.41580013E+02 -0.42202E-02
 0.41630013E+02 -0.18319E-02
 0.41680012E+02  0.53561E-03
 0.41730011E+02  0.14912E-02
 0.41780010E+02  0.11905E-02
 0.41830013E+02  0.39827E-03
 0.41880013E+02 -0.27966E-03
 0.41930012E+02 -0.79417E-03
 0.41980011E+02 -0.15482E-02
 0.42030010E+02 -0.16549E-02
 0.42080013E+02 -0.42180E-03
 0.42130013E+02  0.17295E-02
 0.42180012E+02  0.48637E-02
 0.42230011E+02  0.70928E-02
 0.42280010E+02  0.65043E-02
 0.42330013E+02  0.49722E-02
 0.42380013E+02  0.37139E-02
 0.42430012E+02  0.19657E-02
 0.42480011E+02  0.42993E-03
 0.42530010E+02 -0.17035E-03
 0.42580013E+02 -0.12359E-02
 0.42630013E+02 -0.28820E-02
 0.42680012E+02 -0.33995E-02
 0.42730011E+02 -0.25897E-02
 0.42780010E+02 -0.95783E-03
 0.42830013E+02  0.33321E-03
 0.42880013E+02 -0.92735E-04
 0.42930012E+02 -0.13909E-02
 0.42980011E+02 -0.24050E-02
 0.43030010E+02 -0.27973E-02
 0.43080013E+02 -0.27058E-02
 0.43130013E+02 -0.25255E-02
 0.43180012E+02 -0.13996E-02
 0.43230011E+02  0.60848E-03
 0.43280010E+02  0.20611E-02
 0.43330013E+02  0.32620E-02
 0.43380013E+02  0.44558E-02
 0.43430012E+02  0.47035E-02
 0.43480011E+02  0.43647E-02
 0.43530010E+02  0.40984E-02
 0.43580013E+02  0.28330E-02
 0.43630013E+02 -0.20987E-03
 0.43680012E+02 -0.36154E-02
 0.43730011E+02 -0.60310E-02
 0.43780010E+02 -0.66556E-02
 0.43830013E+02 -0.54186E-02
 0.43880013E+02 -0.32130E-02
 0.43930012E+02 -0.10190E-02
 0.43980011E+02  0.86749E-05
 0.44030010E+02  0.27204E-03
 0.44080013E+02  0.28411E-03
 0.44130013E+02  0.34551E-04
 0.44180012E+02 -0.33047E-03
 0.44230011E+02 -0.10770E-02
 0.44280010E+02 -0.15815E-02
 0.44330013E+02 -0.12969E-02
 0.44380013E+02 -0.30872E-03
 0.44430012E+02  0.11601E-02
 0.44480011E+02  0.26510E-02
 0.44530010E+02  0.36282E-02
 0.44580013E+02  0.42152E-02
 0.44630013E+02  0.51656E-02
 0.44680012E+02  0.57103E-02
 0.44730011E+02  0.41907E-02
 0.44780010E+02  0.15283E-02
 0.44830013E+02 -0.56061E-03
 0.44880013E+02 -0.19072E-02
 0.44930012E+02 -0.25852E-02
 0.44980011E+02 -0.32231E-02
 0.45030010E+02 -0.34589E-02
 0.45080013E+02 -0.30320E-02
 0.45130013E+02 -0.29566E-02
 0.45180012E+02 -0.25512E-02
 0.45230011E+02 -0.13794E-02
 0.45280010E+02 -0.43954E-03
 0.45330013E+02 -0.16938E-03
 0.45380013E+02 -0.46039E-03
 0.45430012E+02 -0.60983E-03
 0.45480011E+02 -0.69599E-04
 0.45530010E+02  0.78674E-03
 0.45580013E+02  0.13141E-02
 0.45630013E+02  0.94891E-03
 0.45680012E+02  0.19263E-03
 0.45730011E+02  0.56268E-04
 0.45780010E+02  0.82874E-03
 0.45830013E+02  0.18747E-02
 0.45880013E+02  0.26869E-02
 0.45930012E+02  0.29587E-02
 0.45980011E+02  0.22235E-02
 0.46030010E+02  0.18467E-02
 0.46080013E+02  0.20518E-02
 0.46130013E+02  0.20181E-02
 0.46180012E+02  0.17298E-02
 0.46230011E+02  0.39731E-03
 0.46280010E+02 -0.12651E-02
 0.46330013E+02 -0.26303E-02
 0.46380013E+02 -0.36202E-02
 0.46430012E+02 -0.39116E-02
 0.46480011E+02 -0.40617E-02
 0.46530010E+02 -0.36774E-02
 0.46580013E+02 -0.25227E-02
 0.46630013E+02 -0.15388E-02
 0.46680012E+02 -0.10089E-02
 0.46730011E+02 -0.65242E-04
 0.46780010E+02  0.14746E-02
 0.46830013E+02  0.25675E-02
 0.46880013E+02  0.23909E-02
 0.46930012E+02  0.11231E-02
 0.46980011E+02 -0.90433E-04
 0.47030010E+02 -0.51829E-03
 0.47080013E+02 -0.32156E-03
 0.47130013E+02  0.21226E-04
 0.47180012E+02  0.64964E-04
 0.47230011E+02 -0.65254E-04
 0.47280010E+02 -0.27727E-03
 0.47330013E+02 -0.70746E-03
 0.47380013E+02 -0.98229E-03
 0.47430012E+02 -0.87311E-03
 0.47480011E+02 -0.44443E-03
 0.47530010E+02  0.13162E-03
 0.47580013E+02  0.71527E-03
 0.47630013E+02  0.13072E-02
 0.47680012E+02  0.15505E-02
 0.47730011E+02  0.13754E-02
 0.47780010E+02  0.12986E-02
 0.47830013E+02  0.17046E-02
 0.47880013E+02  0.21558E-02
 0.47930012E+02  0.20320E-02
 0.47980011E+02  0.16488E-02
 0.48030010E+02  0.14549E-02
 0.48080013E+02  0.14292E-02
 0.48130013E+02  0.12557E-02
 0.48180012E+02  0.52515E-03
 0.48230011E+02 -0.14148E-03
 0.48280010E+02 -0.49349E-03
 0.48330013E+02 -0.95431E-03
 0.48380013E+02 -0.86670E-03
 0.48430012E+02 -0.36100E-03
 0.48480011E+02 -0.94667E-04
 0.48530010E+02  0.68564E-04
 0.48580013E+02  0.95707E-04
 0.48630013E+02 -0.83490E-04
 0.48680012E+02 -0.54605E-03
 0.48730011E+02 -0.12966E-02
 0.48780010E+02 -0.22174E-02
 0.48830013E+02 -0.33935E-02
 0.48880013E+02 -0.45374E-02
 0.48930012E+02 -0.50927E-02
 0.48980011E+02 -0.47674E-02
 0.49030010E+02 -0.36651E-02
 0.49080013E+02 -0.18944E-02
 0.49130013E+02  0.38212E-03
 0.49180012E+02  0.24295E-02
 0.49230011E+02  0.33842E-02
 0.49280010E+02  0.29770E-02
 0.49330013E+02  0.18170E-02
 0.49380013E+02  0.78142E-03
 0.49430012E+02  0.37997E-03
 0.49480011E+02  0.28657E-03
 0.49530010E+02  0.69216E-03
 0.49580013E+02  0.17901E-02
 0.49630013E+02  0.26130E-02
 0.49680012E+02  0.27832E-02
 0.49730011E+02  0.21907E-02
 0.49780010E+02  0.12523E-02
 0.49830013E+02  0.49587E-03
 0.49880013E+02 -0.26525E-03
 0.49930012E+02 -0.89033E-03
 0.49980011E+02 -0.12715E-02
 0.50030010E+02 -0.13521E-02
 0.50080013E+02 -0.12049E-02
 0.50130013E+02 -0.85207E-03
 0.50180012E+02 -0.12757E-03
 0.50230011E+02  0.75817E-03
 0.50280010E+02  0.12393E-02
 0.50330013E+02  0.10418E-02
 0.50380013E+02  0.47379E-03
 0.50430012E+02 -0.35097E-03
 0.50480011E+02 -0.10598E-02
 0.50530010E+02 -0.12886E-02
 0.50580013E+02 -0.52316E-03
 0.50630013E+02  0.12196E-02
 0.50680012E+02  0.26229E-02
 0.50730011E+02  0.33013E-02
 0.50780010E+02  0.32273E-02
 0.50830013E+02  0.27629E-02
 0.50880013E+02  0.22491E-02
 0.50930012E+02  0.87752E-03
 0.50980011E+02 -0.13895E-02
 0.51030010E+02 -0.36878E-02
 0.51080013E+02 -0.51330E-02
 0.51130013E+02 -0.53998E-02
 0.51180012E+02 -0.47827E-02
 0.51230011E+02 -0.37728E-02
 0.51280010E+02 -0.26838E-02
 0.51330013E+02 -0.14573E-02
 0.51380013E+02 -0.40031E-03
 0.51430012E+02  0.39300E-03
 0.51480011E+02  0.10822E-02
 0.51530010E+02  0.13710E-02
 0.51580013E+02  0.14515E-02
 0.51630013E+02  0.13940E-02
 0.51680012E+02  0.10698E-02
 0.51730011E+02  0.81004E-03
 0.51780010E+02  0.58063E-03
 0.51830013E+02  0.19806E-03
 0.51880013E+02 -0.18441E-03
 0.51930012E+02 -0.28123E-03
 0.51980011E+02  0.20425E-03
 0.52030010E+02  0.83194E-03
 0.52080013E+02  0.69856E-03
 0.52130013E+02  0.28113E-03
 0.52180012E+02  0.89285E-04
 0.52230011E+02 -0.22272E-03
 0.52280010E+02 -0.62551E-03
 0.52330013E+02 -0.10024E-02
 0.52380013E+02 -0.12598E-02
 0.52430012E+02 -0.12053E-02
 0.52480011E+02 -0.69269E-03
 0.52530010E+02  0.11849E-03
 0.52580013E+02  0.10976E-02
 0.52630013E+02  0.21986E-02
 0.52680012E+02  0.32409E-02
 0.52730011E+02  0.38567E-02
 0.52780010E+02  0.38985E-02
 0.52830013E+02  0.34250E-02
 0.52880013E+02  0.23104E-02
 0.52930012E+02  0.77222E-03
 0.52980011E+02 -0.82931E-03
 0.53030010E+02 -0.19080E-02
 0.53080013E+02 -0.20291E-02
 0.53130013E+02 -0.13912E-02
 0.53180012E+02 -0.60642E-03
 0.53230011E+02 -0.16327E-03
 0.53280010E+02  0.25789E-03
 0.53330013E+02  0.55133E-03
 0.53380013E+02  0.25974E-03
 0.53430012E+02 -0.45941E-03
 0.53480011E+02 -0.14770E-02
 0.53530010E+02 -0.24024E-02
 0.53580013E+02 -0.28967E-02
 0.53630013E+02 -0.29285E-02
 0.53680012E+02 -0.20936E-02
 0.53730011E+02 -0.84804E-03
 0.53780010E+02 -0.59204E-04
 0.53830013E+02  0.25533E-03
 0.53880013E+02  0.21257E-03
 0.53930012E+02  0.19758E-03
 0.53980011E+02  0.27668E-03
 0.54030010E+02  0.15134E-03
 0.54080013E+02 -0.23878E-04
 0.54130013E+02 -0.27361E-03
 0.54180012E+02 -0.34068E-03
 0.54230011E+02  0.33690E-04
 0.54280010E+02  0.46457E-03
 0.54330013E+02  0.95461E-03
 0.54380013E+02  0.13024E-02
 0.54430012E+02  0.10823E-02
 0.54480011E+02  0.45422E-03
 0.54530010E+02 -0.30724E-03
 0.54580013E+02 -0.97252E-03
 0.54630013E+02 -0.14632E-02
 0.54680012E+02 -0.16275E-02
 0.54730011E+02 -0.13101E-02
 0.54780010E+02 -0.56835E-03
 0.54830013E+02  0.56279E-03
 0.54880013E+02  0.16893E-02
 0.54930012E+02  0.23322E-02
 0.54980011E+02  0.24018E-02
 0.55030010E+02  0.21763E-02
 0.55080013E+02  0.18560E-02
 0.55130013E+02  0.12785E-02
 0.55180012E+02  0.50952E-03
 0.55230011E+02 -0.22035E-03
 0.55280010E+02 -0.44827E-03
 0.55330013E+02 -0.51758E-04
 0.55380013E+02  0.55478E-03
 0.55430012E+02  0.98982E-03
 0.55480011E+02  0.87476E-03
 0.55530010E+02  0.62884E-03
 0.55580013E+02  0.56532E-03
 0.55630013E+02  0.42714E-03
 0.55680012E+02  0.17103E-03
 0.55730011E+02 -0.46647E-03
 0.55780010E+02 -0.11924E-02
 0.55830013E+02 -0.16327E-02
 0.55880013E+02 -0.22461E-02
 0.55930012E+02 -0.29712E-02
 0.55980011E+02 -0.33129E-02
 0.56030010E+02 -0.31522E-02
 0.56080013E+02 -0.26723E-02
 0.56130013E+02 -0.20438E-02
 0.56180012E+02 -0.11247E-02
 0.56230011E+02  0.33786E-03
 0.56280010E+02  0.21555E-02
 0.56330013E+02  0.33924E-02
 0.56380013E+02  0.35545E-02
 0.56430012E+02  0.29230E-02
 0.56480011E+02  0.16757E-02
 0.56530010E+02  0.19157E-03
 0.56580013E+02 -0.10389E-02
 0.56630013E+02 -0.19553E-02
 0.56680012E+02 -0.23564E-02
 0.56730011E+02 -0.19319E-02
 0.56780010E+02 -0.10112E-02
 0.56830013E+02 -0.10608E-03
 0.56880013E+02  0.49360E-03
 0.56930012E+02  0.85806E-03
 0.56980011E+02  0.10779E-02
 0.57030010E+02  0.93073E-03
 0.57080013E+02  0.62825E-03
 0.57130013E+02  0.46269E-03
 0.57180012E+02  0.36469E-03
 0.57230011E+02  0.29422E-03
 0.57280010E+02  0.36604E-03
 0.57330013E+02  0.69195E-03
 0.57380013E+02  0.96166E-03
 0.57430012E+02  0.10838E-02
 0.57480011E+02  0.10647E-02
 0.57530010E+02  0.76305E-03
 0.57580013E+02  0.57429E-03
 0.57630013E+02  0.46092E-03
 0.57680012E+02  0.20120E-03
 0.57730011E+02 -0.83557E-04
 0.57780010E+02 -0.54148E-03
 0.57830013E+02 -0.89545E-03
 0.57880013E+02 -0.85481E-03
 0.57930012E+02 -0.73665E-03
 0.57980011E+02 -0.66254E-03
 0.58030010E+02 -0.44761E-03
 0.58080013E+02 -0.12982E-03
 0.58130013E+02 -0.55368E-04
 0.58180012E+02 -0.11878E-03
 0.58230011E+02 -0.97164E-04
 0.58280010E+02  0.34667E-05
 0.58330013E+02  0.23315E-03
 0.58380013E+02  0.24592E-03
 0.58430012E+02  0.73309E-04
 0.58480011E+02 -0.20092E-04
 0.58530010E+02 -0.24243E-03
 0.58580013E+02 -0.73046E-03
 0.58630013E+02 -0.13421E-02
 0.58680012E+02 -0.17416E-02
 0.58730011E+02 -0.16997E-02
 0.58780010E+02 -0.12676E-02
 0.58830013E+02 -0.58954E-03
 0.58880013E+02  0.39265E-03
 0.58930012E+02  0.14883E-02
 0.58980011E+02  0.23141E-02
 0.59030010E+02  0.26883E-02
 0.59080013E+02  0.23720E-02
 0.59130013E+02  0.13291E-02
 0.59180012E+02 -0.13164E-03
 0.59230011E+02 -0.15106E-02
 0.59280010E+02 -0.24212E-02
 0.59330013E+02 -0.27612E-02
 0.59380013E+02 -0.25604E-02
 0.59430012E+02 -0.20626E-02
 0.59480011E+02 -0.16167E-02
 0.59530010E+02 -0.12176E-02
 0.59580013E+02 -0.54159E-03
 0.59630013E+02  0.38841E-03
 0.59680012E+02  0.12043E-02
 0.59730011E+02  0.17732E-02
 0.59780010E+02  0.20949E-02
 0.59830013E+02  0.21472E-02
 0.59880013E+02  0.21718E-02
 0.59930012E+02  0.22228E-02
 0.59980011E+02  0.20521E-02
 0.60030010E+02  0.16228E-02
 0.60080013E+02  0.90886E-03
 0.60130013E+02  0.21087E-03
 0.60180012E+02 -0.27681E-03
 0.60230011E+02 -0.78874E-03
 0.60280010E+02 -0.11276E-02
 0.60330013E+02 -0.10950E-02
 0.60380013E+02 -0.92008E-03
 0.60430012E+02 -0.72614E-03
 0.60480011E+02 -0.43767E-03
 0.60530010E+02 -0.25061E-03
 0.60580013E+02 -0.18686E-03
 0.60630013E+02  0.10572E-03
 0.60680012E+02  0.76772E-03
 0.60730011E+02  0.15747E-02
 0.60780010E+02  0.20336E-02
 0.60830013E+02  0.20129E-02
 0.60880013E+02  0.16817E-02
 0.60930012E+02  0.10390E-02
 0.60980011E+02  0.79031E-04
 0.61030010E+02 -0.11067E-02
 0.61080013E+02 -0.20824E-02
 0.61130013E+02 -0.25549E-02
 0.61180012E+02 -0.27598E-02
 0.61230011E+02 -0.27175E-02
 0.61280010E+02 -0.22820E-02
 0.61330013E+02 -0.15535E-02
 0.61380013E+02 -0.82255E-03
 0.61430012E+02 -0.26263E-03
 0.61480011E+02  0.24629E-03
 0.61530010E+02  0.70465E-03
 0.61580013E+02  0.85163E-03
 0.61630013E+02  0.69175E-03
 0.61680012E+02  0.43317E-03
 0.61730011E+02  0.10452E-03
 0.61780010E+02 -0.26594E-03
 0.61830013E+02 -0.55814E-03
 0.61880013E+02 -0.58114E-03
 0.61930012E+02 -0.34994E-03
 0.61980011E+02  0.54536E-05
 0.62030010E+02  0.29947E-03
 0.62080013E+02  0.30040E-03
 0.62130013E+02  0.41073E-03
 0.62180012E+02  0.95771E-03
 0.62230011E+02  0.13548E-02
 0.62280010E+02  0.13129E-02
 0.62330013E+02  0.11385E-02
 0.62380013E+02  0.92646E-03
 0.62430012E+02  0.77760E-03
 0.62480011E+02  0.70428E-03
 0.62530010E+02  0.46715E-03
 0.62580013E+02  0.17224E-03
 0.62630013E+02  0.21697E-04
 0.62680012E+02 -0.26367E-03
 0.62730011E+02 -0.58510E-03
 0.62780010E+02 -0.53789E-03
 0.62830013E+02 -0.31878E-03
 0.62880013E+02 -0.11011E-03
 0.62930012E+02  0.17383E-03
 0.62980011E+02  0.54982E-03
 0.63030010E+02  0.92047E-03
 0.63080013E+02  0.10997E-02
 0.63130013E+02  0.10199E-02
 0.63180012E+02  0.71122E-03
 0.63230011E+02  0.21036E-03
 0.63280010E+02 -0.34265E-03
 0.63330013E+02 -0.90312E-03
 0.63380013E+02 -0.15436E-02
 0.63430012E+02 -0.21738E-02
 0.63480011E+02 -0.26458E-02
 0.63530010E+02 -0.29026E-02
 0.63580013E+02 -0.29050E-02
 0.63630013E+02 -0.25858E-02
 0.63680012E+02 -0.19367E-02
 0.63730011E+02 -0.11060E-02
 0.63780010E+02 -0.29663E-03
 0.63830013E+02  0.31156E-03
 0.63880013E+02  0.61337E-03
 0.63930012E+02  0.81123E-03
 0.63980011E+02  0.11419E-02
 0.64030014E+02  0.15352E-02
 0.64080009E+02  0.18487E-02
 0.64130013E+02  0.20133E-02
 0.64180016E+02  0.21120E-02
 0.64230011E+02  0.22431E-02
 0.64280014E+02  0.22855E-02
 0.64330009E+02  0.21700E-02
 0.64380013E+02  0.18339E-02
 0.64430016E+02  0.12370E-02
 0.64480011E+02  0.46493E-03
 0.64530014E+02 -0.46403E-03
 0.64580009E+02 -0.12799E-02
 0.64630013E+02 -0.16696E-02
 0.64680016E+02 -0.15750E-02
 0.64730011E+02 -0.12200E-02
 0.64780014E+02 -0.97206E-03
 0.64830009E+02 -0.85361E-03
 0.64880013E+02 -0.64504E-03
 0.64930016E+02 -0.37702E-03
 0.64980011E+02 -0.20333E-03
 0.65030014E+02 -0.11907E-03
 0.65080009E+02 -0.91377E-04
 0.65130013E+02  0.10731E-03
 0.65180016E+02  0.29588E-03
 0.65230011E+02  0.22015E-03
 0.65280014E+02  0.74438E-04
 0.65330009E+02 -0.12074E-03
 0.65380013E+02 -0.11077E-03
 0.65430016E+02  0.12777E-03
 0.65480011E+02  0.35541E-03
 0.65530014E+02  0.64996E-03
 0.65580009E+02  0.86400E-03
 0.65630013E+02  0.85211E-03
 0.65680016E+02  0.77857E-03
 0.65730011E+02  0.73718E-03
 0.65780014E+02  0.53453E-03
 0.65830009E+02  0.11957E-03
 0.65880013E+02 -0.39575E-03
 0.65930016E+02 -0.10351E-02
 0.65980011E+02 -0.16061E-02
 0.66030014E+02 -0.19885E-02
 0.66080009E+02 -0.21005E-02
 0.66130013E+02 -0.18684E-02
 0.66180016E+02 -0.14612E-02
 0.66230011E+02 -0.78512E-03
 0.66280014E+02  0.13825E-03
 0.66330009E+02  0.10356E-02
 0.66380013E+02  0.17605E-02
 0.66430016E+02  0.20956E-02
 0.66480011E+02  0.19946E-02
 0.66530014E+02  0.16985E-02
 0.66580009E+02  0.12716E-02
 0.66630013E+02  0.68368E-03
 0.66680016E+02  0.15980E-03
 0.66730011E+02 -0.12404E-03
 0.66780014E+02 -0.28603E-03
 0.66830009E+02 -0.41460E-03
 0.66880013E+02 -0.56571E-03
 0.66930016E+02 -0.78829E-03
 0.66980011E+02 -0.10156E-02
 0.67030014E+02 -0.11810E-02
 0.67080009E+02 -0.11193E-02
 0.67130013E+02 -0.83596E-03
 0.67180016E+02 -0.61018E-03
 0.67230011E+02 -0.47168E-03
 0.67280014E+02 -0.29428E-03
 0.67330009E+02 -0.10251E-03
 0.67380013E+02  0.13552E-03
 0.67430016E+02  0.44941E-03
 0.67480011E+02  0.76996E-03
 0.67530014E+02  0.10175E-02
 0.67580009E+02  0.10572E-02
 0.67630013E+02  0.10132E-02
 0.67680016E+02  0.10657E-02
 0.67730011E+02  0.11208E-02
 0.67780014E+02  0.11463E-02
 0.67830009E+02  0.13000E-02
 0.67880013E+02  0.16050E-02
 0.67930016E+02  0.18143E-02
 0.67980011E+02  0.18336E-02
 0.68030014E+02  0.16150E-02
 0.68080009E+02  0.10557E-02
 0.68130013E+02  0.33433E-03
 0.68180016E+02 -0.41610E-03
 0.68230011E+02 -0.13063E-02
 0.68280014E+02 -0.21702E-02
 0.68330009E+02 -0.28286E-02
 0.68380013E+02 -0.32065E-02
 0.68430016E+02 -0.30905E-02
 0.68480011E+02 -0.26710E-02
 0.68530014E+02 -0.20969E-02
 0.68580009E+02 -0.13809E-02
 0.68630013E+02 -0.82492E-03
 0.68680016E+02 -0.51218E-03
 0.68730011E+02 -0.36690E-03
 0.68780014E+02 -0.26948E-03
 0.68830009E+02 -0.11359E-03
 0.68880013E+02 -0.17742E-04
 0.68930016E+02  0.77675E-04
 0.68980011E+02  0.13834E-03
 0.69030014E+02 -0.76651E-04
 0.69080009E+02 -0.31780E-03
 0.69130013E+02 -0.27341E-03
 0.69180016E+02  0.97507E-04
 0.69230011E+02  0.70496E-03
 0.69280014E+02  0.12448E-02
 0.69330009E+02  0.14332E-02
 0.69380013E+02  0.13109E-02
 0.69430016E+02  0.11526E-02
 0.69480011E+02  0.10111E-02
 0.69530014E+02  0.88660E-03
 0.69580009E+02  0.77998E-03
 0.69630013E+02  0.57824E-03
 0.69680016E+02  0.40886E-03
 0.69730011E+02  0.51622E-03
 0.69780014E+02  0.84961E-03
 0.69830009E+02  0.11479E-02
 0.69880013E+02  0.13686E-02
 0.69930016E+02  0.14384E-02
 0.69980011E+02  0.12859E-02
 0.70030014E+02  0.91543E-03
 0.70080009E+02  0.29685E-03
 0.70130013E+02 -0.29843E-03
 0.70180016E+02 -0.77528E-03
 0.70230011E+02 -0.12218E-02
 0.70280014E+02 -0.15532E-02
 0.70330009E+02 -0.17826E-02
 0.70380013E+02 -0.19413E-02
 0.70430016E+02 -0.19141E-02
 0.70480011E+02 -0.16133E-02
 0.70530014E+02 -0.10909E-02
 0.70580009E+02 -0.43264E-03
 0.70630013E+02  0.27596E-03
 0.70680016E+02  0.78957E-03
 0.70730011E+02  0.86804E-03
 0.70780014E+02  0.62336E-03
 0.70830009E+02  0.21586E-03
 0.70880013E+02 -0.22387E-03
 0.70930016E+02 -0.47774E-03
 0.70980011E+02 -0.43732E-03
 0.71030014E+02 -0.26236E-03
 0.71080009E+02 -0.26390E-03
 0.71130013E+02 -0.30570E-03
 0.71180016E+02 -0.21119E-03
 0.71230011E+02 -0.93709E-04
 0.71280014E+02  0.10244E-03
 0.71330009E+02  0.32724E-03
 0.71380013E+02  0.56403E-03
 0.71430016E+02  0.77276E-03
 0.71480011E+02  0.81871E-03
 0.71530014E+02  0.91412E-03
 0.71580009E+02  0.97630E-03
 0.71630013E+02  0.82279E-03
 0.71680016E+02  0.60962E-03
 0.71730011E+02  0.25930E-03
 0.71780014E+02 -0.81987E-04
 0.71830009E+02 -0.22957E-03
 0.71880013E+02 -0.28566E-03
 0.71930016E+02 -0.18938E-03
 0.71980011E+02  0.19685E-04
 0.72030014E+02  0.27613E-03
 0.72080009E+02  0.44306E-03
 0.72130013E+02  0.37747E-03
 0.72180016E+02  0.21388E-03
 0.72230011E+02 -0.12966E-03
 0.72280014E+02 -0.75799E-03
 0.72330009E+02 -0.13098E-02
 0.72380013E+02 -0.15508E-02
 0.72430016E+02 -0.16738E-02
 0.72480011E+02 -0.17627E-02
 0.72530014E+02 -0.16633E-02
 0.72580009E+02 -0.13228E-02
 0.72630013E+02 -0.89906E-03
 0.72680016E+02 -0.42535E-03
 0.72730011E+02  0.16630E-03
 0.72780014E+02  0.74545E-03
 0.72830009E+02  0.11804E-02
 0.72880013E+02  0.14562E-02
 0.72930016E+02  0.15762E-02
 0.72980011E+02  0.16063E-02
 0.73030014E+02  0.16772E-02
 0.73080009E+02  0.17185E-02
 0.73130013E+02  0.15206E-02
 0.73180016E+02  0.10590E-02
 0.73230011E+02  0.51739E-03
 0.73280014E+02  0.19652E-03
 0.73330009E+02  0.13790E-03
 0.73380013E+02  0.11285E-03
 0.73430016E+02  0.73646E-04
 0.73480011E+02  0.50925E-04
 0.73530014E+02 -0.67031E-04
 0.73580009E+02 -0.31208E-03
 0.73630013E+02 -0.60864E-03
 0.73680016E+02 -0.96242E-03
 0.73730011E+02 -0.13663E-02
 0.73780014E+02 -0.16580E-02
 0.73830009E+02 -0.17120E-02
 0.73880013E+02 -0.15098E-02
 0.73930016E+02 -0.96359E-03
 0.73980011E+02 -0.35125E-03
 0.74030014E+02 -0.11238E-03
 0.74080009E+02 -0.12314E-03
 0.74130013E+02 -0.11170E-03
 0.74180016E+02 -0.28678E-04
 0.74230011E+02  0.70305E-04
 0.74280014E+02  0.47845E-04
 0.74330009E+02 -0.88624E-04
 0.74380013E+02 -0.11396E-03
 0.74430016E+02  0.30329E-04
 0.74480011E+02  0.23088E-03
 0.74530014E+02  0.34538E-03
 0.74580009E+02  0.30457E-03
 0.74630013E+02  0.22582E-03
 0.74680016E+02  0.20213E-03
 0.74730011E+02  0.26116E-03
 0.74780014E+02  0.32264E-03
 0.74830009E+02  0.29434E-03
 0.74880013E+02  0.32100E-03
 0.74930016E+02  0.53957E-03
 0.74980011E+02  0.85434E-03
 0.75030014E+02  0.11258E-02
 0.75080009E+02  0.12825E-02
 0.75130013E+02  0.12972E-02
 0.75180016E+02  0.11199E-02
 0.75230011E+02  0.77548E-03
 0.75280014E+02  0.39435E-03
 0.75330009E+02 -0.57063E-04
 0.75380013E+02 -0.50955E-03
 0.75430016E+02 -0.75987E-03
 0.75480011E+02 -0.89671E-03
 0.75530014E+02 -0.92721E-03
 0.75580009E+02 -0.80612E-03
 0.75630013E+02 -0.65906E-03
 0.75680016E+02 -0.44047E-03
 0.75730011E+02 -0.28541E-03
 0.75780014E+02 -0.34940E-03
 0.75830009E+02 -0.54206E-03
 0.75880013E+02 -0.82272E-03
 0.75930016E+02 -0.10737E-02
 0.75980011E+02 -0.12181E-02
 0.76030014E+02 -0.12055E-02
 0.76080009E+02 -0.94874E-03
 0.76130013E+02 -0.50846E-03
 0.76180016E+02 -0.18450E-05
 0.76230011E+02  0.52372E-03
 0.76280014E+02  0.10536E-02
 0.76330009E+02  0.15447E-02
 0.76380013E+02  0.18754E-02
 0.76430016E+02  0.20415E-02
 0.76480011E+02  0.20859E-02
 0.76530014E+02  0.19308E-02
 0.76580009E+02  0.16315E-02
 0.76630013E+02  0.12574E-02
 0.76680016E+02  0.85756E-03
 0.76730011E+02  0.45029E-03
 0.76780014E+02 -0.36598E-04
 0.76830009E+02 -0.53296E-03
 0.76880013E+02 -0.93347E-03
 0.76930016E+02 -0.12136E-02
 0.76980011E+02 -0.14229E-02
 0.77030014E+02 -0.15909E-02
 0.77080009E+02 -0.16276E-02
 0.77130013E+02 -0.14984E-02
 0.77180016E+02 -0.12898E-02
 0.77230011E+02 -0.11277E-02
 0.77280014E+02 -0.10412E-02
 0.77330009E+02 -0.92143E-03
 0.77380013E+02 -0.73727E-03
 0.77430016E+02 -0.50594E-03
 0.77480011E+02 -0.22590E-03
 0.77530014E+02  0.15981E-03
 0.77580009E+02  0.63649E-03
 0.77630013E+02  0.96555E-03
 0.77680016E+02  0.11385E-02
 0.77730011E+02  0.12000E-02
 0.77780014E+02  0.10674E-02
 0.77830009E+02  0.79013E-03
 0.77880013E+02  0.41822E-03
 0.77930016E+02  0.10860E-04
 0.77980011E+02 -0.43137E-03
 0.78030014E+02 -0.79979E-03
 0.78080009E+02 -0.93995E-03
 0.78130013E+02 -0.87220E-03
 0.78180016E+02 -0.63292E-03
 0.78230011E+02 -0.32402E-03
 0.78280014E+02 -0.37251E-04
 0.78330009E+02  0.19395E-03
 0.78380013E+02  0.38494E-03
 0.78430016E+02  0.56973E-03
 0.78480011E+02  0.75147E-03
 0.78530014E+02  0.83952E-03
 0.78580009E+02  0.70364E-03
 0.78630013E+02  0.42053E-03
 0.78680016E+02  0.15325E-03
 0.78730011E+02  0.17751E-04
 0.78780014E+02 -0.30216E-04
 0.78830009E+02 -0.54458E-04
 0.78880013E+02 -0.54572E-04
 0.78930016E+02 -0.94855E-04
 0.78980011E+02 -0.10871E-03
 0.79030014E+02 -0.10258E-03
 0.79080009E+02 -0.13696E-03
 0.79130013E+02 -0.20455E-03
 0.79180016E+02 -0.37580E-03
 0.79230011E+02 -0.56844E-03
 0.79280014E+02 -0.59431E-03
 0.79330009E+02 -0.46009E-03
 0.79380013E+02 -0.23786E-03
 0.79430016E+02  0.44861E-04
 0.79480011E+02  0.29743E-03
 0.79530014E+02  0.49316E-03
 0.79580009E+02  0.63691E-03
 0.79630013E+02  0.74632E-03
 0.79680016E+02  0.80748E-03
 0.79730011E+02  0.73179E-03
 0.79780014E+02  0.45309E-03
 0.79830009E+02  0.10696E-03
 0.79880013E+02 -0.11271E-03
 0.79930016E+02 -0.38542E-03
 0.79980011E+02 -0.71067E-03
 0.80030014E+02 -0.88023E-03
 0.80080009E+02 -0.91815E-03
 0.80130013E+02 -0.81697E-03
 0.80180016E+02 -0.53149E-03
 0.80230011E+02 -0.10265E-03
 0.80280014E+02  0.32813E-03
 0.80330009E+02  0.62728E-03
 0.80380013E+02  0.73521E-03
 0.80430016E+02  0.71873E-03
 0.80480011E+02  0.68957E-03
 0.80530014E+02  0.60520E-03
 0.80580009E+02  0.46217E-03
 0.80630013E+02  0.32003E-03
 0.80680016E+02  0.22854E-03
 0.80730011E+02  0.25158E-03
 0.80780014E+02  0.31227E-03
 0.80830009E+02  0.37461E-03
 0.80880013E+02  0.48230E-03
 0.80930016E+02  0.59882E-03
 0.80980011E+02  0.65844E-03
 0.81030014E+02  0.58960E-03
 0.81080009E+02  0.38494E-03
 0.81130013E+02  0.10419E-03
 0.81180016E+02 -0.19162E-03
 0.81230011E+02 -0.46493E-03
 0.81280014E+02 -0.66736E-03
 0.81330009E+02 -0.76976E-03
 0.81380013E+02 -0.86260E-03
 0.81430016E+02 -0.91584E-03
 0.81480011E+02 -0.82731E-03
 0.81530014E+02 -0.71390E-03
 0.81580009E+02 -0.63294E-03
 0.81630013E+02 -0.58262E-03
 0.81680016E+02 -0.58343E-03
 0.81730011E+02 -0.56962E-03
 0.81780014E+02 -0.54020E-03
 0.81830009E+02 -0.54072E-03
 0.81880013E+02 -0.53092E-03
 0.81930016E+02 -0.44975E-03
 0.81980011E+02 -0.30519E-03
 0.82030014E+02 -0.11627E-03
 0.82080009E+02  0.85631E-04
 0.82130013E+02  0.27581E-03
 0.82180016E+02  0.37926E-03
 0.82230011E+02  0.32569E-03
 0.82280014E+02  0.20098E-03
 0.82330009E+02  0.11168E-03
 0.82380013E+02  0.13508E-03
 0.82430016E+02  0.20581E-03
 0.82480011E+02  0.27331E-03
 0.82530014E+02  0.41488E-03
 0.82580009E+02  0.53560E-03
 0.82630013E+02  0.57690E-03
 0.82680016E+02  0.53612E-03
 0.82730011E+02  0.42480E-03
 0.82780014E+02  0.36849E-03
 0.82830009E+02  0.31668E-03
 0.82880013E+02  0.18999E-03
 0.82930016E+02  0.27398E-04
 0.82980011E+02 -0.11099E-03
 0.83030014E+02 -0.17871E-03
 0.83080009E+02 -0.23731E-03
 0.83130013E+02 -0.31943E-03
 0.83180016E+02 -0.32850E-03
 0.83230011E+02 -0.24296E-03
 0.83280014E+02 -0.16496E-03
 0.83330009E+02 -0.15552E-03
 0.83380013E+02 -0.24483E-03
 0.83430016E+02 -0.26505E-03
 0.83480011E+02 -0.14642E-03
 0.83530014E+02 -0.11432E-03
 0.83580009E+02 -0.14204E-03
 0.83630013E+02 -0.98246E-04
 0.83680016E+02  0.27536E-04
 0.83730011E+02  0.13075E-03
 0.83780014E+02  0.94381E-04
 0.83830009E+02  0.97251E-05
 0.83880013E+02  0.38849E-04
 0.83930016E+02  0.17504E-03
 0.83980011E+02  0.29149E-03
 0.84030014E+02  0.37276E-03
 0.84080009E+02  0.39718E-03
 0.84130013E+02  0.31408E-03
 0.84180016E+02  0.20250E-03
 0.84230011E+02  0.18303E-03
 0.84280014E+02  0.25559E-03
 0.84330009E+02  0.28641E-03
 0.84380013E+02  0.17037E-03
 0.84430016E+02 -0.19467E-04
 0.84480011E+02 -0.21463E-03
 0.84530014E+02 -0.40145E-03
 0.84580009E+02 -0.49357E-03
 0.84630013E+02 -0.51088E-03
 0.84680016E+02 -0.47601E-03
 0.84730011E+02 -0.36709E-03
 0.84780014E+02 -0.25028E-03
 0.84830009E+02 -0.11471E-03
 0.84880013E+02  0.68858E-04
 0.84930016E+02  0.20001E-03
 0.84980011E+02  0.21849E-03
 0.85030014E+02  0.11996E-03
 0.85080009E+02 -0.52170E-04
 0.85130013E+02 -0.15998E-03
 0.85180016E+02 -0.16549E-03
 0.85230011E+02 -0.76612E-04
 0.85280014E+02  0.89935E-04
 0.85330009E+02  0.30797E-03
 0.85380013E+02  0.63425E-03
 0.85430016E+02  0.96980E-03
 0.85480011E+02  0.11510E-02
 0.85530014E+02  0.11342E-02
 0.85580009E+02  0.86766E-03
 0.85630013E+02  0.48091E-03
 0.85680016E+02  0.19623E-03
 0.85730011E+02  0.55500E-04
 0.85780014E+02 -0.14931E-04
 0.85830009E+02 -0.79403E-04
 0.85880013E+02 -0.93019E-04
 0.85930016E+02 -0.76870E-04
 0.85980011E+02 -0.61332E-04
 0.86030014E+02 -0.19702E-04
 0.86080009E+02 -0.27521E-04
 0.86130013E+02 -0.10641E-03
 0.86180016E+02 -0.16871E-03
 0.86230011E+02 -0.18416E-03
 0.86280014E+02 -0.14671E-03
 0.86330009E+02 -0.53562E-04
 0.86380013E+02 -0.60786E-04
 0.86430016E+02 -0.25080E-03
 0.86480011E+02 -0.54526E-03
 0.86530014E+02 -0.82955E-03
 0.86580009E+02 -0.10133E-02
 0.86630013E+02 -0.11644E-02
 0.86680016E+02 -0.12764E-02
 0.86730011E+02 -0.13161E-02
 0.86780014E+02 -0.13023E-02
 0.86830009E+02 -0.11627E-02
 0.86880013E+02 -0.87606E-03
 0.86930016E+02 -0.48142E-03
 0.86980011E+02 -0.79428E-04
 0.87030014E+02  0.21549E-03
 0.87080009E+02  0.42054E-03
 0.87130013E+02  0.55261E-03
 0.87180016E+02  0.65529E-03
 0.87230011E+02  0.71502E-03
 0.87280014E+02  0.58779E-03
 0.87330009E+02  0.35419E-03
 0.87380013E+02  0.15841E-03
 0.87430016E+02  0.37486E-04
 0.87480011E+02 -0.32825E-05
 0.87530014E+02 -0.24081E-04
 0.87580009E+02 -0.54882E-04
 0.87630013E+02 -0.16722E-03
 0.87680016E+02 -0.31960E-03
 0.87730011E+02 -0.28720E-03
 0.87780014E+02 -0.10574E-03
 0.87830009E+02  0.98411E-04
 0.87880013E+02  0.36564E-03
 0.87930016E+02  0.67588E-03
 0.87980011E+02  0.10414E-02
 0.88030014E+02  0.14223E-02
 0.88080009E+02  0.16727E-02
 0.88130013E+02  0.17288E-02
 0.88180016E+02  0.15463E-02
 0.88230011E+02  0.11084E-02
 0.88280014E+02  0.56906E-03
 0.88330009E+02  0.17857E-03
 0.88380013E+02 -0.35910E-04
 0.88430016E+02 -0.21927E-03
 0.88480011E+02 -0.43187E-03
 0.88530014E+02 -0.58170E-03
 0.88580009E+02 -0.56384E-03
 0.88630013E+02 -0.48237E-03
 0.88680016E+02 -0.46027E-03
 0.88730011E+02 -0.44259E-03
 0.88780014E+02 -0.36531E-03
 0.88830009E+02 -0.27742E-03
 0.88880013E+02 -0.26100E-03
 0.88930016E+02 -0.32768E-03
 0.88980011E+02 -0.41946E-03
 0.89030014E+02 -0.48953E-03
 0.89080009E+02 -0.46749E-03
 0.89130013E+02 -0.40692E-03
 0.89180016E+02 -0.49387E-03
 0.89230011E+02 -0.69663E-03
 0.89280014E+02 -0.87212E-03
 0.89330009E+02 -0.94060E-03
 0.89380013E+02 -0.90005E-03
 0.89430016E+02 -0.78582E-03
 0.89480011E+02 -0.65860E-03
 0.89530014E+02 -0.53009E-03
 0.89580009E+02 -0.31193E-03
 0.89630013E+02 -0.18781E-04
 0.89680016E+02  0.33174E-03
 0.89730011E+02  0.73203E-03
 0.89780014E+02  0.11208E-02
 0.89830009E+02  0.14241E-02
 0.89880013E+02  0.16469E-02
 0.89930016E+02  0.18100E-02
 0.89980011E+02  0.18199E-02
 0.90030014E+02  0.16071E-02
 0.90080009E+02  0.11698E-02
 0.90130013E+02  0.70730E-03
 0.90180016E+02  0.35564E-03
 0.90230011E+02  0.60668E-04
 0.90280014E+02 -0.15784E-03
 0.90330009E+02 -0.32681E-03
 0.90380013E+02 -0.49503E-03
 0.90430016E+02 -0.61528E-03
 0.90480011E+02 -0.63597E-03
 0.90530014E+02 -0.63157E-03
 0.90580009E+02 -0.66769E-03
 0.90630013E+02 -0.70853E-03
 0.90680016E+02 -0.75292E-03
 0.90730011E+02 -0.79288E-03
 0.90780014E+02 -0.78343E-03
 0.90830009E+02 -0.76748E-03
 0.90880013E+02 -0.78079E-03
 0.90930016E+02 -0.80227E-03
 0.90980011E+02 -0.79846E-03
 0.91030014E+02 -0.66572E-03
 0.91080009E+02 -0.45099E-03
 0.91130013E+02 -0.24600E-03
 0.91180016E+02 -0.28573E-04
 0.91230011E+02  0.12849E-03
 0.91280014E+02  0.22214E-03
 0.91330009E+02  0.30031E-03
 0.91380013E+02  0.32123E-03
 0.91430016E+02  0.31370E-03
 0.91480011E+02  0.27571E-03
 0.91530014E+02  0.17459E-03
 0.91580009E+02  0.89197E-04
 0.91630013E+02  0.66082E-04
 0.91680016E+02  0.99261E-04
 0.91730011E+02  0.17317E-03
 0.91780014E+02  0.21188E-03
 0.91830009E+02  0.19457E-03
 0.91880013E+02  0.19076E-03
 0.91930016E+02  0.24436E-03
 0.91980011E+02  0.35092E-03
 0.92030014E+02  0.49923E-03
 0.92080009E+02  0.66444E-03
 0.92130013E+02  0.77122E-03
 0.92180016E+02  0.77839E-03
 0.92230011E+02  0.70934E-03
 0.92280014E+02  0.58433E-03
 0.92330009E+02  0.41080E-03
 0.92380013E+02  0.15992E-03
 0.92430016E+02 -0.13241E-03
 0.92480011E+02 -0.35549E-03
 0.92530014E+02 -0.47632E-03
 0.92580009E+02 -0.50260E-03
 0.92630013E+02 -0.45259E-03
 0.92680016E+02 -0.39284E-03
 0.92730011E+02 -0.38645E-03
 0.92780014E+02 -0.45183E-03
 0.92830009E+02 -0.51599E-03
 0.92880013E+02 -0.50117E-03
 0.92930016E+02 -0.42582E-03
 0.92980011E+02 -0.27289E-03
 0.93030014E+02 -0.29237E-04
 0.93080009E+02  0.22652E-03
 0.93130013E+02  0.39941E-03
 0.93180016E+02  0.47016E-03
 0.93230011E+02  0.49425E-03
 0.93280014E+02  0.47077E-03
 0.93330009E+02  0.36290E-03
 0.93380013E+02  0.18310E-03
 0.93430016E+02 -0.95643E-05
 0.93480011E+02 -0.16891E-03
 0.93530014E+02 -0.26434E-03
 0.93580009E+02 -0.23370E-03
 0.93630013E+02 -0.94394E-04
 0.93680016E+02  0.68928E-04
 0.93730011E+02  0.21424E-03
 0.93780014E+02  0.29185E-03
 0.93830009E+02  0.27829E-03
 0.93880013E+02  0.17108E-03
 0.93930016E+02 -0.10039E-04
 0.93980011E+02 -0.20567E-03
 0.94030014E+02 -0.37341E-03
 0.94080009E+02 -0.49364E-03
 0.94130013E+02 -0.57681E-03
 0.94180016E+02 -0.55465E-03
 0.94230011E+02 -0.38817E-03
 0.94280014E+02 -0.20099E-03
 0.94330009E+02 -0.93300E-04
 0.94380013E+02 -0.61047E-04
 0.94430016E+02 -0.63246E-04
 0.94480011E+02 -0.56427E-04
 0.94530014E+02  0.58716E-06
 0.94580009E+02  0.81238E-04
 0.94630013E+02  0.16752E-03
 0.94680016E+02  0.25714E-03
 0.94730011E+02  0.30702E-03
 0.94780014E+02  0.35395E-03
 0.94830009E+02  0.40571E-03
 0.94880013E+02  0.40210E-03
 0.94930016E+02  0.34433E-03
 0.94980011E+02  0.25478E-03
 0.95030014E+02  0.15095E-03
 0.95080009E+02  0.39700E-04
 0.95130013E+02 -0.11164E-03
 0.95180016E+02 -0.28925E-03
 0.95230011E+02 -0.42806E-03
 0.95280014E+02 -0.51711E-03
 0.95330009E+02 -0.53318E-03
 0.95380013E+02 -0.48071E-03
 0.95430016E+02 -0.41557E-03
 0.95480011E+02 -0.32451E-03
 0.95530014E+02 -0.19488E-03
 0.95580009E+02  0.96001E-05
 0.95630013E+02  0.27670E-03
 0.95680016E+02  0.43541E-03
 0.95730011E+02  0.46181E-03
 0.95780014E+02  0.47683E-03
 0.95830009E+02  0.44540E-03
 0.95880013E+02  0.28264E-03
 0.95930016E+02  0.23199E-04
 0.95980011E+02 -0.21476E-03
 0.96030014E+02 -0.32316E-03
 0.96080009E+02 -0.28440E-03
 0.96130013E+02 -0.14120E-03
 0.96180016E+02  0.32803E-04
 0.96230011E+02  0.13764E-03
 0.96280014E+02  0.13338E-03
 0.96330009E+02  0.85086E-04
 0.96380013E+02  0.60213E-04
 0.96430016E+02  0.59581E-04
 0.96480011E+02  0.48437E-04
 0.96530014E+02 -0.23791E-04
 0.96580009E+02 -0.14544E-03
 0.96630013E+02 -0.23770E-03
 0.96680016E+02 -0.25764E-03
 0.96730011E+02 -0.22413E-03
 0.96780014E+02 -0.15003E-03
 0.96830009E+02 -0.50024E-04
 0.96880013E+02  0.57241E-04
 0.96930016E+02  0.22223E-03
 0.96980011E+02  0.44893E-03
 0.97030014E+02  0.67665E-03
 0.97080009E+02  0.86798E-03
 0.97130013E+02  0.10073E-02
 0.97180016E+02  0.11019E-02
 0.97230011E+02  0.11305E-02
 0.97280014E+02  0.10697E-02
 0.97330009E+02  0.89702E-03
 0.97380013E+02  0.61334E-03
 0.97430016E+02  0.30814E-03
 0.97480011E+02  0.46000E-04
 0.97530014E+02 -0.15878E-03
 0.97580009E+02 -0.30215E-03
 0.97630013E+02 -0.42599E-03
 0.97680016E+02 -0.57429E-03
 0.97730011E+02 -0.72913E-03
 0.97780014E+02 -0.83558E-03
 0.97830009E+02 -0.89645E-03
 0.97880013E+02 -0.96912E-03
 0.97930016E+02 -0.10812E-02
 0.97980011E+02 -0.12062E-02
 0.98030014E+02 -0.12756E-02
 0.98080009E+02 -0.12106E-02
 0.98130013E+02 -0.10291E-02
 0.98180016E+02 -0.82314E-03
 0.98230011E+02 -0.62288E-03
 0.98280014E+02 -0.44033E-03
 0.98330009E+02 -0.27842E-03
 0.98380013E+02 -0.11180E-03
 0.98430016E+02  0.46130E-04
 0.98480011E+02  0.16138E-03
 0.98530014E+02  0.23129E-03
 0.98580009E+02  0.27527E-03
 0.98630013E+02  0.29014E-03
 0.98680016E+02  0.27867E-03
 0.98730011E+02  0.29695E-03
 0.98780014E+02  0.35488E-03
 0.98830009E+02  0.43051E-03
 0.98880013E+02  0.53812E-03
 0.98930016E+02  0.64731E-03
 0.98980011E+02  0.71783E-03
 0.99030014E+02  0.72506E-03
 0.99080009E+02  0.67808E-03
 0.99130013E+02  0.59740E-03
 0.99180016E+02  0.46268E-03
 0.99230011E+02  0.29862E-03
 0.99280014E+02  0.10623E-03
 0.99330009E+02 -0.10223E-03
 0.99380013E+02 -0.25117E-03
 0.99430016E+02 -0.32064E-03
 0.99480011E+02 -0.32787E-03
 0.99530014E+02 -0.33550E-03
 0.99580009E+02 -0.36354E-03
 0.99630013E+02 -0.37067E-03
 0.99680016E+02 -0.35433E-03
 0.99730011E+02 -0.27866E-03
 0.99780014E+02 -0.11593E-03
 0.99830009E+02  0.65043E-04
 0.99880013E+02  0.21299E-03
 0.99930016E+02  0.33573E-03
 0.99980011E+02  0.39697E-03
 0.10003001E+03  0.37268E-03
 0.10008001E+03  0.28270E-03
 0.10013001E+03  0.16095E-03
 0.10018002E+03  0.44097E-04
 0.10023001E+03 -0.49494E-04
 0.10028001E+03 -0.94169E-04
 0.10033001E+03 -0.65014E-04
 0.10038001E+03  0.28870E-04
 0.10043002E+03  0.14194E-03
 0.10048001E+03  0.28056E-03
 0.10053001E+03  0.39571E-03
 0.10058001E+03  0.39166E-03
 0.10063001E+03  0.31386E-03
 0.10068002E+03  0.23210E-03
 0.10073001E+03  0.15956E-03
 0.10078001E+03  0.70823E-04
 0.10083001E+03 -0.73645E-06
 0.10088001E+03  0.53080E-05
 0.10093002E+03  0.29902E-04
 0.10098001E+03  0.40062E-04
 0.10103001E+03  0.69560E-04
 0.10108001E+03  0.11615E-03
 0.10113001E+03  0.18048E-03
 0.10118002E+03  0.22521E-03
 0.10123001E+03  0.18071E-03
 0.10128001E+03  0.92895E-04
 0.10133001E+03  0.29137E-04
 0.10138001E+03 -0.50274E-04
 0.10143002E+03 -0.20203E-03
 0.10148001E+03 -0.39660E-03
 0.10153001E+03 -0.56413E-03
 0.10158001E+03 -0.69543E-03
 0.10163001E+03 -0.80053E-03
 0.10168002E+03 -0.84868E-03
 0.10173001E+03 -0.79461E-03
 0.10178001E+03 -0.64944E-03
 0.10183001E+03 -0.50646E-03
 0.10188001E+03 -0.45148E-03
 0.10193002E+03 -0.44463E-03
 0.10198001E+03 -0.42579E-03
 0.10203001E+03 -0.41717E-03
 0.10208001E+03 -0.38923E-03
 0.10213001E+03 -0.26375E-03
 0.10218002E+03 -0.47152E-04
 0.10223001E+03  0.17817E-03
 0.10228001E+03  0.38428E-03
 0.10233001E+03  0.58126E-03
 0.10238001E+03  0.74150E-03
 0.10243002E+03  0.85995E-03
 0.10248001E+03  0.93067E-03
 0.10253001E+03  0.92655E-03
 0.10258001E+03  0.84749E-03
 0.10263001E+03  0.71798E-03
 0.10268002E+03  0.57999E-03
 0.10273001E+03  0.43295E-03
 0.10278001E+03  0.25160E-03
 0.10283001E+03  0.55641E-04
 0.10288001E+03 -0.14715E-03
 0.10293002E+03 -0.36175E-03
 0.10298001E+03 -0.55624E-03
 0.10303001E+03 -0.68063E-03
 0.10308001E+03 -0.69416E-03
 0.10313001E+03 -0.63385E-03
 0.10318002E+03 -0.58109E-03
 0.10323001E+03 -0.50705E-03
 0.10328001E+03 -0.36148E-03
 0.10333001E+03 -0.20048E-03
 0.10338001E+03 -0.98433E-04
 0.10343002E+03 -0.49958E-04
 0.10348001E+03  0.10207E-04
 0.10353001E+03  0.12033E-03
 0.10358001E+03  0.24423E-03
 0.10363001E+03  0.32476E-03
 0.10368002E+03  0.38891E-03
 0.10373001E+03  0.45290E-03
 0.10378001E+03  0.45262E-03
 0.10383001E+03  0.36974E-03
 0.10388001E+03  0.27869E-03
 0.10393002E+03  0.24082E-03
 0.10398001E+03  0.20987E-03
 0.10403001E+03  0.13797E-03
 0.10408001E+03  0.52132E-04
 0.10413001E+03 -0.17228E-05
 0.10418002E+03 -0.10830E-04
 0.10423001E+03 -0.53960E-05
 0.10428001E+03 -0.43926E-05
 0.10433001E+03 -0.15842E-04
 0.10438001E+03 -0.36103E-04
 0.10443002E+03 -0.28732E-04
 0.10448001E+03  0.20984E-04
 0.10453001E+03  0.11256E-03
 0.10458001E+03  0.22899E-03
 0.10463001E+03  0.31967E-03
 0.10468002E+03  0.35619E-03
 0.10473001E+03  0.34549E-03
 0.10478001E+03  0.33486E-03
 0.10483001E+03  0.33828E-03
 0.10488001E+03  0.29467E-03
 0.10493002E+03  0.15068E-03
 0.10498001E+03 -0.77484E-04
 0.10503001E+03 -0.30209E-03
 0.10508001E+03 -0.46741E-03
 0.10513001E+03 -0.57094E-03
 0.10518002E+03 -0.62766E-03
 0.10523001E+03 -0.67157E-03
 0.10528001E+03 -0.69629E-03
 0.10533001E+03 -0.67812E-03
 0.10538001E+03 -0.61282E-03
 0.10543002E+03 -0.49821E-03
 0.10548001E+03 -0.35571E-03
 0.10553001E+03 -0.20395E-03
 0.10558001E+03 -0.79615E-04
 0.10563001E+03  0.10750E-04
 0.10568002E+03  0.11163E-03
 0.10573001E+03  0.18718E-03
 0.10578001E+03  0.21658E-03
 0.10583001E+03  0.22417E-03
 0.10588001E+03  0.20414E-03
 0.10593002E+03  0.16750E-03
 0.10598001E+03  0.10988E-03
 0.10603001E+03  0.21345E-04
 0.10608001E+03 -0.79540E-04
 0.10613001E+03 -0.18594E-03
 0.10618002E+03 -0.30359E-03
 0.10623001E+03 -0.40518E-03
 0.10628001E+03 -0.45223E-03
 0.10633001E+03 -0.43095E-03
 0.10638001E+03 -0.35827E-03
 0.10643002E+03 -0.30457E-03
 0.10648001E+03 -0.25497E-03
 0.10653001E+03 -0.12385E-03
 0.10658001E+03  0.57272E-04
 0.10663001E+03  0.26091E-03
 0.10668002E+03  0.48697E-03
 0.10673001E+03  0.67390E-03
 0.10678001E+03  0.79684E-03
 0.10683001E+03  0.85135E-03
 0.10688001E+03  0.81625E-03
 0.10693002E+03  0.72282E-03
 0.10698001E+03  0.63676E-03
 0.10703001E+03  0.57919E-03
 0.10708001E+03  0.50448E-03
 0.10713001E+03  0.37914E-03
 0.10718002E+03  0.23732E-03
 0.10723001E+03  0.11041E-03
 0.10728001E+03  0.10598E-04
 0.10733001E+03 -0.69806E-04
 0.10738001E+03 -0.16599E-03
 0.10743002E+03 -0.29548E-03
 0.10748001E+03 -0.43609E-03
 0.10753001E+03 -0.52800E-03
 0.10758001E+03 -0.54254E-03
 0.10763001E+03 -0.47619E-03
 0.10768002E+03 -0.35191E-03
 0.10773001E+03 -0.23488E-03
 0.10778001E+03 -0.12878E-03
 0.10783001E+03 -0.21693E-04
 0.10788001E+03  0.85332E-04
 0.10793002E+03  0.21127E-03
 0.10798001E+03  0.32207E-03
 0.10803001E+03  0.36649E-03
 0.10808001E+03  0.32875E-03
 0.10813001E+03  0.24379E-03
 0.10818002E+03  0.16157E-03
 0.10823001E+03  0.91222E-04
 0.10828001E+03  0.30771E-04
 0.10833001E+03 -0.44229E-04
 0.10838001E+03 -0.12812E-03
 0.10843002E+03 -0.18303E-03
 0.10848001E+03 -0.20510E-03
 0.10853001E+03 -0.20929E-03
 0.10858001E+03 -0.19991E-03
 0.10863001E+03 -0.14713E-03
 0.10868002E+03 -0.65685E-04
 0.10873001E+03 -0.66698E-05
 0.10878001E+03  0.28179E-04
 0.10883001E+03  0.57595E-04
 0.10888001E+03  0.61204E-04
 0.10893002E+03 -0.78334E-05
 0.10898001E+03 -0.14465E-03
 0.10903001E+03 -0.29284E-03
 0.10908001E+03 -0.40296E-03
 0.10913001E+03 -0.45662E-03
 0.10918002E+03 -0.43622E-03
 0.10923001E+03 -0.34260E-03
 0.10928001E+03 -0.22796E-03
 0.10933001E+03 -0.13522E-03
 0.10938001E+03 -0.97161E-04
 0.10943002E+03 -0.14026E-03
 0.10948001E+03 -0.22557E-03
 0.10953001E+03 -0.29351E-03
 0.10958001E+03 -0.30649E-03
 0.10963001E+03 -0.26526E-03
 0.10968002E+03 -0.21643E-03
 0.10973001E+03 -0.15611E-03
 0.10978001E+03 -0.64918E-04
 0.10983001E+03  0.37919E-04
 0.10988001E+03  0.13599E-03
 0.10993002E+03  0.21553E-03
 0.10998001E+03  0.27515E-03
 0.11003001E+03  0.30924E-03
 0.11008001E+03  0.32901E-03
 0.11013001E+03  0.36215E-03
 0.11018002E+03  0.41210E-03
 0.11023001E+03  0.45431E-03
 0.11028001E+03  0.45477E-03
 0.11033001E+03  0.41623E-03
 0.11038001E+03  0.37337E-03
 0.11043002E+03  0.34550E-03
 0.11048001E+03  0.32047E-03
 0.11053001E+03  0.28712E-03
 0.11058001E+03  0.26420E-03
 0.11063001E+03  0.26623E-03
 0.11068002E+03  0.29235E-03
 0.11073001E+03  0.34185E-03
 0.11078001E+03  0.37383E-03
 0.11083001E+03  0.33283E-03
 0.11088001E+03  0.21466E-03
 0.11093002E+03  0.81054E-04
 0.11098001E+03 -0.16576E-04
 0.11103001E+03 -0.93142E-04
 0.11108001E+03 -0.18034E-03
 0.11113001E+03 -0.30096E-03
 0.11118002E+03 -0.41214E-03
 0.11123001E+03 -0.45226E-03
 0.11128001E+03 -0.41444E-03
 0.11133001E+03 -0.33020E-03
 0.11138001E+03 -0.24417E-03
 0.11143002E+03 -0.16292E-03
 0.11148001E+03 -0.99107E-04
 0.11153001E+03 -0.63978E-04
 0.11158001E+03 -0.52750E-04
 0.11163001E+03 -0.75398E-04
 0.11168002E+03 -0.14736E-03
 0.11173001E+03 -0.28512E-03
 0.11178001E+03 -0.43505E-03
 0.11183001E+03 -0.52270E-03
 0.11188001E+03 -0.52470E-03
 0.11193002E+03 -0.44125E-03
 0.11198001E+03 -0.31143E-03
 0.11203001E+03 -0.18919E-03
 0.11208001E+03 -0.88355E-04
 0.11213001E+03  0.16239E-04
 0.11218002E+03  0.12214E-03
 0.11223001E+03  0.20471E-03
 0.11228001E+03  0.25812E-03
 0.11233001E+03  0.30066E-03
 0.11238001E+03  0.33586E-03
 0.11243002E+03  0.34264E-03
 0.11248001E+03  0.32057E-03
 0.11253001E+03  0.28091E-03
 0.11258001E+03  0.25047E-03
 0.11263001E+03  0.21732E-03
 0.11268002E+03  0.16138E-03
 0.11273001E+03  0.85227E-04
 0.11278001E+03 -0.37086E-04
 0.11283001E+03 -0.18664E-03
 0.11288001E+03 -0.30678E-03
 0.11293002E+03 -0.37234E-03
 0.11298001E+03 -0.40304E-03
 0.11303001E+03 -0.40921E-03
 0.11308001E+03 -0.37252E-03
 0.11313001E+03 -0.29839E-03
 0.11318002E+03 -0.19421E-03
 0.11323001E+03 -0.58753E-04
 0.11328001E+03  0.10422E-03
 0.11333001E+03  0.28164E-03
 0.11338001E+03  0.44512E-03
 0.11343002E+03  0.58107E-03
 0.11348001E+03  0.67333E-03
 0.11353001E+03  0.69704E-03
 0.11358001E+03  0.64940E-03
 0.11363001E+03  0.51808E-03
 0.11368002E+03  0.31933E-03
 0.11373001E+03  0.12656E-03
 0.11378001E+03  0.46389E-05
 0.11383001E+03 -0.35960E-04
 0.11388001E+03 -0.41870E-04
 0.11393002E+03 -0.35193E-04
 0.11398001E+03  0.17704E-04
 0.11403001E+03  0.12323E-03
 0.11408001E+03  0.23596E-03
 0.11413001E+03  0.31629E-03
 0.11418002E+03  0.34677E-03
 0.11423001E+03  0.31173E-03
 0.11428001E+03  0.23241E-03
 0.11433001E+03  0.13093E-03
 0.11438001E+03 -0.80080E-05
 0.11443002E+03 -0.18393E-03
 0.11448001E+03 -0.39607E-03
 0.11453001E+03 -0.62073E-03
 0.11458001E+03 -0.80996E-03
 0.11463001E+03 -0.92010E-03
 0.11468002E+03 -0.92160E-03
 0.11473001E+03 -0.84729E-03
 0.11478001E+03 -0.75117E-03
 0.11483001E+03 -0.65981E-03
 0.11488001E+03 -0.57295E-03
 0.11493002E+03 -0.48848E-03
 0.11498001E+03 -0.40970E-03
 0.11503001E+03 -0.34584E-03
 0.11508001E+03 -0.31420E-03
 0.11513001E+03 -0.28512E-03
 0.11518002E+03 -0.22383E-03
 0.11523001E+03 -0.14803E-03
 0.11528001E+03 -0.89351E-04
 0.11533001E+03 -0.62503E-04
 0.11538001E+03 -0.27784E-04
 0.11543002E+03  0.58187E-04
 0.11548001E+03  0.19566E-03
 0.11553001E+03  0.35556E-03
 0.11558001E+03  0.50206E-03
 0.11563001E+03  0.62432E-03
 0.11568002E+03  0.70009E-03
 0.11573001E+03  0.73717E-03
 0.11578001E+03  0.75267E-03
 0.11583001E+03  0.72699E-03
 0.11588001E+03  0.66640E-03
 0.11593002E+03  0.59137E-03
 0.11598001E+03  0.51720E-03
 0.11603001E+03  0.45777E-03
 0.11608001E+03  0.42549E-03
 0.11613001E+03  0.42134E-03
 0.11618002E+03  0.42910E-03
 0.11623001E+03  0.41268E-03
 0.11628001E+03  0.35336E-03
 0.11633001E+03  0.29659E-03
 0.11638001E+03  0.28234E-03
 0.11643002E+03  0.28805E-03
 0.11648001E+03  0.28414E-03
 0.11653001E+03  0.27837E-03
 0.11658001E+03  0.27854E-03
 0.11663001E+03  0.26299E-03
 0.11668002E+03  0.20623E-03
 0.11673001E+03  0.11386E-03
 0.11678001E+03  0.81971E-05
 0.11683001E+03 -0.11292E-03
 0.11688001E+03 -0.26913E-03
 0.11693002E+03 -0.45931E-03
 0.11698001E+03 -0.66385E-03
 0.11703001E+03 -0.86072E-03
 0.11708001E+03 -0.10079E-02
 0.11713001E+03 -0.10724E-02
 0.11718002E+03 -0.10602E-02
 0.11723001E+03 -0.99885E-03
 0.11728001E+03 -0.92325E-03
 0.11733001E+03 -0.83721E-03
 0.11738001E+03 -0.73234E-03
 0.11743002E+03 -0.62859E-03
 0.11748001E+03 -0.52988E-03
 0.11753001E+03 -0.43777E-03
 0.11758001E+03 -0.34257E-03
 0.11763001E+03 -0.18824E-03
 0.11768002E+03  0.29896E-04
 0.11773001E+03  0.25581E-03
 0.11778001E+03  0.42991E-03
 0.11783001E+03  0.50889E-03
 0.11788001E+03  0.50787E-03
 0.11793002E+03  0.46055E-03
 0.11798001E+03  0.39055E-03
 0.11803001E+03  0.32274E-03
 0.11808001E+03  0.25516E-03
 0.11813001E+03  0.17046E-03
 0.11818002E+03  0.76590E-04
 0.11823001E+03 -0.58634E-06
 0.11828001E+03 -0.32593E-04
 0.11833001E+03 -0.61903E-05
 0.11838001E+03  0.46874E-04
 0.11843002E+03  0.99461E-04
 0.11848001E+03  0.13639E-03
 0.11853001E+03  0.13495E-03
 0.11858001E+03  0.11642E-03
 0.11863001E+03  0.10156E-03
 0.11868002E+03  0.88589E-04
 0.11873001E+03  0.10313E-03
 0.11878001E+03  0.14115E-03
 0.11883001E+03  0.15743E-03
 0.11888001E+03  0.14725E-03
 0.11893002E+03  0.14316E-03
 0.11898001E+03  0.16147E-03
 0.11903001E+03  0.18448E-03
 0.11908001E+03  0.20152E-03
 0.11913001E+03  0.22605E-03
 0.11918002E+03  0.25129E-03
 0.11923001E+03  0.27026E-03
 0.11928001E+03  0.28690E-03
 0.11933001E+03  0.28796E-03
 0.11938001E+03  0.28305E-03
 0.11943002E+03  0.29963E-03
 0.11948001E+03  0.31475E-03
 0.11953001E+03  0.29223E-03
 0.11958001E+03  0.23597E-03
 0.11963001E+03  0.15585E-03
 0.11968002E+03  0.68511E-04
 0.11973001E+03 -0.42680E-05
 0.11978001E+03 -0.61240E-04
 0.11983001E+03 -0.10349E-03
 0.11988001E+03 -0.12806E-03
 0.11993002E+03 -0.12593E-03
 0.11998001E+03 -0.87491E-04
 0.12003001E+03 -0.33953E-04
 0.12008001E+03  0.19573E-05
 0.12013001E+03  0.11707E-04
 0.12018002E+03  0.12497E-04
 0.12023001E+03  0.31009E-04
 0.12028001E+03  0.68445E-04
 0.12033001E+03  0.91357E-04
 0.12038001E+03  0.60430E-04
 0.12043002E+03 -0.41411E-04
 0.12048001E+03 -0.21007E-03
 0.12053001E+03 -0.41899E-03
 0.12058001E+03 -0.63974E-03
 0.12063001E+03 -0.84456E-03
 0.12068002E+03 -0.99071E-03
 0.12073001E+03 -0.10643E-02
 0.12078001E+03 -0.10681E-02
 0.12083001E+03 -0.10050E-02
 0.12088001E+03 -0.89763E-03
 0.12093002E+03 -0.76120E-03
 0.12098001E+03 -0.61089E-03
 0.12103001E+03 -0.45561E-03
 0.12108001E+03 -0.28297E-03
 0.12113001E+03 -0.10796E-03
 0.12118002E+03  0.56245E-04
 0.12123001E+03  0.21543E-03
 0.12128001E+03  0.36157E-03
 0.12133001E+03  0.48572E-03
 0.12138001E+03  0.57809E-03
 0.12143002E+03  0.64717E-03
 0.12148001E+03  0.70057E-03
 0.12153001E+03  0.71686E-03
 0.12158001E+03  0.68446E-03
 0.12163001E+03  0.62034E-03
 0.12168002E+03  0.54847E-03
 0.12173001E+03  0.49181E-03
 0.12178001E+03  0.45855E-03
 0.12183001E+03  0.44242E-03
 0.12188001E+03  0.44306E-03
 0.12193002E+03  0.43910E-03
 0.12198001E+03  0.40941E-03
 0.12203001E+03  0.36327E-03
 0.12208001E+03  0.32490E-03
 0.12213001E+03  0.31143E-03
 0.12218002E+03  0.29941E-03
 0.12223001E+03  0.26278E-03
 0.12228001E+03  0.20682E-03
 0.12233001E+03  0.14752E-03
 0.12238001E+03  0.10744E-03
 0.12243002E+03  0.76559E-04
 0.12248001E+03  0.28288E-04
 0.12253001E+03 -0.28185E-04
 0.12258001E+03 -0.76671E-04
 0.12263001E+03 -0.10115E-03
 0.12268002E+03 -0.10684E-03
 0.12273001E+03 -0.10966E-03
 0.12278001E+03 -0.11734E-03
 0.12283001E+03 -0.14496E-03
 0.12288001E+03 -0.18273E-03
 0.12293002E+03 -0.21639E-03
 0.12298001E+03 -0.24196E-03
 0.12303001E+03 -0.24636E-03
 0.12308001E+03 -0.23253E-03
 0.12313001E+03 -0.22874E-03
 0.12318002E+03 -0.23709E-03
 0.12323001E+03 -0.24988E-03
 0.12328001E+03 -0.29436E-03
 0.12333001E+03 -0.36337E-03
 0.12338001E+03 -0.40823E-03
 0.12343002E+03 -0.41695E-03
 0.12348001E+03 -0.39821E-03
 0.12353001E+03 -0.35740E-03
 0.12358001E+03 -0.30819E-03
 0.12363001E+03 -0.25175E-03
 0.12368002E+03 -0.19947E-03
 0.12373001E+03 -0.17663E-03
 0.12378001E+03 -0.19042E-03
 0.12383001E+03 -0.23657E-03
 0.12388001E+03 -0.30254E-03
 0.12393002E+03 -0.36994E-03
 0.12398001E+03 -0.41696E-03
 0.12403001E+03 -0.42513E-03
 0.12408001E+03 -0.39645E-03
 0.12413001E+03 -0.33942E-03
 0.12418002E+03 -0.25912E-03
 0.12423001E+03 -0.17325E-03
 0.12428001E+03 -0.97873E-04
 0.12433001E+03 -0.36424E-04
 0.12438001E+03  0.15982E-04
 0.12443002E+03  0.66425E-04
 0.12448001E+03  0.11862E-03
 0.12453001E+03  0.18690E-03
 0.12458001E+03  0.29158E-03
 0.12463001E+03  0.41825E-03
 0.12468002E+03  0.52594E-03
 0.12473001E+03  0.60298E-03
 0.12478001E+03  0.65181E-03
 0.12483001E+03  0.66916E-03
 0.12488001E+03  0.66346E-03
 0.12493002E+03  0.64690E-03
 0.12498001E+03  0.63177E-03
 0.12503001E+03  0.61603E-03
 0.12508001E+03  0.58320E-03
 0.12513001E+03  0.53938E-03
 0.12518002E+03  0.49619E-03
 0.12523001E+03  0.44978E-03
 0.12528001E+03  0.39687E-03
 0.12533001E+03  0.34495E-03
 0.12538001E+03  0.30993E-03
 0.12543002E+03  0.28416E-03
 0.12548001E+03  0.25393E-03
 0.12553001E+03  0.21926E-03
 0.12558001E+03  0.17767E-03
 0.12563001E+03  0.12319E-03
 0.12568002E+03  0.39443E-04
 0.12573001E+03 -0.81520E-04
 0.12578001E+03 -0.21998E-03
 0.12583001E+03 -0.34162E-03
 0.12588001E+03 -0.43004E-03
 0.12593002E+03 -0.49244E-03
 0.12598001E+03 -0.53901E-03
 0.12603001E+03 -0.57083E-03
 0.12608001E+03 -0.58251E-03
 0.12613001E+03 -0.56828E-03
 0.12618002E+03 -0.52986E-03
 0.12623001E+03 -0.48999E-03
 0.12628001E+03 -0.45494E-03
 0.12633001E+03 -0.41155E-03
 0.12638001E+03 -0.36439E-03
 0.12643002E+03 -0.32574E-03
 0.12648001E+03 -0.29921E-03
 0.12653001E+03 -0.26550E-03
 0.12658001E+03 -0.21509E-03
 0.12663001E+03 -0.17114E-03
 0.12668002E+03 -0.14568E-03
 0.12673001E+03 -0.13650E-03
 0.12678001E+03 -0.14737E-03
 0.12683001E+03 -0.17488E-03
 0.12688001E+03 -0.20169E-03
 0.12693002E+03 -0.20846E-03
 0.12698001E+03 -0.19329E-03
 0.12703001E+03 -0.16562E-03
 0.12708001E+03 -0.11210E-03
 0.12713001E+03 -0.24374E-04
 0.12718002E+03  0.69448E-04
 0.12723001E+03  0.14572E-03
 0.12728001E+03  0.19434E-03
 0.12733001E+03  0.21489E-03
 0.12738001E+03  0.21415E-03
 0.12743002E+03  0.19641E-03
 0.12748001E+03  0.18426E-03
 0.12753001E+03  0.19098E-03
 0.12758001E+03  0.20759E-03
 0.12763001E+03  0.22910E-03
 0.12768002E+03  0.25300E-03
 0.12773001E+03  0.28628E-03
 0.12778001E+03  0.32643E-03
 0.12783001E+03  0.36331E-03
 0.12788001E+03  0.40096E-03
 0.12793002E+03  0.43017E-03
 0.12798001E+03  0.44287E-03
 0.12803001E+03  0.44967E-03
 0.12808002E+03  0.44703E-03
 0.12813002E+03  0.42366E-03
 0.12818001E+03  0.38007E-03
 0.12823001E+03  0.31855E-03
 0.12828001E+03  0.23368E-03
 0.12833002E+03  0.12538E-03
 0.12838002E+03  0.20424E-04
 0.12843001E+03 -0.46136E-04
 0.12848001E+03 -0.68528E-04
 0.12853001E+03 -0.68990E-04
 0.12858002E+03 -0.65279E-04
 0.12863002E+03 -0.51557E-04
 0.12868001E+03 -0.15829E-04
 0.12873001E+03  0.24292E-04
 0.12878001E+03  0.33911E-04
 0.12883002E+03  0.96577E-05
 0.12888002E+03 -0.36327E-04
 0.12893001E+03 -0.10435E-03
 0.12898001E+03 -0.18917E-03
 0.12903001E+03 -0.26819E-03
 0.12908002E+03 -0.33254E-03
 0.12913002E+03 -0.40368E-03
 0.12918001E+03 -0.48532E-03
 0.12923001E+03 -0.55959E-03
 0.12928001E+03 -0.61026E-03
 0.12933002E+03 -0.62768E-03
 0.12938002E+03 -0.61420E-03
 0.12943001E+03 -0.57157E-03
 0.12948001E+03 -0.50083E-03
 0.12953001E+03 -0.40619E-03
 0.12958002E+03 -0.28764E-03
 0.12963002E+03 -0.15363E-03
 0.12968001E+03 -0.27587E-04
 0.12973001E+03  0.79177E-04
 0.12978001E+03  0.15880E-03
 0.12983002E+03  0.20962E-03
 0.12988002E+03  0.24553E-03
 0.12993001E+03  0.26951E-03
 0.12998001E+03  0.27441E-03
 0.13003001E+03  0.24811E-03
 0.13008002E+03  0.20210E-03
 0.13013002E+03  0.16248E-03
 0.13018001E+03  0.12746E-03
 0.13023001E+03  0.94191E-04
 0.13028001E+03  0.62986E-04
 0.13033002E+03  0.37656E-04
 0.13038002E+03  0.34768E-04
 0.13043001E+03  0.45584E-04
 0.13048001E+03  0.52312E-04
 0.13053001E+03  0.54349E-04
 0.13058002E+03  0.53156E-04
 0.13063002E+03  0.54427E-04
 0.13068001E+03  0.60908E-04
 0.13073001E+03  0.67469E-04
 0.13078001E+03  0.79141E-04
 0.13083002E+03  0.10199E-03
 0.13088002E+03  0.13032E-03
 0.13093001E+03  0.16227E-03
 0.13098001E+03  0.19577E-03
 0.13103001E+03  0.23016E-03
 0.13108002E+03  0.26722E-03
 0.13113002E+03  0.29612E-03
 0.13118001E+03  0.30050E-03
 0.13123001E+03  0.28373E-03
 0.13128001E+03  0.26506E-03
 0.13133002E+03  0.25380E-03
 0.13138002E+03  0.24817E-03
 0.13143001E+03  0.23726E-03
 0.13148001E+03  0.20501E-03
 0.13153001E+03  0.13573E-03
 0.13158002E+03  0.41993E-04
 0.13163002E+03 -0.56335E-04
 0.13168001E+03 -0.15885E-03
 0.13173001E+03 -0.25754E-03
 0.13178001E+03 -0.34981E-03
 0.13183002E+03 -0.42198E-03
 0.13188002E+03 -0.45722E-03
 0.13193001E+03 -0.45771E-03
 0.13198001E+03 -0.42763E-03
 0.13203001E+03 -0.37792E-03
 0.13208002E+03 -0.31763E-03
 0.13213002E+03 -0.24883E-03
 0.13218001E+03 -0.17098E-03
 0.13223001E+03 -0.85780E-04
 0.13228001E+03 -0.35189E-05
 0.13233002E+03  0.67146E-04
 0.13238002E+03  0.12969E-03
 0.13243001E+03  0.18711E-03
 0.13248001E+03  0.22506E-03
 0.13253001E+03  0.22545E-03
 0.13258002E+03  0.18786E-03
 0.13263002E+03  0.11549E-03
 0.13268001E+03  0.23516E-04
 0.13273001E+03 -0.60797E-04
 0.13278001E+03 -0.13258E-03
 0.13283002E+03 -0.19280E-03
 0.13288002E+03 -0.23378E-03
 0.13293001E+03 -0.24323E-03
 0.13298001E+03 -0.21287E-03
 0.13303001E+03 -0.14118E-03
 0.13308002E+03 -0.48609E-04
 0.13313002E+03  0.26443E-04
 0.13318001E+03  0.72953E-04
 0.13323001E+03  0.99932E-04
 0.13328001E+03  0.10971E-03
 0.13333002E+03  0.94507E-04
 0.13338002E+03  0.67453E-04
 0.13343001E+03  0.46978E-04
 0.13348001E+03  0.35634E-04
 0.13353001E+03  0.35270E-04
 0.13358002E+03  0.34241E-04
 0.13363002E+03  0.27793E-04
 0.13368001E+03  0.25217E-04
 0.13373001E+03  0.37765E-04
 0.13378001E+03  0.60804E-04
 0.13383002E+03  0.77593E-04
 0.13388002E+03  0.79488E-04
 0.13393001E+03  0.68381E-04
 0.13398001E+03  0.53801E-04
 0.13403001E+03  0.31460E-04
 0.13408002E+03  0.58042E-05
 0.13413002E+03 -0.89578E-05
 0.13418001E+03 -0.15586E-04
 0.13423001E+03 -0.19799E-04
 0.13428001E+03 -0.19949E-04
 0.13433002E+03 -0.48112E-05
 0.13438002E+03  0.35584E-04
 0.13443001E+03  0.93085E-04
 0.13448001E+03  0.14959E-03
 0.13453001E+03  0.19052E-03
 0.13458002E+03  0.20348E-03
 0.13463002E+03  0.18402E-03
 0.13468001E+03  0.13211E-03
 0.13473001E+03  0.60006E-04
 0.13478001E+03 -0.58344E-05
 0.13483002E+03 -0.51389E-04
 0.13488002E+03 -0.71567E-04
 0.13493001E+03 -0.61438E-04
 0.13498001E+03 -0.25227E-04
 0.13503001E+03  0.18766E-04
 0.13508002E+03  0.59437E-04
 0.13513002E+03  0.95090E-04
 0.13518001E+03  0.11900E-03
 0.13523001E+03  0.12840E-03
 0.13528001E+03  0.12952E-03
 0.13533002E+03  0.12940E-03
 0.13538002E+03  0.11764E-03
 0.13543001E+03  0.88375E-04
 0.13548001E+03  0.49253E-04
 0.13553001E+03  0.11169E-05
 0.13558002E+03 -0.58057E-04
 0.13563002E+03 -0.12412E-03
 0.13568001E+03 -0.18785E-03
 0.13573001E+03 -0.25125E-03
 0.13578001E+03 -0.30978E-03
 0.13583002E+03 -0.34902E-03
 0.13588002E+03 -0.37055E-03
 0.13593001E+03 -0.38063E-03
 0.13598001E+03 -0.37526E-03
 0.13603001E+03 -0.35647E-03
 0.13608002E+03 -0.33807E-03
 0.13613002E+03 -0.32852E-03
 0.13618001E+03 -0.33069E-03
 0.13623001E+03 -0.32836E-03
 0.13628001E+03 -0.30395E-03
 0.13633002E+03 -0.26132E-03
 0.13638002E+03 -0.19883E-03
 0.13643001E+03 -0.11807E-03
 0.13648001E+03 -0.25654E-04
 0.13653001E+03  0.73558E-04
 0.13658002E+03  0.16544E-03
 0.13663002E+03  0.23377E-03
 0.13668001E+03  0.27133E-03
 0.13673001E+03  0.28241E-03
 0.13678001E+03  0.27058E-03
 0.13683002E+03  0.24183E-03
 0.13688002E+03  0.21264E-03
 0.13693001E+03  0.20031E-03
 0.13698001E+03  0.21624E-03
 0.13703001E+03  0.25897E-03
 0.13708002E+03  0.31017E-03
 0.13713002E+03  0.35551E-03
 0.13718001E+03  0.39389E-03
 0.13723001E+03  0.42750E-03
 0.13728001E+03  0.45298E-03
 0.13733002E+03  0.45505E-03
 0.13738002E+03  0.42765E-03
 0.13743001E+03  0.37684E-03
 0.13748001E+03  0.30707E-03
 0.13753001E+03  0.22447E-03
 0.13758002E+03  0.14008E-03
 0.13763002E+03  0.65339E-04
 0.13768001E+03 -0.19768E-06
 0.13773001E+03 -0.61538E-04
 0.13778001E+03 -0.11612E-03
 0.13783002E+03 -0.16093E-03
 0.13788002E+03 -0.20346E-03
 0.13793001E+03 -0.24679E-03
 0.13798001E+03 -0.27941E-03
 0.13803001E+03 -0.29597E-03
 0.13808002E+03 -0.29245E-03
 0.13813002E+03 -0.27094E-03
 0.13818001E+03 -0.25329E-03
 0.13823001E+03 -0.25354E-03
 0.13828001E+03 -0.27510E-03
 0.13833002E+03 -0.31315E-03
 0.13838002E+03 -0.35293E-03
 0.13843001E+03 -0.38678E-03
 0.13848001E+03 -0.40891E-03
 0.13853001E+03 -0.41121E-03
 0.13858002E+03 -0.37691E-03
 0.13863002E+03 -0.29038E-03
 0.13868001E+03 -0.16841E-03
 0.13873001E+03 -0.39276E-04
 0.13878001E+03  0.84499E-04
 0.13883002E+03  0.19138E-03
 0.13888002E+03  0.26968E-03
 0.13893001E+03  0.31448E-03
 0.13898001E+03  0.32968E-03
 0.13903001E+03  0.32123E-03
 0.13908002E+03  0.28437E-03
 0.13913002E+03  0.21837E-03
 0.13918001E+03  0.13667E-03
 0.13923001E+03  0.56085E-04
 0.13928001E+03 -0.98556E-05
 0.13933002E+03 -0.51823E-04
 0.13938002E+03 -0.74557E-04
 0.13943001E+03 -0.86244E-04
 0.13948001E+03 -0.74555E-04
 0.13953001E+03 -0.29921E-04
 0.13958002E+03  0.32981E-04
 0.13963002E+03  0.97829E-04
 0.13968001E+03  0.15665E-03
 0.13973001E+03  0.20243E-03
 0.13978001E+03  0.23475E-03
 0.13983002E+03  0.25835E-03
 0.13988002E+03  0.27606E-03
 0.13993001E+03  0.28163E-03
 0.13998001E+03  0.26467E-03
 0.14003001E+03  0.23124E-03
 0.14008002E+03  0.19724E-03
 0.14013002E+03  0.16890E-03
 0.14018001E+03  0.14162E-03
 0.14023001E+03  0.10224E-03
 0.14028001E+03  0.41675E-04
 0.14033002E+03 -0.37459E-04
 0.14038002E+03 -0.12517E-03
 0.14043001E+03 -0.20418E-03
 0.14048001E+03 -0.26998E-03
 0.14053001E+03 -0.33047E-03
 0.14058002E+03 -0.38640E-03
 0.14063002E+03 -0.43746E-03
 0.14068001E+03 -0.48129E-03
 0.14073001E+03 -0.50436E-03
 0.14078001E+03 -0.49306E-03
 0.14083002E+03 -0.44919E-03
 0.14088002E+03 -0.38530E-03
 0.14093001E+03 -0.30697E-03
 0.14098001E+03 -0.21252E-03
 0.14103001E+03 -0.11192E-03
 0.14108002E+03 -0.23256E-04
 0.14113002E+03  0.44726E-04
 0.14118001E+03  0.10451E-03
 0.14123001E+03  0.16757E-03
 0.14128001E+03  0.22332E-03
 0.14133002E+03  0.26638E-03
 0.14138002E+03  0.29762E-03
 0.14143001E+03  0.31743E-03
 0.14148001E+03  0.33320E-03
 0.14153001E+03  0.35340E-03
 0.14158002E+03  0.38353E-03
 0.14163002E+03  0.41028E-03
 0.14168001E+03  0.41211E-03
 0.14173001E+03  0.38916E-03
 0.14178001E+03  0.35614E-03
 0.14183002E+03  0.32815E-03
 0.14188002E+03  0.30542E-03
 0.14193001E+03  0.27442E-03
 0.14198001E+03  0.23160E-03
 0.14203001E+03  0.17395E-03
 0.14208002E+03  0.99695E-04
 0.14213002E+03  0.16092E-04
 0.14218001E+03 -0.75534E-04
 0.14223001E+03 -0.16841E-03
 0.14228001E+03 -0.24957E-03
 0.14233002E+03 -0.31034E-03
 0.14238002E+03 -0.34631E-03
 0.14243001E+03 -0.35887E-03
 0.14248001E+03 -0.35465E-03
 0.14253001E+03 -0.34471E-03
 0.14258002E+03 -0.33255E-03
 0.14263002E+03 -0.31494E-03
 0.14268001E+03 -0.29482E-03
 0.14273001E+03 -0.28183E-03
 0.14278001E+03 -0.27598E-03
 0.14283002E+03 -0.27030E-03
 0.14288002E+03 -0.26865E-03
 0.14293001E+03 -0.26260E-03
 0.14298001E+03 -0.23816E-03
 0.14303001E+03 -0.20314E-03
 0.14308002E+03 -0.16423E-03
 0.14313002E+03 -0.12512E-03
 0.14318001E+03 -0.85824E-04
 0.14323001E+03 -0.40179E-04
 0.14328001E+03  0.30961E-05
 0.14333002E+03  0.34233E-04
 0.14338002E+03  0.55741E-04
 0.14343001E+03  0.75637E-04
 0.14348001E+03  0.95041E-04
 0.14353001E+03  0.10906E-03
 0.14358002E+03  0.11597E-03
 0.14363002E+03  0.11748E-03
 0.14368001E+03  0.12448E-03
 0.14373001E+03  0.14233E-03
 0.14378001E+03  0.16406E-03
 0.14383002E+03  0.17599E-03
 0.14388002E+03  0.17688E-03
 0.14393001E+03  0.18862E-03
 0.14398001E+03  0.21557E-03
 0.14403001E+03  0.24547E-03
 0.14408002E+03  0.27404E-03
 0.14413002E+03  0.29482E-03
 0.14418001E+03  0.30059E-03
 0.14423001E+03  0.28825E-03
 0.14428001E+03  0.26359E-03
 0.14433002E+03  0.24212E-03
 0.14438002E+03  0.23154E-03
 0.14443001E+03  0.22410E-03
 0.14448001E+03  0.21701E-03
 0.14453001E+03  0.21270E-03
 0.14458002E+03  0.20065E-03
 0.14463002E+03  0.17783E-03
 0.14468001E+03  0.15580E-03
 0.14473001E+03  0.13360E-03
 0.14478001E+03  0.98465E-04
 0.14483002E+03  0.44936E-04
 0.14488002E+03 -0.28055E-04
 0.14493001E+03 -0.11216E-03
 0.14498001E+03 -0.18842E-03
 0.14503001E+03 -0.24758E-03
 0.14508002E+03 -0.28250E-03
 0.14513002E+03 -0.29210E-03
 0.14518001E+03 -0.28982E-03
 0.14523001E+03 -0.28339E-03
 0.14528001E+03 -0.27587E-03
 0.14533002E+03 -0.27032E-03
 0.14538002E+03 -0.26612E-03
 0.14543001E+03 -0.26429E-03
 0.14548001E+03 -0.26028E-03
 0.14553001E+03 -0.24142E-03
 0.14558002E+03 -0.20269E-03
 0.14563002E+03 -0.15187E-03
 0.14568001E+03 -0.10461E-03
 0.14573001E+03 -0.73262E-04
 0.14578001E+03 -0.63657E-04
 0.14583002E+03 -0.71357E-04
 0.14588002E+03 -0.83817E-04
 0.14593001E+03 -0.10334E-03
 0.14598001E+03 -0.13090E-03
 0.14603001E+03 -0.14755E-03
 0.14608002E+03 -0.14178E-03
 0.14613002E+03 -0.11672E-03
 0.14618001E+03 -0.80186E-04
 0.14623001E+03 -0.44353E-04
 0.14628001E+03 -0.99437E-05
 0.14633002E+03  0.24713E-04
 0.14638002E+03  0.44369E-04
 0.14643001E+03  0.41034E-04
 0.14648001E+03  0.19855E-04
 0.14653001E+03 -0.10470E-04
 0.14658002E+03 -0.34969E-04
 0.14663002E+03 -0.39148E-04
 0.14668001E+03 -0.17917E-04
 0.14673001E+03  0.19152E-04
 0.14678001E+03  0.64575E-04
 0.14683002E+03  0.11637E-03
 0.14688002E+03  0.16688E-03
 0.14693001E+03  0.21182E-03
 0.14698001E+03  0.25067E-03
 0.14703001E+03  0.28527E-03
 0.14708002E+03  0.32076E-03
 0.14713002E+03  0.35608E-03
 0.14718001E+03  0.38418E-03
 0.14723001E+03  0.40084E-03
 0.14728001E+03  0.40360E-03
 0.14733002E+03  0.38990E-03
 0.14738002E+03  0.35899E-03
 0.14743001E+03  0.31557E-03
 0.14748001E+03  0.26603E-03
 0.14753001E+03  0.21241E-03
 0.14758002E+03  0.15904E-03
 0.14763002E+03  0.11178E-03
 0.14768001E+03  0.74698E-04
 0.14773001E+03  0.50204E-04
 0.14778001E+03  0.29809E-04
 0.14783002E+03  0.24539E-05
 0.14788002E+03 -0.37002E-04
 0.14793001E+03 -0.94297E-04
 0.14798001E+03 -0.17090E-03
 0.14803001E+03 -0.25848E-03
 0.14808002E+03 -0.34100E-03
 0.14813002E+03 -0.40824E-03
 0.14818001E+03 -0.45589E-03
 0.14823001E+03 -0.47931E-03
 0.14828001E+03 -0.47956E-03
 0.14833002E+03 -0.45911E-03
 0.14838002E+03 -0.42020E-03
 0.14843001E+03 -0.37460E-03
 0.14848001E+03 -0.33095E-03
 0.14853001E+03 -0.28589E-03
 0.14858002E+03 -0.23999E-03
 0.14863002E+03 -0.18953E-03
 0.14868001E+03 -0.13571E-03
 0.14873001E+03 -0.88573E-04
 0.14878001E+03 -0.46556E-04
 0.14883002E+03 -0.82005E-05
 0.14888002E+03  0.28775E-04
 0.14893001E+03  0.70032E-04
 0.14898001E+03  0.11657E-03
 0.14903001E+03  0.16736E-03
 0.14908002E+03  0.21399E-03
 0.14913002E+03  0.24473E-03
 0.14918001E+03  0.25766E-03
 0.14923001E+03  0.25420E-03
 0.14928001E+03  0.23342E-03
 0.14933002E+03  0.20221E-03
 0.14938002E+03  0.17054E-03
 0.14943001E+03  0.14096E-03
 0.14948001E+03  0.11296E-03
 0.14953001E+03  0.90374E-04
 0.14958002E+03  0.74138E-04
 0.14963002E+03  0.57822E-04
 0.14968001E+03  0.37442E-04
 0.14973001E+03  0.74871E-05
 0.14978001E+03 -0.35111E-04
 0.14983002E+03 -0.83713E-04
 0.14988002E+03 -0.13495E-03
 0.14993001E+03 -0.18370E-03
 0.14998001E+03 -0.21735E-03
