-0.20004272E-01  0.37569E-06
 0.29995728E-01  0.18342E-06
 0.79995729E-01  0.52373E-07
 0.12999573E+00 -0.23488E-07
 0.17999573E+00 -0.73751E-07
 0.22999573E+00 -0.94660E-07
 0.27999574E+00 -0.92201E-07
 0.32999572E+00 -0.14424E-06
 0.37999573E+00 -0.15109E-06
 0.42999575E+00 -0.93131E-07
 0.47999573E+00 -0.96468E-07
 0.52999574E+00 -0.35556E-07
 0.57999575E+00 -0.21603E-07
 0.62999576E+00 -0.53191E-07
 0.67999572E+00  0.67861E-08
 0.72999573E+00 -0.45558E-07
 0.77999574E+00 -0.54174E-07
 0.82999575E+00 -0.60839E-08
 0.87999576E+00 -0.39908E-07
 0.92999572E+00 -0.18667E-07
 0.97999573E+00  0.39046E-07
 0.10299958E+01  0.14442E-07
 0.10799958E+01  0.55030E-07
 0.11299957E+01  0.10906E-06
 0.11799958E+01  0.72337E-07
 0.12299957E+01  0.11131E-06
 0.12799958E+01  0.59662E-07
 0.13299958E+01  0.80789E-08
 0.13799957E+01  0.23929E-07
 0.14299958E+01 -0.16774E-07
 0.14799957E+01 -0.21826E-07
 0.15299958E+01 -0.11553E-07
 0.15799958E+01 -0.75321E-08
 0.16299957E+01  0.73697E-09
 0.16799958E+01  0.57788E-07
 0.17299957E+01  0.91325E-07
 0.17799958E+01  0.32713E-07
 0.18299958E+01  0.32224E-07
 0.18799957E+01  0.40446E-07
 0.19299958E+01 -0.30315E-07
 0.19799957E+01 -0.51967E-07
 0.20299957E+01 -0.92191E-07
 0.20799959E+01 -0.85156E-07
 0.21299958E+01 -0.67446E-07
 0.21799958E+01 -0.92306E-07
 0.22299957E+01 -0.46168E-07
 0.22799957E+01 -0.28442E-07
 0.23299959E+01  0.24306E-07
 0.23799958E+01  0.30756E-07
 0.24299958E+01  0.11763E-07
 0.24799957E+01  0.30420E-07
 0.25299957E+01  0.14197E-07
 0.25799959E+01  0.23947E-07
 0.26299958E+01  0.32409E-07
 0.26799958E+01  0.38410E-07
 0.27299957E+01  0.59833E-07
 0.27799957E+01  0.61456E-07
 0.28299959E+01  0.27365E-07
 0.28799958E+01  0.48435E-07
 0.29299958E+01  0.64732E-07
 0.29799957E+01  0.54637E-08
 0.30299957E+01  0.42022E-07
 0.30799959E+01  0.80845E-07
 0.31299958E+01  0.20109E-07
 0.31799958E+01 -0.22685E-07
 0.32299957E+01 -0.57208E-07
 0.32799957E+01 -0.30256E-07
 0.33299959E+01 -0.48998E-07
 0.33799958E+01 -0.59307E-07
 0.34299958E+01 -0.26511E-07
 0.34799957E+01 -0.37355E-07
 0.35299957E+01  0.40374E-07
 0.35799959E+01  0.19284E-07
 0.36299958E+01 -0.31389E-07
 0.36799958E+01 -0.21955E-07
 0.37299957E+01  0.10332E-07
 0.37799957E+01 -0.82482E-08
 0.38299959E+01 -0.55735E-07
 0.38799958E+01 -0.40395E-07
 0.39299958E+01 -0.82297E-07
 0.39799957E+01 -0.25644E-07
 0.40299959E+01 -0.29839E-07
 0.40799956E+01 -0.29179E-07
 0.41299958E+01  0.33977E-07
 0.41799960E+01 -0.19850E-08
 0.42299957E+01 -0.13130E-07
 0.42799959E+01 -0.13184E-07
 0.43299956E+01  0.15492E-07
 0.43799958E+01 -0.46502E-07
 0.44299960E+01 -0.30401E-07
 0.44799957E+01  0.16578E-09
 0.45299959E+01 -0.39361E-07
 0.45799956E+01 -0.29130E-07
 0.46299958E+01 -0.63136E-07
 0.46799960E+01 -0.13128E-07
 0.47299957E+01 -0.12962E-08
 0.47799959E+01  0.28327E-07
 0.48299956E+01  0.25027E-07
 0.48799958E+01  0.31008E-08
 0.49299960E+01  0.82869E-07
 0.49799957E+01  0.40508E-08
 0.50299959E+01  0.81609E-08
 0.50799956E+01  0.42878E-07
 0.51299958E+01  0.95749E-08
 0.51799960E+01  0.54828E-07
 0.52299957E+01 -0.19719E-07
 0.52799959E+01 -0.30136E-08
 0.53299956E+01  0.18749E-07
 0.53799958E+01 -0.19018E-07
 0.54299960E+01  0.10163E-06
 0.54799957E+01  0.45619E-07
 0.55299959E+01  0.10480E-07
 0.55799956E+01  0.57979E-07
 0.56299958E+01  0.28482E-07
 0.56799960E+01  0.90548E-07
 0.57299957E+01  0.78902E-07
 0.57799959E+01  0.47295E-07
 0.58299956E+01  0.41659E-07
 0.58799958E+01  0.41690E-07
 0.59299960E+01  0.64105E-07
 0.59799957E+01 -0.89875E-08
 0.60299959E+01 -0.80253E-07
 0.60799956E+01 -0.17487E-07
 0.61299958E+01 -0.12060E-07
 0.61799960E+01 -0.74038E-07
 0.62299957E+01 -0.55716E-07
 0.62799959E+01 -0.10592E-06
 0.63299956E+01 -0.12865E-06
 0.63799958E+01 -0.84902E-07
 0.64299960E+01 -0.83397E-07
 0.64799957E+01 -0.71600E-07
 0.65299959E+01 -0.16646E-07
 0.65799956E+01  0.47906E-07
 0.66299958E+01  0.15493E-08
 0.66799960E+01  0.24137E-07
 0.67299957E+01  0.70057E-07
 0.67799959E+01 -0.19269E-07
 0.68299956E+01  0.58162E-07
 0.68799958E+01  0.78042E-07
 0.69299960E+01 -0.66132E-07
 0.69799957E+01  0.34074E-08
 0.70299959E+01  0.18174E-07
 0.70799956E+01 -0.61538E-07
 0.71299958E+01  0.32766E-07
 0.71799960E+01  0.49932E-07
 0.72299957E+01 -0.21257E-07
 0.72799959E+01 -0.19568E-08
 0.73299956E+01  0.66199E-07
 0.73799958E+01  0.69632E-07
 0.74299960E+01 -0.18941E-07
 0.74799957E+01  0.59901E-07
 0.75299959E+01  0.10597E-06
 0.75799956E+01 -0.48438E-07
 0.76299958E+01 -0.10405E-07
 0.76799960E+01  0.35165E-07
 0.77299957E+01 -0.44591E-07
 0.77799959E+01 -0.19376E-07
 0.78299956E+01  0.82052E-08
 0.78799958E+01 -0.16401E-07
 0.79299960E+01 -0.27687E-07
 0.79799957E+01 -0.39057E-07
 0.80299959E+01 -0.22553E-07
 0.80799961E+01 -0.19373E-07
 0.81299963E+01 -0.39615E-07
 0.81799955E+01 -0.65307E-07
 0.82299957E+01 -0.12866E-06
 0.82799959E+01 -0.91261E-07
 0.83299961E+01 -0.33244E-07
 0.83799963E+01 -0.44854E-07
 0.84299955E+01 -0.72852E-07
 0.84799957E+01 -0.63025E-07
 0.85299959E+01  0.31613E-07
 0.85799961E+01  0.38280E-07
 0.86299963E+01  0.38528E-07
 0.86799955E+01  0.11314E-06
 0.87299957E+01  0.14301E-06
 0.87799959E+01  0.13256E-06
 0.88299961E+01  0.83424E-07
 0.88799963E+01  0.85257E-07
 0.89299955E+01  0.84669E-07
 0.89799957E+01 -0.17543E-07
 0.90299959E+01 -0.28927E-07
 0.90799961E+01  0.23307E-07
 0.91299963E+01 -0.41688E-07
 0.91799955E+01 -0.31394E-07
 0.92299957E+01  0.35575E-07
 0.92799959E+01 -0.48923E-07
 0.93299961E+01 -0.48332E-07
 0.93799963E+01  0.10597E-07
 0.94299955E+01 -0.65609E-07
 0.94799957E+01 -0.48189E-07
 0.95299959E+01  0.81730E-08
 0.95799961E+01 -0.43423E-07
 0.96299963E+01 -0.66668E-07
 0.96799955E+01 -0.43484E-07
 0.97299957E+01  0.30181E-07
 0.97799959E+01  0.21606E-07
 0.98299961E+01 -0.35847E-07
 0.98799963E+01  0.55094E-07
 0.99299955E+01  0.39069E-07
 0.99799957E+01 -0.15665E-07
 0.10029996E+02  0.28995E-07
 0.10079996E+02 -0.17476E-07
 0.10129996E+02  0.65663E-08
 0.10179996E+02  0.24637E-07
 0.10229996E+02 -0.36630E-07
 0.10279996E+02 -0.45329E-07
 0.10329996E+02 -0.46631E-07
 0.10379996E+02 -0.27198E-08
 0.10429996E+02  0.11041E-07
 0.10479996E+02  0.58709E-07
 0.10529996E+02  0.89014E-07
 0.10579996E+02  0.51718E-07
 0.10629996E+02  0.72271E-07
 0.10679996E+02  0.66934E-07
 0.10729996E+02  0.54003E-07
 0.10779996E+02 -0.15373E-08
 0.10829996E+02 -0.44980E-07
 0.10879996E+02 -0.20282E-07
 0.10929996E+02 -0.53667E-07
 0.10979996E+02 -0.11717E-06
 0.11029996E+02 -0.90640E-07
 0.11079996E+02 -0.36467E-07
 0.11129996E+02 -0.32427E-08
 0.11179996E+02  0.18326E-07
 0.11229996E+02 -0.15081E-07
 0.11279996E+02  0.12062E-07
 0.11329996E+02  0.79355E-07
 0.11379996E+02  0.52889E-07
 0.11429996E+02  0.78290E-08
 0.11479996E+02  0.42186E-07
 0.11529996E+02  0.93419E-08
 0.11579996E+02 -0.56970E-07
 0.11629996E+02  0.16956E-07
 0.11679996E+02  0.86560E-08
 0.11729996E+02  0.39089E-08
 0.11779996E+02  0.41233E-07
 0.11829996E+02 -0.36034E-07
 0.11879996E+02  0.51749E-07
 0.11929996E+02  0.26976E-07
 0.11979996E+02 -0.60686E-07
 0.12029996E+02  0.20823E-07
 0.12079996E+02 -0.47127E-07
 0.12129996E+02 -0.51959E-07
 0.12179996E+02 -0.54698E-07
 0.12229996E+02 -0.87340E-07
 0.12279996E+02 -0.33242E-07
 0.12329996E+02 -0.40055E-07
 0.12379996E+02 -0.70130E-07
 0.12429996E+02 -0.64396E-07
 0.12479996E+02 -0.14228E-07
 0.12529996E+02 -0.91962E-08
 0.12579996E+02  0.23057E-07
 0.12629996E+02  0.53332E-07
 0.12679996E+02  0.35728E-07
 0.12729996E+02  0.86406E-07
 0.12779996E+02  0.63338E-07
 0.12829996E+02  0.72219E-08
 0.12879996E+02  0.56149E-07
 0.12929996E+02  0.76662E-07
 0.12979996E+02  0.35666E-07
 0.13029996E+02  0.33206E-07
 0.13079996E+02  0.26418E-07
 0.13129996E+02  0.50041E-08
 0.13179996E+02  0.33140E-07
 0.13229996E+02 -0.55091E-07
 0.13279996E+02 -0.37329E-07
 0.13329996E+02  0.69552E-07
 0.13379996E+02 -0.58824E-07
 0.13429996E+02 -0.19470E-07
 0.13479996E+02  0.57552E-07
 0.13529996E+02 -0.20039E-07
 0.13579996E+02  0.28747E-07
 0.13629996E+02  0.17876E-08
 0.13679996E+02 -0.74128E-07
 0.13729996E+02 -0.17697E-07
 0.13779996E+02 -0.22673E-07
 0.13829996E+02 -0.49152E-07
 0.13879996E+02  0.51949E-08
 0.13929996E+02  0.17067E-07
 0.13979996E+02 -0.17055E-07
 0.14029996E+02 -0.92817E-08
 0.14079996E+02  0.26334E-09
 0.14129996E+02  0.73174E-08
 0.14179996E+02  0.53844E-07
 0.14229996E+02  0.41218E-07
 0.14279996E+02  0.25995E-07
 0.14329996E+02  0.21771E-07
 0.14379996E+02  0.40833E-07
 0.14429996E+02  0.12274E-07
 0.14479996E+02 -0.27052E-07
 0.14529996E+02  0.36668E-07
 0.14579996E+02  0.10387E-07
 0.14629996E+02 -0.23830E-07
 0.14679996E+02 -0.23520E-07
 0.14729996E+02 -0.74467E-08
 0.14779996E+02 -0.28966E-08
 0.14829996E+02  0.26317E-07
 0.14879996E+02  0.25140E-07
 0.14929996E+02 -0.16410E-07
 0.14979996E+02  0.41533E-07
 0.15029996E+02 -0.31117E-07
 0.15079996E+02 -0.43745E-07
 0.15129996E+02  0.20640E-07
 0.15179996E+02 -0.50967E-07
 0.15229996E+02 -0.70232E-07
 0.15279996E+02 -0.21006E-07
 0.15329996E+02 -0.39873E-07
 0.15379996E+02 -0.68793E-07
 0.15429996E+02 -0.68466E-07
 0.15479996E+02 -0.83097E-07
 0.15529996E+02 -0.10797E-07
 0.15579996E+02 -0.36661E-07
 0.15629996E+02 -0.86538E-07
 0.15679996E+02 -0.36247E-07
 0.15729996E+02 -0.45776E-08
 0.15779996E+02 -0.20132E-07
 0.15829996E+02 -0.52328E-07
 0.15879996E+02 -0.75637E-09
 0.15929996E+02 -0.35356E-08
 0.15979996E+02  0.95864E-08
 0.16029997E+02  0.25814E-07
 0.16079996E+02  0.35101E-07
 0.16129995E+02  0.47137E-07
 0.16179996E+02  0.23100E-07
 0.16229996E+02  0.60814E-07
 0.16279997E+02  0.40387E-07
 0.16329996E+02  0.44383E-07
 0.16379995E+02  0.56412E-07
 0.16429996E+02  0.58959E-07
 0.16479996E+02  0.70476E-07
 0.16529997E+02  0.35969E-07
 0.16579996E+02  0.35738E-07
 0.16629995E+02  0.20960E-07
 0.16679996E+02  0.50481E-07
 0.16729996E+02  0.61227E-07
 0.16779997E+02  0.18068E-07
 0.16829996E+02  0.59496E-07
 0.16879995E+02  0.69208E-07
 0.16929996E+02  0.69463E-08
 0.16979996E+02  0.14183E-08
 0.17029997E+02 -0.60550E-08
 0.17079996E+02 -0.71833E-08
 0.17129995E+02  0.85619E-08
 0.17179996E+02 -0.47502E-07
 0.17229996E+02 -0.48494E-07
 0.17279997E+02 -0.53499E-07
 0.17329996E+02 -0.62582E-07
 0.17379995E+02 -0.37635E-07
 0.17429996E+02 -0.16069E-07
 0.17479996E+02  0.15263E-07
 0.17529997E+02 -0.11486E-08
 0.17579996E+02  0.43101E-08
 0.17629995E+02 -0.12877E-07
 0.17679996E+02  0.41338E-07
 0.17729996E+02  0.50857E-07
 0.17779997E+02 -0.81481E-08
 0.17829996E+02 -0.10374E-07
 0.17879995E+02 -0.45613E-07
 0.17929996E+02 -0.26409E-07
 0.17979996E+02 -0.54243E-07
 0.18029997E+02 -0.44217E-07
 0.18079996E+02  0.37596E-07
 0.18129995E+02  0.13627E-07
 0.18179996E+02 -0.50198E-07
 0.18229996E+02 -0.16858E-07
 0.18279997E+02  0.15732E-07
 0.18329996E+02 -0.27706E-08
 0.18379995E+02  0.49733E-08
 0.18429996E+02 -0.36228E-07
 0.18479996E+02 -0.12385E-07
 0.18529997E+02  0.10259E-07
 0.18579996E+02 -0.45331E-07
 0.18629995E+02 -0.30620E-07
 0.18679996E+02 -0.19361E-07
 0.18729996E+02 -0.21709E-07
 0.18779997E+02  0.24297E-07
 0.18829996E+02  0.38185E-07
 0.18879995E+02  0.10333E-07
 0.18929996E+02  0.75326E-08
 0.18979996E+02 -0.98071E-08
 0.19029997E+02 -0.86980E-08
 0.19079996E+02  0.34031E-07
 0.19129995E+02 -0.93159E-08
 0.19179996E+02 -0.61159E-07
 0.19229996E+02 -0.11944E-07
 0.19279997E+02  0.56418E-08
 0.19329996E+02  0.10110E-07
 0.19379995E+02  0.18839E-07
 0.19429996E+02  0.44854E-07
 0.19479996E+02  0.98936E-07
 0.19529997E+02  0.76092E-07
 0.19579996E+02  0.28630E-07
 0.19629995E+02 -0.19049E-07
 0.19679996E+02  0.10385E-07
 0.19729996E+02  0.29064E-07
 0.19779997E+02 -0.12463E-07
 0.19829996E+02  0.95802E-08
 0.19879995E+02  0.55685E-07
 0.19929996E+02  0.37556E-07
 0.19979996E+02 -0.29074E-09
 0.20029997E+02  0.37471E-08
 0.20079996E+02 -0.27019E-07
 0.20129995E+02 -0.16727E-08
 0.20179996E+02 -0.31368E-07
 0.20229996E+02 -0.76181E-07
 0.20279997E+02 -0.13622E-07
 0.20329996E+02 -0.37880E-07
 0.20379995E+02 -0.76775E-07
 0.20429996E+02 -0.46606E-07
 0.20479996E+02  0.11131E-07
 0.20529997E+02  0.59344E-07
 0.20579996E+02  0.52126E-07
 0.20629995E+02 -0.88160E-08
 0.20679996E+02  0.55150E-07
 0.20729996E+02  0.10287E-06
 0.20779997E+02 -0.26398E-07
 0.20829996E+02  0.43769E-08
 0.20879995E+02 -0.32529E-08
 0.20929996E+02 -0.10705E-06
 0.20979996E+02 -0.72212E-07
 0.21029997E+02 -0.67906E-07
 0.21079996E+02 -0.81301E-07
 0.21129995E+02 -0.35051E-07
 0.21179996E+02 -0.70216E-08
 0.21229996E+02 -0.35838E-07
 0.21279997E+02  0.51335E-08
 0.21329996E+02 -0.33277E-08
 0.21379995E+02 -0.46309E-07
 0.21429996E+02 -0.25976E-07
 0.21479996E+02 -0.19748E-07
 0.21529997E+02 -0.36734E-07
 0.21579996E+02 -0.97755E-07
 0.21629995E+02 -0.15253E-07
 0.21679996E+02  0.60180E-07
 0.21729996E+02  0.26491E-07
 0.21779997E+02  0.54881E-07
 0.21829996E+02  0.58827E-07
 0.21879995E+02  0.74431E-07
 0.21929996E+02  0.11978E-06
 0.21979996E+02  0.82347E-07
 0.22029997E+02  0.30112E-07
 0.22079996E+02 -0.86677E-10
 0.22129995E+02 -0.51867E-07
 0.22179996E+02 -0.79320E-07
 0.22229996E+02 -0.69579E-07
 0.22279997E+02 -0.10384E-07
 0.22329996E+02  0.13795E-07
 0.22379995E+02  0.39000E-07
 0.22429996E+02  0.12672E-06
 0.22479996E+02  0.99067E-07
 0.22529997E+02  0.52077E-07
 0.22579996E+02  0.72741E-07
 0.22629995E+02  0.50274E-07
 0.22679996E+02  0.55664E-07
 0.22729996E+02  0.75308E-07
 0.22779997E+02 -0.16036E-07
 0.22829996E+02 -0.56804E-07
 0.22879995E+02 -0.44379E-07
 0.22929996E+02 -0.57318E-07
 0.22979996E+02 -0.28911E-07
 0.23029997E+02 -0.50642E-07
 0.23079996E+02  0.19584E-07
 0.23129995E+02  0.52562E-07
 0.23179996E+02  0.62403E-08
 0.23229996E+02  0.11310E-07
 0.23279997E+02 -0.10184E-07
 0.23329996E+02  0.13217E-08
 0.23379995E+02 -0.13018E-07
 0.23429996E+02 -0.13859E-07
 0.23479996E+02 -0.29176E-07
 0.23529997E+02 -0.58265E-08
 0.23579996E+02 -0.20260E-07
 0.23629995E+02 -0.30113E-07
 0.23679996E+02  0.50530E-07
 0.23729996E+02 -0.13369E-07
 0.23779997E+02 -0.41516E-07
 0.23829996E+02 -0.48606E-07
 0.23879995E+02 -0.75310E-07
 0.23929996E+02 -0.38712E-07
 0.23979996E+02 -0.70929E-07
 0.24029997E+02 -0.94476E-07
 0.24079996E+02 -0.47002E-07
 0.24129995E+02 -0.79206E-07
 0.24179996E+02 -0.75063E-07
 0.24229996E+02  0.95865E-08
 0.24279997E+02  0.44672E-07
 0.24329996E+02  0.73121E-07
 0.24379995E+02  0.25375E-08
 0.24429996E+02  0.18725E-07
 0.24479996E+02  0.75278E-07
 0.24529997E+02  0.39709E-07
 0.24579996E+02  0.49940E-07
 0.24629995E+02  0.44862E-07
 0.24679996E+02  0.46265E-07
 0.24729996E+02  0.41859E-07
 0.24779997E+02  0.23910E-07
 0.24829996E+02  0.41215E-08
 0.24879995E+02  0.15875E-08
 0.24929996E+02 -0.25274E-07
 0.24979996E+02 -0.12820E-07
 0.25029997E+02  0.54043E-07
 0.25079996E+02  0.24886E-07
 0.25129995E+02  0.32331E-08
 0.25179996E+02  0.11641E-08
 0.25229996E+02  0.12457E-07
 0.25279997E+02  0.58746E-07
 0.25329996E+02  0.56381E-07
 0.25379995E+02  0.39210E-07
 0.25429996E+02 -0.18813E-07
 0.25479996E+02 -0.61508E-07
 0.25529997E+02 -0.32773E-06
 0.25579996E+02 -0.71465E-06
 0.25629995E+02 -0.11066E-05
 0.25679996E+02 -0.16648E-05
 0.25729996E+02 -0.23807E-05
 0.25779997E+02 -0.37976E-05
 0.25829996E+02 -0.47998E-05
 0.25879995E+02 -0.59616E-05
 0.25929996E+02 -0.63895E-05
 0.25979996E+02 -0.53199E-05
 0.26029997E+02 -0.43877E-05
 0.26079996E+02 -0.38095E-05
 0.26129995E+02 -0.66485E-05
 0.26179996E+02 -0.89345E-05
 0.26229996E+02 -0.11018E-04
 0.26279997E+02 -0.10678E-04
 0.26329996E+02 -0.57973E-05
 0.26379995E+02 -0.44200E-05
 0.26429996E+02 -0.40506E-05
 0.26479996E+02 -0.60907E-05
 0.26529997E+02  0.33384E-05
 0.26579996E+02  0.23323E-04
 0.26629995E+02  0.32716E-04
 0.26679996E+02  0.36364E-04
 0.26729996E+02  0.33823E-04
 0.26779997E+02  0.13036E-04
 0.26829996E+02 -0.23266E-04
 0.26879995E+02 -0.45604E-04
 0.26929996E+02 -0.54444E-04
 0.26979996E+02 -0.54642E-04
 0.27029997E+02 -0.29408E-04
 0.27079996E+02 -0.31482E-05
 0.27129995E+02  0.10106E-04
 0.27179996E+02  0.29840E-04
 0.27229996E+02  0.55679E-04
 0.27279997E+02  0.73014E-04
 0.27329996E+02  0.82588E-04
 0.27379995E+02  0.79554E-04
 0.27429996E+02  0.66463E-04
 0.27479996E+02  0.62951E-04
 0.27529997E+02  0.48545E-04
 0.27579996E+02  0.64030E-05
 0.27629995E+02 -0.19415E-04
 0.27679996E+02 -0.21147E-04
 0.27729996E+02 -0.42425E-04
 0.27779997E+02 -0.59479E-04
 0.27829996E+02 -0.39841E-04
 0.27879995E+02 -0.14957E-04
 0.27929996E+02 -0.53088E-05
 0.27979996E+02  0.57205E-05
 0.28029997E+02  0.29597E-04
 0.28079996E+02  0.38342E-04
 0.28129995E+02  0.37670E-05
 0.28179996E+02 -0.54976E-04
 0.28229996E+02 -0.11609E-03
 0.28279997E+02 -0.16642E-03
 0.28329996E+02 -0.17574E-03
 0.28379995E+02 -0.16241E-03
 0.28429996E+02 -0.11430E-03
 0.28479996E+02 -0.33809E-04
 0.28529997E+02  0.71939E-05
 0.28579996E+02  0.46027E-04
 0.28629995E+02  0.69350E-04
 0.28679996E+02  0.55843E-04
 0.28729996E+02  0.12160E-03
 0.28779997E+02  0.22393E-03
 0.28829996E+02  0.22961E-03
 0.28879995E+02  0.17602E-03
 0.28929996E+02  0.11846E-03
 0.28979996E+02  0.20627E-04
 0.29029997E+02 -0.14117E-03
 0.29079996E+02 -0.24165E-03
 0.29129995E+02 -0.18896E-03
 0.29179996E+02 -0.98500E-04
 0.29229996E+02 -0.18751E-04
 0.29279997E+02  0.88148E-04
 0.29329996E+02  0.14608E-03
 0.29379995E+02  0.78029E-04
 0.29429996E+02  0.24328E-05
 0.29479996E+02 -0.70380E-05
 0.29529997E+02  0.20545E-04
 0.29579996E+02  0.83542E-04
 0.29629995E+02  0.14966E-03
 0.29679996E+02  0.15738E-03
 0.29729996E+02 -0.23383E-04
 0.29779997E+02 -0.25919E-03
 0.29829996E+02 -0.32400E-03
 0.29879995E+02 -0.25797E-03
 0.29929996E+02 -0.13271E-03
 0.29979996E+02 -0.27438E-04
 0.30029997E+02  0.60694E-04
 0.30079996E+02  0.15139E-03
 0.30129995E+02  0.23026E-03
 0.30179996E+02  0.27627E-03
 0.30229996E+02  0.23651E-03
 0.30279997E+02  0.15094E-03
 0.30329996E+02  0.46226E-04
 0.30379995E+02  0.21911E-05
 0.30429996E+02  0.65640E-05
 0.30479996E+02 -0.80693E-04
 0.30529997E+02 -0.18060E-03
 0.30579996E+02 -0.19677E-03
 0.30629995E+02 -0.15468E-03
 0.30679996E+02 -0.96195E-04
 0.30729996E+02 -0.62599E-04
 0.30779997E+02 -0.40249E-04
 0.30829996E+02 -0.24946E-04
 0.30879995E+02 -0.77425E-05
 0.30929996E+02 -0.16022E-04
 0.30979996E+02 -0.10064E-03
 0.31029997E+02 -0.13195E-03
 0.31079996E+02 -0.11737E-03
 0.31129995E+02 -0.23096E-04
 0.31179996E+02  0.10908E-03
 0.31229996E+02  0.64918E-04
 0.31279997E+02  0.68740E-04
 0.31329996E+02  0.77254E-04
 0.31379995E+02  0.11246E-04
 0.31429996E+02  0.74362E-04
 0.31479996E+02  0.19412E-03
 0.31529997E+02  0.31411E-03
 0.31579996E+02  0.36729E-03
 0.31629995E+02  0.22387E-03
 0.31679996E+02 -0.24338E-04
 0.31729996E+02 -0.19863E-03
 0.31779997E+02 -0.26760E-03
 0.31829996E+02 -0.22766E-03
 0.31879995E+02 -0.18294E-03
 0.31929996E+02 -0.10053E-03
 0.31979996E+02  0.82542E-07
 0.32029995E+02 -0.60063E-04
 0.32079998E+02 -0.10429E-03
 0.32129997E+02 -0.11901E-03
 0.32179996E+02 -0.62408E-04
 0.32229996E+02  0.12316E-03
 0.32279995E+02  0.13872E-03
 0.32329998E+02  0.10852E-03
 0.32379997E+02  0.15313E-03
 0.32429996E+02  0.17173E-03
 0.32479996E+02  0.13341E-03
 0.32529995E+02 -0.10975E-04
 0.32579998E+02 -0.16917E-03
 0.32629997E+02 -0.28643E-03
 0.32679996E+02 -0.21025E-03
 0.32729996E+02 -0.57443E-04
 0.32779995E+02  0.40305E-05
 0.32829998E+02  0.56462E-04
 0.32879997E+02  0.38615E-04
 0.32929996E+02  0.14558E-04
 0.32979996E+02  0.46080E-04
 0.33029995E+02  0.10873E-03
 0.33079998E+02  0.15400E-03
 0.33129997E+02  0.15909E-03
 0.33179996E+02  0.11283E-03
 0.33229996E+02  0.89219E-04
 0.33279995E+02  0.67263E-04
 0.33329998E+02 -0.60527E-04
 0.33379997E+02 -0.11967E-03
 0.33429996E+02 -0.13201E-03
 0.33479996E+02 -0.12342E-03
 0.33529995E+02 -0.12931E-03
 0.33579998E+02 -0.12505E-03
 0.33629997E+02  0.43742E-04
 0.33679996E+02  0.13926E-03
 0.33729996E+02  0.12966E-03
 0.33779995E+02  0.38659E-04
 0.33829998E+02 -0.11505E-03
 0.33879997E+02 -0.18386E-03
 0.33929996E+02 -0.20863E-03
 0.33979996E+02 -0.12256E-03
 0.34029995E+02  0.52254E-04
 0.34079998E+02  0.14556E-03
 0.34129997E+02  0.74646E-04
 0.34179996E+02 -0.49522E-04
 0.34229996E+02 -0.84118E-04
 0.34279995E+02 -0.44601E-04
 0.34329998E+02  0.23023E-04
 0.34379997E+02  0.37864E-04
 0.34429996E+02  0.51758E-04
 0.34479996E+02  0.10560E-03
 0.34529995E+02  0.68887E-04
 0.34579998E+02  0.16489E-04
 0.34629997E+02  0.31161E-05
 0.34679996E+02 -0.71808E-04
 0.34729996E+02 -0.10070E-03
 0.34779995E+02 -0.98254E-04
 0.34829998E+02 -0.11177E-03
 0.34879997E+02  0.47084E-04
 0.34929996E+02  0.22662E-03
 0.34979996E+02  0.29387E-03
 0.35029995E+02  0.30112E-03
 0.35079998E+02  0.20075E-03
 0.35129997E+02  0.10684E-03
 0.35179996E+02  0.56416E-04
 0.35229996E+02  0.84675E-04
 0.35279995E+02  0.92572E-04
 0.35329998E+02  0.39833E-04
 0.35379997E+02 -0.17135E-04
 0.35429996E+02 -0.22898E-03
 0.35479996E+02 -0.40675E-03
 0.35529995E+02 -0.37967E-03
 0.35579998E+02 -0.19906E-03
 0.35629997E+02 -0.44809E-04
 0.35679996E+02 -0.15248E-04
 0.35729996E+02  0.64018E-04
 0.35779995E+02  0.10448E-03
 0.35829998E+02  0.74700E-04
 0.35879997E+02  0.10987E-03
 0.35929996E+02  0.97596E-04
 0.35979996E+02 -0.85536E-05
 0.36029995E+02 -0.16076E-03
 0.36079998E+02 -0.28889E-03
 0.36129997E+02 -0.28306E-03
 0.36179996E+02 -0.23213E-03
 0.36229996E+02 -0.14629E-03
 0.36279995E+02  0.31138E-04
 0.36329998E+02  0.20960E-03
 0.36379997E+02  0.28642E-03
 0.36429996E+02  0.31752E-03
 0.36479996E+02  0.33221E-03
 0.36529995E+02  0.19943E-03
 0.36579998E+02  0.90280E-04
 0.36629997E+02  0.77499E-04
 0.36679996E+02 -0.20405E-04
 0.36729996E+02 -0.17339E-03
 0.36779995E+02 -0.27475E-03
 0.36829998E+02 -0.24446E-03
 0.36879997E+02 -0.13421E-03
 0.36929996E+02 -0.39517E-04
 0.36979996E+02  0.11349E-04
 0.37029995E+02  0.62007E-04
 0.37079998E+02  0.12359E-03
 0.37129997E+02  0.16292E-03
 0.37179996E+02  0.26754E-03
 0.37229996E+02  0.29628E-03
 0.37279995E+02  0.12117E-03
 0.37329998E+02 -0.38551E-04
 0.37379997E+02 -0.15282E-03
 0.37429996E+02 -0.32328E-03
 0.37479996E+02 -0.41203E-03
 0.37529995E+02 -0.20912E-03
 0.37579998E+02  0.74018E-04
 0.37629997E+02  0.98476E-04
 0.37679996E+02  0.33044E-04
 0.37729996E+02 -0.18055E-04
 0.37779995E+02 -0.54569E-04
 0.37829998E+02  0.46289E-04
 0.37879997E+02  0.12568E-03
 0.37929996E+02  0.13627E-03
 0.37979996E+02  0.17415E-03
 0.38029995E+02  0.22401E-03
 0.38079998E+02  0.25224E-03
 0.38129997E+02  0.18361E-03
 0.38179996E+02  0.10897E-03
 0.38229996E+02  0.47040E-04
 0.38279995E+02 -0.12609E-03
 0.38329998E+02 -0.30050E-03
 0.38379997E+02 -0.34903E-03
 0.38429996E+02 -0.28130E-03
 0.38479996E+02 -0.21459E-03
 0.38529995E+02 -0.23970E-03
 0.38579998E+02 -0.21933E-03
 0.38629997E+02 -0.78523E-04
 0.38679996E+02  0.76688E-04
 0.38729996E+02  0.15931E-03
 0.38779995E+02  0.16716E-03
 0.38829998E+02  0.13525E-03
 0.38879997E+02  0.94413E-04
 0.38929996E+02  0.67671E-04
 0.38979996E+02  0.42000E-04
 0.39029995E+02 -0.29347E-04
 0.39079998E+02 -0.93798E-04
 0.39129997E+02 -0.10023E-03
 0.39179996E+02 -0.11696E-03
 0.39229996E+02 -0.84754E-04
 0.39279995E+02 -0.32553E-04
 0.39329998E+02 -0.18239E-04
 0.39379997E+02  0.83543E-04
 0.39429996E+02  0.19030E-03
 0.39479996E+02  0.19266E-03
 0.39529995E+02  0.11614E-03
 0.39579998E+02 -0.36270E-04
 0.39629997E+02 -0.13781E-03
 0.39679996E+02 -0.83040E-04
 0.39729996E+02  0.14627E-04
 0.39779995E+02  0.20449E-04
 0.39829998E+02 -0.21302E-04
 0.39879997E+02 -0.29078E-04
 0.39929996E+02 -0.13725E-05
 0.39979996E+02  0.43185E-04
 0.40029995E+02  0.52660E-04
 0.40079998E+02  0.48867E-04
 0.40129997E+02  0.42057E-04
 0.40179996E+02  0.15016E-04
 0.40229996E+02  0.14143E-05
 0.40279995E+02 -0.38212E-04
 0.40329998E+02 -0.79240E-04
 0.40379997E+02 -0.74806E-04
 0.40429996E+02 -0.30972E-04
 0.40479996E+02  0.37156E-04
 0.40529995E+02  0.10132E-03
 0.40579998E+02  0.11820E-03
 0.40629997E+02  0.96535E-04
 0.40679996E+02  0.15160E-03
 0.40729996E+02  0.16303E-03
 0.40779995E+02  0.10581E-03
 0.40829998E+02  0.10847E-03
 0.40879997E+02  0.86065E-04
 0.40929996E+02  0.74824E-04
 0.40979996E+02  0.50568E-04
 0.41029995E+02 -0.52264E-04
 0.41079998E+02 -0.13470E-03
 0.41129997E+02 -0.20465E-03
 0.41179996E+02 -0.30599E-03
 0.41229996E+02 -0.37401E-03
 0.41279995E+02 -0.37103E-03
 0.41329998E+02 -0.27545E-03
 0.41379997E+02 -0.11515E-03
 0.41429996E+02 -0.36840E-04
 0.41479996E+02 -0.27033E-04
 0.41529995E+02 -0.75265E-05
 0.41579998E+02 -0.42542E-05
 0.41629997E+02 -0.21688E-04
 0.41679996E+02 -0.58589E-04
 0.41729996E+02 -0.90460E-04
 0.41779995E+02 -0.49869E-04
 0.41829998E+02  0.87477E-04
 0.41879997E+02  0.25004E-03
 0.41929996E+02  0.35107E-03
 0.41979996E+02  0.33597E-03
 0.42029995E+02  0.32261E-03
 0.42079998E+02  0.39234E-03
 0.42129997E+02  0.39570E-03
 0.42179996E+02  0.33168E-03
 0.42229996E+02  0.14839E-03
 0.42279995E+02 -0.15383E-03
 0.42329998E+02 -0.29823E-03
 0.42379997E+02 -0.29145E-03
 0.42429996E+02 -0.25809E-03
 0.42479996E+02 -0.18201E-03
 0.42529995E+02 -0.11785E-03
 0.42579998E+02 -0.11572E-03
 0.42629997E+02 -0.99593E-04
 0.42679996E+02 -0.37820E-04
 0.42729996E+02  0.45652E-04
 0.42779995E+02  0.14921E-03
 0.42829998E+02  0.20209E-03
 0.42879997E+02  0.18573E-03
 0.42929996E+02  0.10343E-03
 0.42979996E+02 -0.80511E-05
 0.43029995E+02 -0.10701E-03
 0.43079998E+02 -0.20046E-03
 0.43129997E+02 -0.21428E-03
 0.43179996E+02 -0.10334E-03
 0.43229996E+02  0.21318E-04
 0.43279995E+02  0.30402E-04
 0.43329998E+02 -0.73746E-05
 0.43379997E+02  0.82110E-05
 0.43429996E+02  0.75318E-04
 0.43479996E+02  0.15669E-03
 0.43529995E+02  0.24381E-03
 0.43579998E+02  0.33324E-03
 0.43629997E+02  0.33335E-03
 0.43679996E+02  0.23011E-03
 0.43729996E+02  0.61201E-04
 0.43779995E+02 -0.11882E-03
 0.43829998E+02 -0.26502E-03
 0.43879997E+02 -0.39250E-03
 0.43929996E+02 -0.43069E-03
 0.43979996E+02 -0.36088E-03
 0.44029995E+02 -0.24975E-03
 0.44079998E+02 -0.18290E-03
 0.44129997E+02 -0.17777E-03
 0.44179996E+02 -0.13583E-03
 0.44229996E+02 -0.51178E-04
 0.44279995E+02 -0.90880E-05
 0.44329998E+02 -0.10587E-04
 0.44379997E+02  0.21524E-04
 0.44429996E+02  0.81539E-04
 0.44479996E+02  0.16709E-03
 0.44529995E+02  0.27308E-03
 0.44579998E+02  0.37850E-03
 0.44629997E+02  0.44976E-03
 0.44679996E+02  0.30061E-03
 0.44729996E+02  0.19890E-05
 0.44779995E+02 -0.16430E-03
 0.44829998E+02 -0.18360E-03
 0.44879997E+02 -0.15453E-03
 0.44929996E+02 -0.13607E-03
 0.44979996E+02 -0.12032E-03
 0.45029995E+02 -0.85010E-04
 0.45079998E+02 -0.59796E-04
 0.45129997E+02  0.12713E-05
 0.45179996E+02  0.11506E-03
 0.45229996E+02  0.18036E-03
 0.45279995E+02  0.12570E-03
 0.45329998E+02 -0.43838E-04
 0.45379997E+02 -0.16929E-03
 0.45429996E+02 -0.15968E-03
 0.45479996E+02 -0.13059E-03
 0.45529995E+02 -0.87282E-04
 0.45579998E+02 -0.16234E-04
 0.45629997E+02  0.49318E-05
 0.45679996E+02 -0.35202E-04
 0.45729996E+02 -0.74557E-04
 0.45779995E+02 -0.53198E-04
 0.45829998E+02  0.33180E-04
 0.45879997E+02  0.13977E-03
 0.45929996E+02  0.22962E-03
 0.45979996E+02  0.33707E-03
 0.46029995E+02  0.37070E-03
 0.46079998E+02  0.24923E-03
 0.46129997E+02  0.96860E-04
 0.46179996E+02 -0.74630E-04
 0.46229996E+02 -0.19100E-03
 0.46279995E+02 -0.12435E-03
 0.46329998E+02 -0.27443E-05
 0.46379997E+02  0.48383E-05
 0.46429996E+02 -0.10354E-03
 0.46479996E+02 -0.16502E-03
 0.46529995E+02 -0.10328E-03
 0.46579998E+02  0.62435E-05
 0.46629997E+02  0.35899E-04
 0.46679996E+02 -0.11405E-04
 0.46729996E+02 -0.83465E-05
 0.46779995E+02  0.40873E-05
 0.46829998E+02 -0.37996E-04
 0.46879997E+02 -0.12825E-03
 0.46929996E+02 -0.16653E-03
 0.46979996E+02 -0.12476E-03
 0.47029995E+02 -0.58831E-04
 0.47079998E+02  0.37862E-04
 0.47129997E+02  0.55689E-04
 0.47179996E+02 -0.96736E-05
 0.47229996E+02 -0.54884E-04
 0.47279995E+02 -0.54497E-04
 0.47329998E+02  0.78846E-04
 0.47379997E+02  0.30951E-03
 0.47429996E+02  0.31286E-03
 0.47479996E+02  0.86383E-04
 0.47529995E+02 -0.85357E-04
 0.47579998E+02 -0.15798E-03
 0.47629997E+02 -0.13662E-03
 0.47679996E+02 -0.48343E-04
 0.47729996E+02  0.42078E-04
 0.47779995E+02  0.17170E-04
 0.47829998E+02 -0.12243E-03
 0.47879997E+02 -0.24850E-03
 0.47929996E+02 -0.26308E-03
 0.47979996E+02 -0.58398E-04
 0.48029995E+02  0.25266E-03
 0.48079998E+02  0.45969E-03
 0.48129997E+02  0.37868E-03
 0.48179996E+02  0.85750E-04
 0.48229996E+02 -0.16868E-03
 0.48279995E+02 -0.36672E-03
 0.48329998E+02 -0.41771E-03
 0.48379997E+02 -0.31879E-03
 0.48429996E+02 -0.21695E-03
 0.48479996E+02 -0.82356E-04
 0.48529995E+02  0.10704E-03
 0.48579998E+02  0.18393E-03
 0.48629997E+02  0.78409E-04
 0.48679996E+02  0.21358E-04
 0.48729996E+02  0.63405E-04
 0.48779995E+02  0.97897E-04
 0.48829998E+02  0.14705E-03
 0.48879997E+02  0.15254E-03
 0.48929996E+02  0.63902E-04
 0.48979996E+02 -0.22330E-04
 0.49029995E+02  0.23858E-04
 0.49079998E+02  0.17177E-03
 0.49129997E+02  0.20008E-03
 0.49179996E+02  0.92025E-04
 0.49229996E+02  0.12562E-03
 0.49279995E+02  0.32569E-03
 0.49329998E+02  0.41449E-03
 0.49379997E+02  0.33683E-03
 0.49429996E+02  0.33235E-03
 0.49479996E+02  0.48324E-03
 0.49529995E+02  0.53118E-03
 0.49579998E+02  0.17279E-03
 0.49629997E+02 -0.51480E-03
 0.49679996E+02 -0.96491E-03
 0.49729996E+02 -0.86708E-03
 0.49779995E+02 -0.51414E-03
 0.49829998E+02 -0.25511E-03
 0.49879997E+02 -0.10195E-03
 0.49929996E+02  0.10747E-03
 0.49979996E+02  0.20665E-03
 0.50029995E+02 -0.94764E-04
 0.50079998E+02 -0.45193E-03
 0.50129997E+02 -0.20596E-03
 0.50179996E+02  0.36943E-03
 0.50229996E+02  0.53057E-03
 0.50279995E+02  0.30054E-03
 0.50329998E+02  0.45861E-05
 0.50379997E+02 -0.23548E-03
 0.50429996E+02 -0.31035E-03
 0.50479996E+02 -0.32152E-03
 0.50529995E+02 -0.50946E-03
 0.50579998E+02 -0.65036E-03
 0.50629997E+02 -0.47060E-03
 0.50679996E+02 -0.17847E-03
 0.50729996E+02  0.22993E-04
 0.50779995E+02  0.12871E-03
 0.50829998E+02  0.35404E-03
 0.50879997E+02  0.75056E-03
 0.50929996E+02  0.92019E-03
 0.50979996E+02  0.73635E-03
 0.51029995E+02  0.35664E-03
 0.51079998E+02  0.46662E-05
 0.51129997E+02  0.74618E-04
 0.51179996E+02  0.39481E-03
 0.51229996E+02  0.29321E-03
 0.51279995E+02 -0.26588E-03
 0.51329998E+02 -0.75489E-03
 0.51379997E+02 -0.82277E-03
 0.51429996E+02 -0.58089E-03
 0.51479996E+02 -0.37538E-03
 0.51529995E+02 -0.41533E-03
 0.51579998E+02 -0.55985E-03
 0.51629997E+02 -0.43157E-03
 0.51679996E+02 -0.19170E-03
 0.51729996E+02 -0.41230E-04
 0.51779995E+02  0.17882E-03
 0.51829998E+02  0.36028E-03
 0.51879997E+02  0.51481E-03
 0.51929996E+02  0.65184E-03
 0.51979996E+02  0.73017E-03
 0.52029995E+02  0.87609E-03
 0.52079998E+02  0.98308E-03
 0.52129997E+02  0.87816E-03
 0.52179996E+02  0.57646E-03
 0.52229996E+02  0.23797E-03
 0.52279995E+02  0.13370E-03
 0.52329998E+02  0.20818E-03
 0.52379997E+02  0.11341E-03
 0.52429996E+02 -0.93313E-04
 0.52479996E+02 -0.31127E-03
 0.52529995E+02 -0.68359E-03
 0.52579998E+02 -0.10482E-02
 0.52629997E+02 -0.12657E-02
 0.52679996E+02 -0.14121E-02
 0.52729996E+02 -0.12863E-02
 0.52779995E+02 -0.93925E-03
 0.52829998E+02 -0.62766E-03
 0.52879997E+02 -0.21203E-03
 0.52929996E+02  0.25203E-03
 0.52979996E+02  0.49469E-03
 0.53029995E+02  0.49887E-03
 0.53079998E+02  0.53326E-03
 0.53129997E+02  0.57222E-03
 0.53179996E+02  0.46091E-03
 0.53229996E+02  0.42305E-03
 0.53279995E+02  0.31017E-03
 0.53329998E+02  0.63455E-04
 0.53379997E+02 -0.88685E-06
 0.53429996E+02  0.13424E-03
 0.53479996E+02  0.31973E-03
 0.53529995E+02  0.37958E-03
 0.53579998E+02  0.33924E-03
 0.53629997E+02  0.28441E-03
 0.53679996E+02  0.13181E-03
 0.53729996E+02  0.21057E-04
 0.53779995E+02  0.14753E-03
 0.53829998E+02  0.34928E-03
 0.53879997E+02  0.36732E-03
 0.53929996E+02  0.80688E-04
 0.53979996E+02 -0.39019E-03
 0.54029995E+02 -0.77058E-03
 0.54079998E+02 -0.75452E-03
 0.54129997E+02 -0.28509E-03
 0.54179996E+02  0.19788E-03
 0.54229996E+02  0.37069E-03
 0.54279995E+02  0.34901E-03
 0.54329998E+02  0.19958E-03
 0.54379997E+02 -0.24056E-03
 0.54429996E+02 -0.71974E-03
 0.54479996E+02 -0.85306E-03
 0.54529995E+02 -0.89370E-03
 0.54579998E+02 -0.88504E-03
 0.54629997E+02 -0.55110E-03
 0.54679996E+02 -0.94040E-04
 0.54729996E+02  0.26481E-03
 0.54779995E+02  0.53325E-03
 0.54829998E+02  0.74433E-03
 0.54879997E+02  0.91004E-03
 0.54929996E+02  0.84724E-03
 0.54979996E+02  0.70135E-03
 0.55029995E+02  0.78732E-03
 0.55079998E+02  0.83405E-03
 0.55129997E+02  0.58961E-03
 0.55179996E+02  0.18260E-03
 0.55229996E+02 -0.21503E-03
 0.55279995E+02 -0.49543E-03
 0.55329998E+02 -0.48429E-03
 0.55379997E+02 -0.19502E-03
 0.55429996E+02 -0.94197E-04
 0.55479996E+02 -0.23894E-03
 0.55529995E+02 -0.37879E-03
 0.55579998E+02 -0.58009E-03
 0.55629997E+02 -0.72235E-03
 0.55679996E+02 -0.73890E-03
 0.55729996E+02 -0.86655E-03
 0.55779995E+02 -0.98069E-03
 0.55829998E+02 -0.71261E-03
 0.55879997E+02 -0.10968E-03
 0.55929996E+02  0.48337E-03
 0.55979996E+02  0.83562E-03
 0.56029995E+02  0.87119E-03
 0.56079998E+02  0.61598E-03
 0.56129997E+02  0.25483E-03
 0.56179996E+02  0.12681E-03
 0.56229996E+02  0.30712E-03
 0.56279995E+02  0.48768E-03
 0.56329998E+02  0.48877E-03
 0.56379997E+02  0.30176E-03
 0.56429996E+02 -0.11736E-03
 0.56479996E+02 -0.65863E-03
 0.56529995E+02 -0.97859E-03
 0.56579998E+02 -0.83653E-03
 0.56629997E+02 -0.32247E-03
 0.56679996E+02  0.19967E-03
 0.56729996E+02  0.44739E-03
 0.56779995E+02  0.54072E-03
 0.56829998E+02  0.62878E-03
 0.56879997E+02  0.67697E-03
 0.56929996E+02  0.65047E-03
 0.56979996E+02  0.49917E-03
 0.57029995E+02  0.23032E-03
 0.57079998E+02 -0.15320E-04
 0.57129997E+02 -0.15162E-03
 0.57179996E+02 -0.21997E-03
 0.57229996E+02 -0.29784E-03
 0.57279995E+02 -0.45139E-03
 0.57329998E+02 -0.63012E-03
 0.57379997E+02 -0.63264E-03
 0.57429996E+02 -0.39094E-03
 0.57479996E+02 -0.13508E-03
 0.57529995E+02  0.38675E-04
 0.57579998E+02  0.21957E-03
 0.57629997E+02  0.31135E-03
 0.57679996E+02  0.20446E-03
 0.57729996E+02 -0.28388E-04
 0.57779995E+02 -0.28189E-03
 0.57829998E+02 -0.45497E-03
 0.57879997E+02 -0.41500E-03
 0.57929996E+02 -0.17982E-03
 0.57979996E+02  0.27279E-04
 0.58029995E+02  0.38785E-04
 0.58079998E+02 -0.54613E-04
 0.58129997E+02 -0.78628E-04
 0.58179996E+02 -0.18392E-04
 0.58229996E+02  0.13629E-04
 0.58279995E+02  0.49777E-04
 0.58329998E+02  0.21645E-03
 0.58379997E+02  0.30499E-03
 0.58429996E+02  0.26513E-03
 0.58479996E+02  0.30981E-03
 0.58529995E+02  0.28808E-03
 0.58579998E+02  0.12214E-03
 0.58629997E+02  0.18093E-04
 0.58679996E+02  0.88705E-04
 0.58729996E+02  0.20810E-03
 0.58779995E+02  0.19529E-03
 0.58829998E+02  0.13114E-03
 0.58879997E+02  0.15521E-03
 0.58929996E+02  0.23397E-03
 0.58979996E+02  0.26772E-03
 0.59029995E+02  0.13948E-03
 0.59079998E+02 -0.14720E-03
 0.59129997E+02 -0.36027E-03
 0.59179996E+02 -0.37398E-03
 0.59229996E+02 -0.30509E-03
 0.59279995E+02 -0.29138E-03
 0.59329998E+02 -0.40822E-03
 0.59379997E+02 -0.51724E-03
 0.59429996E+02 -0.42775E-03
 0.59479996E+02 -0.19135E-03
 0.59529995E+02  0.68372E-04
 0.59579998E+02  0.15638E-03
 0.59629997E+02 -0.26355E-06
 0.59679996E+02 -0.17126E-03
 0.59729996E+02 -0.13770E-03
 0.59779995E+02  0.10973E-03
 0.59829998E+02  0.26674E-03
 0.59879997E+02  0.17780E-03
 0.59929996E+02  0.55871E-04
 0.59979996E+02  0.11903E-03
 0.60029995E+02  0.38426E-03
 0.60079998E+02  0.58095E-03
 0.60129997E+02  0.53659E-03
 0.60179996E+02  0.26058E-03
 0.60229996E+02 -0.10959E-03
 0.60279995E+02 -0.32067E-03
 0.60329998E+02 -0.34815E-03
 0.60379997E+02 -0.19095E-03
 0.60429996E+02  0.11810E-03
 0.60479996E+02  0.34871E-03
 0.60529995E+02  0.41915E-03
 0.60579998E+02  0.36858E-03
 0.60629997E+02  0.24153E-03
 0.60679996E+02  0.74295E-04
 0.60729996E+02 -0.84044E-04
 0.60779995E+02 -0.13347E-03
 0.60829998E+02 -0.11084E-03
 0.60879997E+02 -0.15452E-03
 0.60929996E+02 -0.35587E-03
 0.60979996E+02 -0.58252E-03
 0.61029995E+02 -0.59397E-03
 0.61079998E+02 -0.45872E-03
 0.61129997E+02 -0.36088E-03
 0.61179996E+02 -0.37920E-03
 0.61229996E+02 -0.46153E-03
 0.61279995E+02 -0.39488E-03
 0.61329998E+02 -0.60646E-04
 0.61379997E+02  0.35998E-03
 0.61429996E+02  0.59724E-03
 0.61479996E+02  0.65664E-03
 0.61529995E+02  0.60669E-03
 0.61579998E+02  0.46509E-03
 0.61629997E+02  0.28962E-03
 0.61679996E+02  0.15446E-03
 0.61729996E+02  0.15158E-03
 0.61779995E+02  0.15230E-03
 0.61829998E+02  0.52018E-04
 0.61879997E+02 -0.98869E-04
 0.61929996E+02 -0.23892E-03
 0.61979996E+02 -0.24867E-03
 0.62029995E+02 -0.16099E-03
 0.62079998E+02 -0.31740E-04
 0.62129997E+02  0.86297E-04
 0.62179996E+02  0.24461E-04
 0.62229996E+02 -0.17093E-03
 0.62279995E+02 -0.32902E-03
 0.62329998E+02 -0.33198E-03
 0.62379997E+02 -0.10661E-03
 0.62429996E+02  0.13188E-03
 0.62479996E+02  0.17778E-03
 0.62529995E+02  0.18852E-03
 0.62579998E+02  0.26585E-03
 0.62629997E+02  0.28024E-03
 0.62679996E+02  0.24406E-03
 0.62729996E+02  0.17885E-03
 0.62779995E+02  0.30844E-04
 0.62829998E+02 -0.83759E-04
 0.62879997E+02 -0.12478E-03
 0.62929996E+02 -0.95656E-04
 0.62979996E+02 -0.22523E-04
 0.63029995E+02  0.43796E-05
 0.63079998E+02  0.63106E-05
 0.63129997E+02 -0.15343E-04
 0.63179996E+02 -0.93320E-04
 0.63229996E+02 -0.17499E-03
 0.63279995E+02 -0.16348E-03
 0.63329998E+02 -0.11748E-03
 0.63379997E+02 -0.10710E-03
 0.63429996E+02 -0.16852E-03
 0.63479996E+02 -0.38430E-03
 0.63529995E+02 -0.56117E-03
 0.63579998E+02 -0.41175E-03
 0.63629997E+02 -0.55549E-04
 0.63679996E+02  0.15135E-03
 0.63729996E+02  0.17193E-03
 0.63779995E+02  0.18061E-03
 0.63829998E+02  0.22604E-03
 0.63879997E+02  0.27455E-03
 0.63929996E+02  0.24726E-03
 0.63979996E+02  0.15500E-03
 0.64029999E+02  0.10817E-03
 0.64079994E+02  0.15854E-03
 0.64129997E+02  0.21633E-03
 0.64180000E+02  0.20175E-03
 0.64229996E+02  0.21098E-03
 0.64279999E+02  0.25067E-03
 0.64329994E+02  0.19895E-03
 0.64379997E+02  0.60654E-04
 0.64430000E+02 -0.66708E-04
 0.64479996E+02 -0.12049E-03
 0.64529999E+02 -0.82974E-04
 0.64579994E+02 -0.30171E-05
 0.64629997E+02  0.27527E-04
 0.64680000E+02  0.50714E-04
 0.64729996E+02  0.13464E-03
 0.64779999E+02  0.16114E-03
 0.64829994E+02  0.13537E-04
 0.64879997E+02 -0.20963E-03
 0.64930000E+02 -0.29515E-03
 0.64979996E+02 -0.16664E-03
 0.65029999E+02  0.29123E-04
 0.65079994E+02  0.10314E-03
 0.65129997E+02  0.43895E-04
 0.65180000E+02 -0.38338E-04
 0.65229996E+02 -0.13068E-03
 0.65279999E+02 -0.25342E-03
 0.65329994E+02 -0.32530E-03
 0.65379997E+02 -0.27967E-03
 0.65430000E+02 -0.14836E-03
 0.65479996E+02 -0.92317E-04
 0.65529999E+02 -0.22763E-03
 0.65579994E+02 -0.38170E-03
 0.65629997E+02 -0.35365E-03
 0.65680000E+02 -0.16922E-03
 0.65729996E+02  0.61523E-04
 0.65779999E+02  0.26219E-03
 0.65829994E+02  0.36873E-03
 0.65879997E+02  0.31798E-03
 0.65930000E+02  0.16685E-03
 0.65979996E+02  0.35712E-04
 0.66029999E+02 -0.44195E-04
 0.66079994E+02 -0.16095E-04
 0.66129997E+02  0.11649E-03
 0.66180000E+02  0.23383E-03
 0.66229996E+02  0.30238E-03
 0.66279999E+02  0.31425E-03
 0.66329994E+02  0.26388E-03
 0.66379997E+02  0.21086E-03
 0.66430000E+02  0.16745E-03
 0.66479996E+02  0.80037E-04
 0.66529999E+02 -0.43836E-04
 0.66579994E+02 -0.12404E-03
 0.66629997E+02 -0.17638E-03
 0.66680000E+02 -0.25632E-03
 0.66729996E+02 -0.32158E-03
 0.66779999E+02 -0.34989E-03
 0.66829994E+02 -0.31115E-03
 0.66879997E+02 -0.14388E-03
 0.66930000E+02  0.49052E-04
 0.66979996E+02  0.10157E-03
 0.67029999E+02  0.57502E-04
 0.67079994E+02  0.80726E-04
 0.67129997E+02  0.21838E-03
 0.67180000E+02  0.33216E-03
 0.67229996E+02  0.28583E-03
 0.67279999E+02  0.11602E-03
 0.67329994E+02 -0.79488E-04
 0.67379997E+02 -0.21182E-03
 0.67430000E+02 -0.21746E-03
 0.67479996E+02 -0.93873E-04
 0.67529999E+02  0.60802E-04
 0.67579994E+02  0.12227E-03
 0.67629997E+02  0.11961E-03
 0.67680000E+02  0.10384E-03
 0.67729996E+02  0.85467E-04
 0.67779999E+02  0.11585E-03
 0.67829994E+02  0.17524E-03
 0.67879997E+02  0.18048E-03
 0.67930000E+02  0.80398E-04
 0.67979996E+02 -0.51620E-04
 0.68029999E+02 -0.10317E-03
 0.68079994E+02 -0.71389E-04
 0.68129997E+02 -0.39646E-04
 0.68180000E+02 -0.94774E-04
 0.68229996E+02 -0.18050E-03
 0.68279999E+02 -0.24566E-03
 0.68329994E+02 -0.28369E-03
 0.68379997E+02 -0.24499E-03
 0.68430000E+02 -0.18657E-03
 0.68479996E+02 -0.13823E-03
 0.68529999E+02 -0.94653E-04
 0.68579994E+02 -0.82468E-04
 0.68629997E+02 -0.79154E-04
 0.68680000E+02 -0.10967E-03
 0.68729996E+02 -0.15630E-03
 0.68779999E+02 -0.13633E-03
 0.68829994E+02 -0.76481E-04
 0.68879997E+02 -0.60348E-04
 0.68930000E+02 -0.66582E-04
 0.68979996E+02  0.23885E-05
 0.69029999E+02  0.10338E-03
 0.69079994E+02  0.13950E-03
 0.69129997E+02  0.17887E-03
 0.69180000E+02  0.24971E-03
 0.69229996E+02  0.25881E-03
 0.69279999E+02  0.19831E-03
 0.69329994E+02  0.15760E-03
 0.69379997E+02  0.17933E-03
 0.69430000E+02  0.23103E-03
 0.69479996E+02  0.28875E-03
 0.69529999E+02  0.30669E-03
 0.69579994E+02  0.23864E-03
 0.69629997E+02  0.13463E-03
 0.69680000E+02  0.90838E-04
 0.69729996E+02  0.92489E-04
 0.69779999E+02  0.68080E-04
 0.69829994E+02 -0.28252E-05
 0.69879997E+02 -0.12839E-03
 0.69930000E+02 -0.26573E-03
 0.69979996E+02 -0.37347E-03
 0.70029999E+02 -0.42565E-03
 0.70079994E+02 -0.41821E-03
 0.70129997E+02 -0.38353E-03
 0.70180000E+02 -0.32545E-03
 0.70229996E+02 -0.23094E-03
 0.70279999E+02 -0.84805E-04
 0.70329994E+02  0.44464E-04
 0.70379997E+02  0.81788E-04
 0.70430000E+02  0.65551E-04
 0.70479996E+02  0.46428E-04
 0.70529999E+02  0.53483E-04
 0.70579994E+02  0.13706E-03
 0.70629997E+02  0.28217E-03
 0.70680000E+02  0.37113E-03
 0.70729996E+02  0.33835E-03
 0.70779999E+02  0.21793E-03
 0.70829994E+02  0.10311E-03
 0.70879997E+02  0.38910E-04
 0.70930000E+02 -0.24444E-04
 0.70979996E+02 -0.66731E-04
 0.71029999E+02 -0.54088E-04
 0.71079994E+02 -0.62352E-04
 0.71129997E+02 -0.13197E-03
 0.71180000E+02 -0.17468E-03
 0.71229996E+02 -0.12821E-03
 0.71279999E+02 -0.50612E-04
 0.71329994E+02 -0.14036E-04
 0.71379997E+02 -0.64332E-04
 0.71430000E+02 -0.16072E-03
 0.71479996E+02 -0.19968E-03
 0.71529999E+02 -0.15915E-03
 0.71579994E+02 -0.71411E-04
 0.71629997E+02  0.26045E-04
 0.71680000E+02  0.10180E-03
 0.71729996E+02  0.15315E-03
 0.71779999E+02  0.18855E-03
 0.71829994E+02  0.19575E-03
 0.71879997E+02  0.17741E-03
 0.71930000E+02  0.12948E-03
 0.71979996E+02  0.68193E-05
 0.72029999E+02 -0.15535E-03
 0.72079994E+02 -0.24729E-03
 0.72129997E+02 -0.24415E-03
 0.72180000E+02 -0.19648E-03
 0.72229996E+02 -0.11975E-03
 0.72279999E+02 -0.21768E-04
 0.72329994E+02  0.84876E-04
 0.72379997E+02  0.20193E-03
 0.72430000E+02  0.30100E-03
 0.72479996E+02  0.31901E-03
 0.72529999E+02  0.23180E-03
 0.72579994E+02  0.12930E-03
 0.72629997E+02  0.89721E-04
 0.72680000E+02  0.88636E-04
 0.72729996E+02  0.95629E-04
 0.72779999E+02  0.90904E-04
 0.72829994E+02  0.48539E-04
 0.72879997E+02 -0.31128E-04
 0.72930000E+02 -0.14334E-03
 0.72979996E+02 -0.26769E-03
 0.73029999E+02 -0.31458E-03
 0.73079994E+02 -0.26440E-03
 0.73129997E+02 -0.19772E-03
 0.73180000E+02 -0.13317E-03
 0.73229996E+02 -0.58682E-04
 0.73279999E+02  0.34348E-04
 0.73329994E+02  0.13845E-03
 0.73379997E+02  0.18834E-03
 0.73430000E+02  0.16017E-03
 0.73479996E+02  0.10910E-03
 0.73529999E+02  0.82449E-04
 0.73579994E+02  0.63242E-04
 0.73629997E+02  0.14199E-04
 0.73680000E+02 -0.60991E-04
 0.73729996E+02 -0.12080E-03
 0.73779999E+02 -0.12846E-03
 0.73829994E+02 -0.10741E-03
 0.73879997E+02 -0.89633E-04
 0.73930000E+02 -0.90566E-04
 0.73979996E+02 -0.89909E-04
 0.74029999E+02 -0.59094E-04
 0.74079994E+02 -0.62066E-04
 0.74129997E+02 -0.10576E-03
 0.74180000E+02 -0.10273E-03
 0.74229996E+02 -0.30012E-04
 0.74279999E+02  0.66590E-04
 0.74329994E+02  0.16355E-03
 0.74379997E+02  0.24407E-03
 0.74430000E+02  0.26138E-03
 0.74479996E+02  0.22330E-03
 0.74529999E+02  0.14069E-03
 0.74579994E+02  0.22881E-04
 0.74629997E+02 -0.53190E-04
 0.74680000E+02 -0.79045E-04
 0.74729996E+02 -0.11720E-03
 0.74779999E+02 -0.15018E-03
 0.74829994E+02 -0.13619E-03
 0.74879997E+02 -0.96404E-04
 0.74930000E+02 -0.74699E-04
 0.74979996E+02 -0.90342E-04
 0.75029999E+02 -0.11448E-03
 0.75079994E+02 -0.10554E-03
 0.75129997E+02 -0.49062E-04
 0.75180000E+02  0.25203E-04
 0.75229996E+02  0.74952E-04
 0.75279999E+02  0.99268E-04
 0.75329994E+02  0.10128E-03
 0.75379997E+02  0.86559E-04
 0.75430000E+02  0.88692E-04
 0.75479996E+02  0.12470E-03
 0.75529999E+02  0.18788E-03
 0.75579994E+02  0.24516E-03
 0.75629997E+02  0.22568E-03
 0.75680000E+02  0.11511E-03
 0.75729996E+02 -0.33526E-05
 0.75779999E+02 -0.77488E-04
 0.75829994E+02 -0.11676E-03
 0.75879997E+02 -0.12879E-03
 0.75930000E+02 -0.13643E-03
 0.75979996E+02 -0.16151E-03
 0.76029999E+02 -0.20031E-03
 0.76079994E+02 -0.23854E-03
 0.76129997E+02 -0.24065E-03
 0.76180000E+02 -0.17645E-03
 0.76229996E+02 -0.59754E-04
 0.76279999E+02  0.55283E-04
 0.76329994E+02  0.11990E-03
 0.76379997E+02  0.12772E-03
 0.76430000E+02  0.11804E-03
 0.76479996E+02  0.14320E-03
 0.76529999E+02  0.17797E-03
 0.76579994E+02  0.18176E-03
 0.76629997E+02  0.16461E-03
 0.76680000E+02  0.13385E-03
 0.76729996E+02  0.96051E-04
 0.76779999E+02  0.32791E-04
 0.76829994E+02 -0.60538E-04
 0.76879997E+02 -0.14681E-03
 0.76930000E+02 -0.19324E-03
 0.76979996E+02 -0.18282E-03
 0.77029999E+02 -0.16264E-03
 0.77079994E+02 -0.17877E-03
 0.77129997E+02 -0.16499E-03
 0.77180000E+02 -0.63928E-04
 0.77229996E+02  0.75393E-04
 0.77279999E+02  0.17882E-03
 0.77329994E+02  0.21074E-03
 0.77379997E+02  0.18179E-03
 0.77430000E+02  0.12497E-03
 0.77479996E+02  0.74791E-04
 0.77529999E+02  0.40058E-04
 0.77579994E+02 -0.42729E-05
 0.77629997E+02 -0.63383E-04
 0.77680000E+02 -0.11387E-03
 0.77729996E+02 -0.14517E-03
 0.77779999E+02 -0.14116E-03
 0.77829994E+02 -0.81287E-04
 0.77879997E+02  0.15878E-04
 0.77930000E+02  0.10206E-03
 0.77979996E+02  0.15091E-03
 0.78029999E+02  0.17249E-03
 0.78079994E+02  0.16968E-03
 0.78129997E+02  0.14277E-03
 0.78180000E+02  0.10475E-03
 0.78229996E+02  0.68780E-04
 0.78279999E+02  0.43525E-04
 0.78329994E+02  0.36862E-04
 0.78379997E+02  0.42311E-04
 0.78430000E+02  0.26952E-04
 0.78479996E+02 -0.13882E-04
 0.78529999E+02 -0.80805E-04
 0.78579994E+02 -0.17490E-03
 0.78629997E+02 -0.24813E-03
 0.78680000E+02 -0.28525E-03
 0.78729996E+02 -0.28343E-03
 0.78779999E+02 -0.20807E-03
 0.78829994E+02 -0.92752E-04
 0.78879997E+02 -0.16283E-04
 0.78930000E+02  0.18399E-04
 0.78979996E+02  0.64359E-04
 0.79029999E+02  0.11255E-03
 0.79079994E+02  0.11603E-03
 0.79129997E+02  0.82663E-04
 0.79180000E+02  0.53852E-04
 0.79229996E+02  0.44963E-04
 0.79279999E+02  0.37520E-04
 0.79329994E+02  0.31941E-04
 0.79379997E+02  0.33873E-04
 0.79430000E+02  0.28416E-04
 0.79479996E+02  0.27706E-04
 0.79529999E+02  0.40420E-04
 0.79579994E+02  0.46122E-04
 0.79629997E+02  0.39129E-04
 0.79680000E+02  0.21600E-04
 0.79729996E+02 -0.71954E-05
 0.79779999E+02 -0.34310E-04
 0.79829994E+02 -0.46510E-04
 0.79879997E+02 -0.52171E-04
 0.79930000E+02 -0.51969E-04
 0.79979996E+02 -0.29553E-04
 0.80029999E+02 -0.18952E-05
 0.80079994E+02  0.60351E-05
 0.80129997E+02  0.95205E-05
 0.80180000E+02  0.33700E-04
 0.80229996E+02  0.73832E-04
 0.80279999E+02  0.10373E-03
 0.80329994E+02  0.12518E-03
 0.80379997E+02  0.14960E-03
 0.80430000E+02  0.15218E-03
 0.80479996E+02  0.97100E-04
 0.80529999E+02 -0.87272E-05
 0.80579994E+02 -0.10466E-03
 0.80629997E+02 -0.16212E-03
 0.80680000E+02 -0.20284E-03
 0.80729996E+02 -0.22845E-03
 0.80779999E+02 -0.23921E-03
 0.80829994E+02 -0.24433E-03
 0.80879997E+02 -0.23123E-03
 0.80930000E+02 -0.18084E-03
 0.80979996E+02 -0.10061E-03
 0.81029999E+02 -0.23565E-04
 0.81079994E+02  0.41779E-04
 0.81129997E+02  0.89104E-04
 0.81180000E+02  0.12026E-03
 0.81229996E+02  0.16608E-03
 0.81279999E+02  0.20592E-03
 0.81329994E+02  0.21298E-03
 0.81379997E+02  0.17782E-03
 0.81430000E+02  0.97123E-04
 0.81479996E+02  0.13608E-04
 0.81529999E+02 -0.47487E-04
 0.81579994E+02 -0.85472E-04
 0.81629997E+02 -0.10246E-03
 0.81680000E+02 -0.10297E-03
 0.81729996E+02 -0.84756E-04
 0.81779999E+02 -0.57874E-04
 0.81829994E+02 -0.26070E-04
 0.81879997E+02  0.17898E-04
 0.81930000E+02  0.84367E-04
 0.81979996E+02  0.15185E-03
 0.82029999E+02  0.17424E-03
 0.82079994E+02  0.16523E-03
 0.82129997E+02  0.15835E-03
 0.82180000E+02  0.14487E-03
 0.82229996E+02  0.10458E-03
 0.82279999E+02  0.42577E-04
 0.82329994E+02 -0.12613E-04
 0.82379997E+02 -0.55658E-04
 0.82430000E+02 -0.10505E-03
 0.82479996E+02 -0.15862E-03
 0.82529999E+02 -0.19106E-03
 0.82579994E+02 -0.19375E-03
 0.82629997E+02 -0.17984E-03
 0.82680000E+02 -0.14840E-03
 0.82729996E+02 -0.10256E-03
 0.82779999E+02 -0.54316E-04
 0.82829994E+02 -0.92885E-05
 0.82879997E+02  0.21730E-04
 0.82930000E+02  0.49132E-04
 0.82979996E+02  0.82229E-04
 0.83029999E+02  0.10709E-03
 0.83079994E+02  0.13046E-03
 0.83129997E+02  0.16263E-03
 0.83180000E+02  0.18277E-03
 0.83229996E+02  0.17138E-03
 0.83279999E+02  0.13390E-03
 0.83329994E+02  0.65584E-04
 0.83379997E+02 -0.32987E-04
 0.83430000E+02 -0.11754E-03
 0.83479996E+02 -0.16232E-03
 0.83529999E+02 -0.17903E-03
 0.83579994E+02 -0.15640E-03
 0.83629997E+02 -0.98789E-04
 0.83680000E+02 -0.53001E-04
 0.83729996E+02 -0.18240E-04
 0.83779999E+02  0.24232E-04
 0.83829994E+02  0.52189E-04
 0.83879997E+02  0.59142E-04
 0.83930000E+02  0.62748E-04
 0.83979996E+02  0.81864E-04
 0.84029999E+02  0.10786E-03
 0.84079994E+02  0.11834E-03
 0.84129997E+02  0.10289E-03
 0.84180000E+02  0.64517E-04
 0.84229996E+02  0.24096E-04
 0.84279999E+02 -0.19465E-04
 0.84329994E+02 -0.77433E-04
 0.84379997E+02 -0.13599E-03
 0.84430000E+02 -0.16884E-03
 0.84479996E+02 -0.17150E-03
 0.84529999E+02 -0.16404E-03
 0.84579994E+02 -0.16021E-03
 0.84629997E+02 -0.15394E-03
 0.84680000E+02 -0.11518E-03
 0.84729996E+02 -0.36935E-04
 0.84779999E+02  0.49181E-04
 0.84829994E+02  0.11991E-03
 0.84879997E+02  0.17223E-03
 0.84930000E+02  0.20955E-03
 0.84979996E+02  0.22361E-03
 0.85029999E+02  0.21658E-03
 0.85079994E+02  0.18764E-03
 0.85129997E+02  0.12807E-03
 0.85180000E+02  0.54509E-04
 0.85229996E+02 -0.18504E-04
 0.85279999E+02 -0.77720E-04
 0.85329994E+02 -0.12839E-03
 0.85379997E+02 -0.17342E-03
 0.85430000E+02 -0.19195E-03
 0.85479996E+02 -0.19003E-03
 0.85529999E+02 -0.17517E-03
 0.85579994E+02 -0.13306E-03
 0.85629997E+02 -0.58620E-04
 0.85680000E+02  0.21093E-04
 0.85729996E+02  0.82112E-04
 0.85779999E+02  0.12309E-03
 0.85829994E+02  0.14841E-03
 0.85879997E+02  0.15837E-03
 0.85930000E+02  0.14748E-03
 0.85979996E+02  0.13086E-03
 0.86029999E+02  0.12187E-03
 0.86079994E+02  0.12179E-03
 0.86129997E+02  0.12975E-03
 0.86180000E+02  0.11479E-03
 0.86229996E+02  0.54232E-04
 0.86279999E+02 -0.15433E-04
 0.86329994E+02 -0.52502E-04
 0.86379997E+02 -0.63233E-04
 0.86430000E+02 -0.65347E-04
 0.86479996E+02 -0.73747E-04
 0.86529999E+02 -0.11215E-03
 0.86579994E+02 -0.16774E-03
 0.86629997E+02 -0.18807E-03
 0.86680000E+02 -0.15922E-03
 0.86729996E+02 -0.11057E-03
 0.86779999E+02 -0.66456E-04
 0.86829994E+02 -0.46474E-04
 0.86879997E+02 -0.35686E-04
 0.86930000E+02 -0.79338E-05
 0.86979996E+02  0.19306E-04
 0.87029999E+02  0.31249E-04
 0.87079994E+02  0.33796E-04
 0.87129997E+02  0.37243E-04
 0.87180000E+02  0.34818E-04
 0.87229996E+02  0.30313E-05
 0.87279999E+02 -0.41997E-04
 0.87329994E+02 -0.57033E-04
 0.87379997E+02 -0.42210E-04
 0.87430000E+02 -0.34695E-04
 0.87479996E+02 -0.45396E-04
 0.87529999E+02 -0.51285E-04
 0.87579994E+02 -0.19430E-04
 0.87629997E+02  0.57332E-04
 0.87680000E+02  0.12965E-03
 0.87729996E+02  0.15334E-03
 0.87779999E+02  0.13180E-03
 0.87829994E+02  0.80273E-04
 0.87879997E+02  0.23788E-04
 0.87930000E+02 -0.16804E-05
 0.87979996E+02  0.11344E-04
 0.88029999E+02  0.32816E-04
 0.88079994E+02  0.51166E-04
 0.88129997E+02  0.64690E-04
 0.88180000E+02  0.57436E-04
 0.88229996E+02  0.40405E-04
 0.88279999E+02  0.19786E-04
 0.88329994E+02 -0.18745E-04
 0.88379997E+02 -0.67699E-04
 0.88430000E+02 -0.10655E-03
 0.88479996E+02 -0.13643E-03
 0.88529999E+02 -0.16176E-03
 0.88579994E+02 -0.15942E-03
 0.88629997E+02 -0.12045E-03
 0.88680000E+02 -0.61720E-04
 0.88729996E+02  0.10097E-04
 0.88779999E+02  0.86673E-04
 0.88829994E+02  0.15610E-03
 0.88879997E+02  0.20933E-03
 0.88930000E+02  0.22140E-03
 0.88979996E+02  0.18619E-03
 0.89029999E+02  0.13536E-03
 0.89079994E+02  0.98019E-04
 0.89129997E+02  0.78484E-04
 0.89180000E+02  0.65923E-04
 0.89229996E+02  0.46958E-04
 0.89279999E+02  0.15615E-04
 0.89329994E+02 -0.19518E-04
 0.89379997E+02 -0.56087E-04
 0.89430000E+02 -0.89930E-04
 0.89479996E+02 -0.10538E-03
 0.89529999E+02 -0.98419E-04
 0.89579994E+02 -0.77766E-04
 0.89629997E+02 -0.63332E-04
 0.89680000E+02 -0.73973E-04
 0.89729996E+02 -0.11104E-03
 0.89779999E+02 -0.15219E-03
 0.89829994E+02 -0.16545E-03
 0.89879997E+02 -0.14244E-03
 0.89930000E+02 -0.99444E-04
 0.89979996E+02 -0.56410E-04
 0.90029999E+02 -0.13181E-04
 0.90079994E+02  0.29039E-04
 0.90129997E+02  0.53002E-04
 0.90180000E+02  0.57729E-04
 0.90229996E+02  0.49171E-04
 0.90279999E+02  0.30009E-04
 0.90329994E+02 -0.34955E-05
 0.90379997E+02 -0.36935E-04
 0.90430000E+02 -0.34896E-04
 0.90479996E+02  0.31189E-06
 0.90529999E+02  0.24162E-04
 0.90579994E+02 -0.11418E-05
 0.90629997E+02 -0.49688E-04
 0.90680000E+02 -0.75808E-04
 0.90729996E+02 -0.73313E-04
 0.90779999E+02 -0.48982E-04
 0.90829994E+02 -0.11803E-04
 0.90879997E+02  0.30783E-04
 0.90930000E+02  0.73051E-04
 0.90979996E+02  0.11418E-03
 0.91029999E+02  0.14814E-03
 0.91079994E+02  0.16212E-03
 0.91129997E+02  0.15672E-03
 0.91180000E+02  0.14001E-03
 0.91229996E+02  0.11353E-03
 0.91279999E+02  0.67914E-04
 0.91329994E+02  0.63408E-05
 0.91379997E+02 -0.57049E-04
 0.91430000E+02 -0.10235E-03
 0.91479996E+02 -0.11129E-03
 0.91529999E+02 -0.10301E-03
 0.91579994E+02 -0.88471E-04
 0.91629997E+02 -0.60557E-04
 0.91680000E+02 -0.39112E-04
 0.91729996E+02 -0.25996E-04
 0.91779999E+02 -0.68325E-06
 0.91829994E+02  0.29814E-04
 0.91879997E+02  0.48297E-04
 0.91930000E+02  0.59912E-04
 0.91979996E+02  0.75841E-04
 0.92029999E+02  0.91204E-04
 0.92079994E+02  0.92623E-04
 0.92129997E+02  0.70814E-04
 0.92180000E+02  0.36150E-04
 0.92229996E+02  0.16364E-04
 0.92279999E+02  0.14874E-04
 0.92329994E+02  0.59607E-05
 0.92379997E+02 -0.17142E-04
 0.92430000E+02 -0.36065E-04
 0.92479996E+02 -0.38207E-04
 0.92529999E+02 -0.29171E-04
 0.92579994E+02 -0.21560E-04
 0.92629997E+02 -0.17268E-04
 0.92680000E+02 -0.19142E-04
 0.92729996E+02 -0.37122E-04
 0.92779999E+02 -0.65604E-04
 0.92829994E+02 -0.89943E-04
 0.92879997E+02 -0.98735E-04
 0.92930000E+02 -0.87044E-04
 0.92979996E+02 -0.73053E-04
 0.93029999E+02 -0.78392E-04
 0.93079994E+02 -0.91938E-04
 0.93129997E+02 -0.79590E-04
 0.93180000E+02 -0.28657E-04
 0.93229996E+02  0.36478E-04
 0.93279999E+02  0.86346E-04
 0.93329994E+02  0.10374E-03
 0.93379997E+02  0.83441E-04
 0.93430000E+02  0.41586E-04
 0.93479996E+02  0.80383E-05
 0.93529999E+02 -0.31689E-05
 0.93579994E+02 -0.66555E-05
 0.93629997E+02 -0.91376E-05
 0.93680000E+02  0.50328E-05
 0.93729996E+02  0.31575E-04
 0.93779999E+02  0.51298E-04
 0.93829994E+02  0.58624E-04
 0.93879997E+02  0.57867E-04
 0.93930000E+02  0.55324E-04
 0.93979996E+02  0.48234E-04
 0.94029999E+02  0.32468E-04
 0.94079994E+02  0.11642E-04
 0.94129997E+02 -0.92803E-05
 0.94180000E+02 -0.26691E-04
 0.94229996E+02 -0.45285E-04
 0.94279999E+02 -0.68201E-04
 0.94329994E+02 -0.88390E-04
 0.94379997E+02 -0.98064E-04
 0.94430000E+02 -0.87439E-04
 0.94479996E+02 -0.55142E-04
 0.94529999E+02 -0.11078E-04
 0.94579994E+02  0.35336E-04
 0.94629997E+02  0.72145E-04
 0.94680000E+02  0.84214E-04
 0.94729996E+02  0.67849E-04
 0.94779999E+02  0.40474E-04
 0.94829994E+02  0.15847E-04
 0.94879997E+02  0.19608E-05
 0.94930000E+02  0.10823E-04
 0.94979996E+02  0.29258E-04
 0.95029999E+02  0.29627E-04
 0.95079994E+02  0.43953E-05
 0.95129997E+02 -0.31704E-04
 0.95180000E+02 -0.59508E-04
 0.95229996E+02 -0.74869E-04
 0.95279999E+02 -0.78291E-04
 0.95329994E+02 -0.73900E-04
 0.95379997E+02 -0.71053E-04
 0.95430000E+02 -0.69769E-04
 0.95479996E+02 -0.60886E-04
 0.95529999E+02 -0.30064E-04
 0.95579994E+02  0.19440E-04
 0.95629997E+02  0.70755E-04
 0.95680000E+02  0.11230E-03
 0.95729996E+02  0.13208E-03
 0.95779999E+02  0.13169E-03
 0.95829994E+02  0.12050E-03
 0.95879997E+02  0.10163E-03
 0.95930000E+02  0.77791E-04
 0.95979996E+02  0.56767E-04
 0.96029999E+02  0.50711E-04
 0.96079994E+02  0.52413E-04
 0.96129997E+02  0.46333E-04
 0.96180000E+02  0.31388E-04
 0.96229996E+02  0.65466E-05
 0.96279999E+02 -0.26734E-04
 0.96329994E+02 -0.60924E-04
 0.96379997E+02 -0.88193E-04
 0.96430000E+02 -0.10441E-03
 0.96479996E+02 -0.10666E-03
 0.96529999E+02 -0.92854E-04
 0.96579994E+02 -0.69497E-04
 0.96629997E+02 -0.43980E-04
 0.96680000E+02 -0.25317E-04
 0.96729996E+02 -0.15266E-04
 0.96779999E+02  0.16902E-06
 0.96829994E+02  0.19051E-04
 0.96879997E+02  0.27348E-04
 0.96930000E+02  0.29068E-04
 0.96979996E+02  0.35432E-04
 0.97029999E+02  0.52759E-04
 0.97079994E+02  0.70401E-04
 0.97129997E+02  0.65307E-04
 0.97180000E+02  0.36532E-04
 0.97229996E+02  0.67016E-05
 0.97279999E+02 -0.73385E-05
 0.97329994E+02 -0.12497E-04
 0.97379997E+02 -0.21262E-04
 0.97430000E+02 -0.31130E-04
 0.97479996E+02 -0.36039E-04
 0.97529999E+02 -0.35072E-04
 0.97579994E+02 -0.31979E-04
 0.97629997E+02 -0.33801E-04
 0.97680000E+02 -0.39737E-04
 0.97729996E+02 -0.39543E-04
 0.97779999E+02 -0.28259E-04
 0.97829994E+02 -0.72260E-05
 0.97879997E+02  0.22613E-04
 0.97930000E+02  0.57833E-04
 0.97979996E+02  0.90233E-04
 0.98029999E+02  0.10120E-03
 0.98079994E+02  0.78387E-04
 0.98129997E+02  0.38979E-04
 0.98180000E+02  0.27017E-05
 0.98229996E+02 -0.34056E-04
 0.98279999E+02 -0.78027E-04
 0.98329994E+02 -0.12044E-03
 0.98379997E+02 -0.14563E-03
 0.98430000E+02 -0.14419E-03
 0.98479996E+02 -0.12206E-03
 0.98529999E+02 -0.95822E-04
 0.98579994E+02 -0.70660E-04
 0.98629997E+02 -0.37288E-04
 0.98680000E+02  0.14979E-05
 0.98729996E+02  0.28369E-04
 0.98779999E+02  0.44948E-04
 0.98829994E+02  0.65597E-04
 0.98879997E+02  0.89738E-04
 0.98930000E+02  0.10692E-03
 0.98979996E+02  0.10668E-03
 0.99029999E+02  0.87753E-04
 0.99079994E+02  0.63402E-04
 0.99129997E+02  0.48826E-04
 0.99180000E+02  0.41660E-04
 0.99229996E+02  0.30065E-04
 0.99279999E+02  0.11252E-04
 0.99329994E+02 -0.16684E-04
 0.99379997E+02 -0.47721E-04
 0.99430000E+02 -0.63576E-04
 0.99479996E+02 -0.55964E-04
 0.99529999E+02 -0.31004E-04
 0.99579994E+02 -0.35311E-05
 0.99629997E+02  0.84140E-05
 0.99680000E+02 -0.22223E-05
 0.99729996E+02 -0.23519E-04
 0.99779999E+02 -0.34730E-04
 0.99829994E+02 -0.24394E-04
 0.99879997E+02  0.20749E-05
 0.99930000E+02  0.28870E-04
 0.99979996E+02  0.40324E-04
 0.10003000E+03  0.35717E-04
 0.10007999E+03  0.22494E-04
 0.10013000E+03  0.47923E-06
 0.10018000E+03 -0.23588E-04
 0.10023000E+03 -0.37990E-04
 0.10028000E+03 -0.40587E-04
 0.10032999E+03 -0.36550E-04
 0.10038000E+03 -0.34046E-04
 0.10043000E+03 -0.32756E-04
 0.10048000E+03 -0.20169E-04
 0.10053000E+03  0.61109E-05
 0.10057999E+03  0.31691E-04
 0.10063000E+03  0.48715E-04
 0.10068000E+03  0.56008E-04
 0.10073000E+03  0.54888E-04
 0.10078000E+03  0.60263E-04
 0.10082999E+03  0.78605E-04
 0.10088000E+03  0.93911E-04
 0.10093000E+03  0.95225E-04
 0.10098000E+03  0.79013E-04
 0.10103000E+03  0.48650E-04
 0.10107999E+03  0.17819E-04
 0.10113000E+03 -0.63217E-05
 0.10118000E+03 -0.21406E-04
 0.10123000E+03 -0.30118E-04
 0.10128000E+03 -0.38035E-04
 0.10132999E+03 -0.48469E-04
 0.10138000E+03 -0.64959E-04
 0.10143000E+03 -0.85498E-04
 0.10148000E+03 -0.98704E-04
 0.10153000E+03 -0.89123E-04
 0.10157999E+03 -0.61012E-04
 0.10163000E+03 -0.33442E-04
 0.10168000E+03 -0.12881E-04
 0.10173000E+03 -0.63096E-06
 0.10178000E+03 -0.54607E-06
 0.10182999E+03 -0.53542E-05
 0.10188000E+03  0.17488E-05
 0.10193000E+03  0.21915E-04
 0.10198000E+03  0.39893E-04
 0.10203000E+03  0.43828E-04
 0.10207999E+03  0.35858E-04
 0.10213000E+03  0.29108E-04
 0.10218000E+03  0.29285E-04
 0.10223000E+03  0.31288E-04
 0.10228000E+03  0.33894E-04
 0.10232999E+03  0.40257E-04
 0.10238000E+03  0.45555E-04
 0.10243000E+03  0.44730E-04
 0.10248000E+03  0.38406E-04
 0.10253000E+03  0.21368E-04
 0.10257999E+03 -0.89091E-05
 0.10263000E+03 -0.44548E-04
 0.10268000E+03 -0.76282E-04
 0.10273000E+03 -0.96164E-04
 0.10278000E+03 -0.10367E-03
 0.10282999E+03 -0.10769E-03
 0.10288000E+03 -0.11675E-03
 0.10293000E+03 -0.12696E-03
 0.10298000E+03 -0.12029E-03
 0.10303000E+03 -0.88477E-04
 0.10307999E+03 -0.43334E-04
 0.10313000E+03 -0.29530E-05
 0.10318000E+03  0.23937E-04
 0.10323000E+03  0.44681E-04
 0.10328000E+03  0.62725E-04
 0.10332999E+03  0.70573E-04
 0.10338000E+03  0.68994E-04
 0.10343000E+03  0.61898E-04
 0.10348000E+03  0.46799E-04
 0.10353000E+03  0.25529E-04
 0.10357999E+03  0.51791E-05
 0.10363000E+03 -0.48585E-05
 0.10368000E+03  0.63246E-06
 0.10373000E+03  0.15904E-04
 0.10378000E+03  0.27740E-04
 0.10382999E+03  0.28100E-04
 0.10388000E+03  0.26095E-04
 0.10393000E+03  0.34045E-04
 0.10398000E+03  0.54557E-04
 0.10403000E+03  0.73876E-04
 0.10407999E+03  0.75568E-04
 0.10413000E+03  0.58538E-04
 0.10418000E+03  0.24910E-04
 0.10423000E+03 -0.99253E-05
 0.10428000E+03 -0.27446E-04
 0.10432999E+03 -0.32164E-04
 0.10438000E+03 -0.34810E-04
 0.10443000E+03 -0.38742E-04
 0.10448000E+03 -0.39334E-04
 0.10453000E+03 -0.27426E-04
 0.10457999E+03 -0.37580E-05
 0.10463000E+03  0.20686E-04
 0.10468000E+03  0.42995E-04
 0.10473000E+03  0.61822E-04
 0.10478000E+03  0.67117E-04
 0.10482999E+03  0.54363E-04
 0.10488000E+03  0.34255E-04
 0.10493000E+03  0.23331E-04
 0.10498000E+03  0.24600E-04
 0.10503000E+03  0.32869E-04
 0.10507999E+03  0.40111E-04
 0.10513000E+03  0.30773E-04
 0.10518000E+03  0.31412E-05
 0.10523000E+03 -0.25544E-04
 0.10528000E+03 -0.47180E-04
 0.10532999E+03 -0.64328E-04
 0.10538000E+03 -0.76564E-04
 0.10543000E+03 -0.84508E-04
 0.10548000E+03 -0.86217E-04
 0.10553000E+03 -0.78700E-04
 0.10557999E+03 -0.69399E-04
 0.10563000E+03 -0.70518E-04
 0.10568000E+03 -0.82682E-04
 0.10573000E+03 -0.96953E-04
 0.10578000E+03 -0.10602E-03
 0.10582999E+03 -0.98842E-04
 0.10588000E+03 -0.62982E-04
 0.10593000E+03 -0.86829E-05
 0.10598000E+03  0.40727E-04
 0.10603000E+03  0.82004E-04
 0.10607999E+03  0.11660E-03
 0.10613000E+03  0.13837E-03
 0.10618000E+03  0.14572E-03
 0.10623000E+03  0.13865E-03
 0.10628000E+03  0.11888E-03
 0.10632999E+03  0.93753E-04
 0.10638000E+03  0.72454E-04
 0.10643000E+03  0.55835E-04
 0.10648000E+03  0.38300E-04
 0.10653000E+03  0.14765E-04
 0.10657999E+03 -0.17729E-04
 0.10663000E+03 -0.57009E-04
 0.10668000E+03 -0.92957E-04
 0.10673000E+03 -0.11426E-03
 0.10678000E+03 -0.12002E-03
 0.10682999E+03 -0.10910E-03
 0.10688000E+03 -0.80443E-04
 0.10693000E+03 -0.43841E-04
 0.10698000E+03 -0.13943E-04
 0.10703000E+03  0.36251E-05
 0.10707999E+03  0.19978E-04
 0.10713000E+03  0.38242E-04
 0.10718000E+03  0.47049E-04
 0.10723000E+03  0.42979E-04
 0.10728000E+03  0.34275E-04
 0.10732999E+03  0.26726E-04
 0.10738000E+03  0.20316E-04
 0.10743000E+03  0.11964E-04
 0.10748000E+03 -0.67989E-05
 0.10753000E+03 -0.34385E-04
 0.10757999E+03 -0.59138E-04
 0.10763000E+03 -0.69046E-04
 0.10768000E+03 -0.61601E-04
 0.10773000E+03 -0.46992E-04
 0.10778000E+03 -0.30214E-04
 0.10782999E+03 -0.14952E-04
 0.10788000E+03 -0.16125E-06
 0.10793000E+03  0.21656E-04
 0.10798000E+03  0.44888E-04
 0.10803000E+03  0.58542E-04
 0.10807999E+03  0.63095E-04
 0.10813000E+03  0.67117E-04
 0.10818000E+03  0.75825E-04
 0.10823000E+03  0.86390E-04
 0.10828000E+03  0.90170E-04
 0.10832999E+03  0.78746E-04
 0.10838000E+03  0.53160E-04
 0.10843000E+03  0.21633E-04
 0.10848000E+03 -0.85588E-05
 0.10853000E+03 -0.32221E-04
 0.10857999E+03 -0.54177E-04
 0.10863000E+03 -0.79345E-04
 0.10868000E+03 -0.98558E-04
 0.10873000E+03 -0.10739E-03
 0.10878000E+03 -0.10630E-03
 0.10882999E+03 -0.95547E-04
 0.10888000E+03 -0.81107E-04
 0.10893000E+03 -0.63814E-04
 0.10898000E+03 -0.42820E-04
 0.10903000E+03 -0.17074E-04
 0.10907999E+03  0.13330E-04
 0.10913000E+03  0.43107E-04
 0.10918000E+03  0.65415E-04
 0.10923000E+03  0.71885E-04
 0.10928000E+03  0.64273E-04
 0.10932999E+03  0.52256E-04
 0.10938000E+03  0.45046E-04
 0.10943000E+03  0.43519E-04
 0.10948000E+03  0.39189E-04
 0.10953000E+03  0.29695E-04
 0.10957999E+03  0.19982E-04
 0.10963000E+03  0.12793E-04
 0.10968000E+03  0.33036E-05
 0.10973000E+03 -0.11586E-04
 0.10978000E+03 -0.25494E-04
 0.10982999E+03 -0.27357E-04
 0.10988000E+03 -0.12528E-04
 0.10993000E+03  0.98690E-05
 0.10998000E+03  0.25263E-04
 0.11003000E+03  0.28092E-04
 0.11007999E+03  0.22473E-04
 0.11013000E+03  0.15376E-04
 0.11018000E+03  0.13928E-04
 0.11023000E+03  0.17558E-04
 0.11028000E+03  0.21242E-04
 0.11032999E+03  0.19493E-04
 0.11038000E+03  0.91661E-05
 0.11043000E+03 -0.34029E-05
 0.11048000E+03 -0.13097E-04
 0.11053000E+03 -0.20865E-04
 0.11057999E+03 -0.24292E-04
 0.11063000E+03 -0.16314E-04
 0.11068000E+03  0.12657E-05
 0.11073000E+03  0.15174E-04
 0.11078000E+03  0.18256E-04
 0.11082999E+03  0.12265E-04
 0.11088000E+03 -0.16584E-05
 0.11093000E+03 -0.17450E-04
 0.11098000E+03 -0.27221E-04
 0.11103000E+03 -0.33591E-04
 0.11107999E+03 -0.35158E-04
 0.11113000E+03 -0.28928E-04
 0.11118000E+03 -0.20981E-04
 0.11123000E+03 -0.15433E-04
 0.11128000E+03 -0.13654E-04
 0.11132999E+03 -0.92064E-05
 0.11138000E+03  0.64815E-05
 0.11143000E+03  0.27587E-04
 0.11148000E+03  0.39867E-04
 0.11153000E+03  0.37966E-04
 0.11157999E+03  0.28309E-04
 0.11163000E+03  0.19659E-04
 0.11168000E+03  0.18893E-04
 0.11173000E+03  0.23297E-04
 0.11178000E+03  0.23464E-04
 0.11182999E+03  0.16350E-04
 0.11188000E+03  0.43385E-05
 0.11193000E+03 -0.75149E-05
 0.11198000E+03 -0.18127E-04
 0.11203000E+03 -0.33444E-04
 0.11207999E+03 -0.54210E-04
 0.11213000E+03 -0.75332E-04
 0.11218000E+03 -0.91557E-04
 0.11223000E+03 -0.94863E-04
 0.11228000E+03 -0.81119E-04
 0.11232999E+03 -0.56577E-04
 0.11238000E+03 -0.29286E-04
 0.11243000E+03 -0.53543E-05
 0.11248000E+03  0.10882E-04
 0.11253000E+03  0.19187E-04
 0.11257999E+03  0.21431E-04
 0.11263000E+03  0.25280E-04
 0.11268000E+03  0.35296E-04
 0.11273000E+03  0.43462E-04
 0.11278000E+03  0.41304E-04
 0.11282999E+03  0.28858E-04
 0.11288000E+03  0.15361E-04
 0.11293000E+03  0.69229E-05
 0.11298000E+03 -0.58324E-06
 0.11303000E+03 -0.93936E-05
 0.11307999E+03 -0.11666E-04
 0.11313000E+03 -0.34998E-05
 0.11318000E+03  0.72085E-05
 0.11323000E+03  0.17248E-04
 0.11328000E+03  0.29207E-04
 0.11332999E+03  0.46029E-04
 0.11338000E+03  0.67444E-04
 0.11343000E+03  0.86836E-04
 0.11348000E+03  0.93907E-04
 0.11353000E+03  0.79004E-04
 0.11357999E+03  0.43080E-04
 0.11363000E+03 -0.26048E-05
 0.11368000E+03 -0.44034E-04
 0.11373000E+03 -0.74846E-04
 0.11378000E+03 -0.94947E-04
 0.11382999E+03 -0.10221E-03
 0.11388000E+03 -0.97309E-04
 0.11393000E+03 -0.83091E-04
 0.11398000E+03 -0.61435E-04
 0.11403000E+03 -0.34654E-04
 0.11407999E+03 -0.67378E-05
 0.11413000E+03  0.16115E-04
 0.11418000E+03  0.30607E-04
 0.11423000E+03  0.41045E-04
 0.11428000E+03  0.51972E-04
 0.11432999E+03  0.62587E-04
 0.11438000E+03  0.68551E-04
 0.11443000E+03  0.66918E-04
 0.11448000E+03  0.61555E-04
 0.11453000E+03  0.55591E-04
 0.11457999E+03  0.50054E-04
 0.11463000E+03  0.45913E-04
 0.11468000E+03  0.39826E-04
 0.11473000E+03  0.30055E-04
 0.11478000E+03  0.17709E-04
 0.11482999E+03  0.36297E-05
 0.11488000E+03 -0.13159E-04
 0.11493000E+03 -0.36505E-04
 0.11498000E+03 -0.65718E-04
 0.11503000E+03 -0.91837E-04
 0.11507999E+03 -0.10547E-03
 0.11513000E+03 -0.10567E-03
 0.11518000E+03 -0.95065E-04
 0.11523000E+03 -0.77182E-04
 0.11528000E+03 -0.60676E-04
 0.11532999E+03 -0.49912E-04
 0.11538000E+03 -0.39398E-04
 0.11543000E+03 -0.22498E-04
 0.11548000E+03  0.21585E-06
 0.11553000E+03  0.20678E-04
 0.11557999E+03  0.27923E-04
 0.11563000E+03  0.23125E-04
 0.11568000E+03  0.20844E-04
 0.11573000E+03  0.22220E-04
 0.11578000E+03  0.21475E-04
 0.11582999E+03  0.20427E-04
 0.11588000E+03  0.17576E-04
 0.11593000E+03  0.14107E-04
 0.11598000E+03  0.16547E-04
 0.11603000E+03  0.27881E-04
 0.11607999E+03  0.43728E-04
 0.11613000E+03  0.55310E-04
 0.11618000E+03  0.57931E-04
 0.11623000E+03  0.50465E-04
 0.11628000E+03  0.33917E-04
 0.11632999E+03  0.12956E-04
 0.11638000E+03 -0.70341E-05
 0.11643000E+03 -0.17335E-04
 0.11648000E+03 -0.10067E-04
 0.11653000E+03  0.75538E-05
 0.11657999E+03  0.20938E-04
 0.11663000E+03  0.23473E-04
 0.11668000E+03  0.15994E-04
 0.11673000E+03  0.43530E-08
 0.11678000E+03 -0.21936E-04
 0.11682999E+03 -0.43088E-04
 0.11688000E+03 -0.57459E-04
 0.11693000E+03 -0.58914E-04
 0.11698000E+03 -0.46461E-04
 0.11703000E+03 -0.30461E-04
 0.11707999E+03 -0.17820E-04
 0.11713000E+03 -0.59155E-05
 0.11718000E+03  0.11167E-04
 0.11723000E+03  0.33913E-04
 0.11728000E+03  0.51607E-04
 0.11732999E+03  0.56949E-04
 0.11738000E+03  0.53060E-04
 0.11743000E+03  0.44199E-04
 0.11748000E+03  0.33632E-04
 0.11753000E+03  0.23583E-04
 0.11757999E+03  0.12383E-04
 0.11763000E+03 -0.43817E-05
 0.11768000E+03 -0.25849E-04
 0.11773000E+03 -0.45644E-04
 0.11778000E+03 -0.58175E-04
 0.11782999E+03 -0.60959E-04
 0.11788000E+03 -0.56991E-04
 0.11793000E+03 -0.49325E-04
 0.11798000E+03 -0.37618E-04
 0.11803000E+03 -0.21762E-04
 0.11807999E+03 -0.48572E-05
 0.11813000E+03  0.69241E-05
 0.11818000E+03  0.15658E-04
 0.11823000E+03  0.27327E-04
 0.11828000E+03  0.37893E-04
 0.11832999E+03  0.41016E-04
 0.11838000E+03  0.37459E-04
 0.11843000E+03  0.33020E-04
 0.11848000E+03  0.31025E-04
 0.11853000E+03  0.28748E-04
 0.11857999E+03  0.22780E-04
 0.11863000E+03  0.12729E-04
 0.11868000E+03 -0.57594E-06
 0.11873000E+03 -0.10824E-04
 0.11878000E+03 -0.11767E-04
 0.11882999E+03 -0.61524E-05
 0.11888000E+03  0.31786E-05
 0.11893000E+03  0.12406E-04
 0.11898000E+03  0.12372E-04
 0.11903000E+03 -0.21780E-05
 0.11907999E+03 -0.22249E-04
 0.11913000E+03 -0.33211E-04
 0.11918000E+03 -0.31830E-04
 0.11923000E+03 -0.21957E-04
 0.11928000E+03 -0.92968E-05
 0.11932999E+03 -0.10224E-05
 0.11938000E+03  0.10355E-05
 0.11943000E+03 -0.20599E-05
 0.11948000E+03 -0.11477E-04
 0.11953000E+03 -0.24651E-04
 0.11957999E+03 -0.35698E-04
 0.11963000E+03 -0.40828E-04
 0.11968000E+03 -0.38685E-04
 0.11973000E+03 -0.30472E-04
 0.11978000E+03 -0.21636E-04
 0.11982999E+03 -0.18728E-04
 0.11988000E+03 -0.16725E-04
 0.11993000E+03 -0.96749E-05
 0.11998000E+03 -0.16861E-05
 0.12003000E+03  0.76474E-05
 0.12007999E+03  0.22118E-04
 0.12013000E+03  0.39684E-04
 0.12018000E+03  0.52412E-04
 0.12023000E+03  0.55254E-04
 0.12028000E+03  0.51548E-04
 0.12032999E+03  0.46215E-04
 0.12038000E+03  0.42375E-04
 0.12043000E+03  0.38947E-04
 0.12048000E+03  0.32986E-04
 0.12053000E+03  0.26316E-04
 0.12057999E+03  0.23786E-04
 0.12063000E+03  0.27464E-04
 0.12068000E+03  0.32037E-04
 0.12073000E+03  0.31225E-04
 0.12078000E+03  0.26296E-04
 0.12082999E+03  0.20110E-04
 0.12088000E+03  0.14734E-04
 0.12093000E+03  0.10960E-04
 0.12098000E+03  0.43270E-05
 0.12103000E+03 -0.70511E-05
 0.12107999E+03 -0.20064E-04
 0.12113000E+03 -0.32085E-04
 0.12118000E+03 -0.43184E-04
 0.12123000E+03 -0.52651E-04
 0.12128000E+03 -0.56769E-04
 0.12132999E+03 -0.56165E-04
 0.12138000E+03 -0.52149E-04
 0.12143000E+03 -0.44547E-04
 0.12148000E+03 -0.34287E-04
 0.12153000E+03 -0.20676E-04
 0.12157999E+03 -0.64095E-05
 0.12163000E+03  0.29859E-05
 0.12168000E+03  0.43418E-05
 0.12173000E+03 -0.22792E-05
 0.12178000E+03 -0.12817E-04
 0.12182999E+03 -0.21771E-04
 0.12188000E+03 -0.26085E-04
 0.12193000E+03 -0.25260E-04
 0.12198000E+03 -0.20166E-04
 0.12203000E+03 -0.14449E-04
 0.12207999E+03 -0.11655E-04
 0.12213000E+03 -0.93523E-05
 0.12218000E+03 -0.11927E-05
 0.12223000E+03  0.15622E-04
 0.12228000E+03  0.35850E-04
 0.12232999E+03  0.52126E-04
 0.12238000E+03  0.60040E-04
 0.12243000E+03  0.56409E-04
 0.12248000E+03  0.41891E-04
 0.12253000E+03  0.23067E-04
 0.12257999E+03  0.77417E-05
 0.12263000E+03 -0.15428E-05
 0.12268000E+03 -0.62601E-05
 0.12273000E+03 -0.96741E-05
 0.12278000E+03 -0.14773E-04
 0.12282999E+03 -0.19649E-04
 0.12288000E+03 -0.19227E-04
 0.12293000E+03 -0.10465E-04
 0.12298000E+03  0.11187E-05
 0.12303000E+03  0.53988E-05
 0.12307999E+03  0.75595E-06
 0.12313000E+03 -0.73173E-05
 0.12318000E+03 -0.14628E-04
 0.12323000E+03 -0.20313E-04
 0.12328000E+03 -0.24713E-04
 0.12332999E+03 -0.23400E-04
 0.12338000E+03 -0.11460E-04
 0.12343000E+03  0.86144E-05
 0.12348000E+03  0.30954E-04
 0.12353000E+03  0.50903E-04
 0.12357999E+03  0.65620E-04
 0.12363000E+03  0.74191E-04
 0.12368000E+03  0.77645E-04
 0.12373000E+03  0.75142E-04
 0.12378000E+03  0.64270E-04
 0.12382999E+03  0.44649E-04
 0.12388000E+03  0.18253E-04
 0.12393000E+03 -0.10227E-04
 0.12398000E+03 -0.34882E-04
 0.12403000E+03 -0.52592E-04
 0.12407999E+03 -0.65642E-04
 0.12413000E+03 -0.76263E-04
 0.12418000E+03 -0.84323E-04
 0.12423000E+03 -0.89382E-04
 0.12428000E+03 -0.91040E-04
 0.12432999E+03 -0.89664E-04
 0.12438000E+03 -0.83535E-04
 0.12443000E+03 -0.70662E-04
 0.12448000E+03 -0.53558E-04
 0.12453000E+03 -0.36392E-04
 0.12457999E+03 -0.23610E-04
 0.12463000E+03 -0.19200E-04
 0.12468000E+03 -0.20148E-04
 0.12473000E+03 -0.18617E-04
 0.12478000E+03 -0.89723E-05
 0.12482999E+03  0.85371E-05
 0.12488000E+03  0.27477E-04
 0.12493000E+03  0.43635E-04
 0.12498000E+03  0.59430E-04
 0.12503000E+03  0.78723E-04
 0.12507999E+03  0.99190E-04
 0.12513000E+03  0.11172E-03
 0.12518000E+03  0.10854E-03
 0.12523000E+03  0.88523E-04
 0.12528000E+03  0.58340E-04
 0.12532999E+03  0.29483E-04
 0.12538000E+03  0.10878E-04
 0.12543000E+03  0.34496E-05
 0.12548000E+03  0.37485E-05
 0.12553000E+03  0.92574E-05
 0.12557999E+03  0.16297E-04
 0.12563000E+03  0.20850E-04
 0.12568000E+03  0.21019E-04
 0.12573000E+03  0.13802E-04
 0.12578000E+03 -0.37354E-05
 0.12582999E+03 -0.27895E-04
 0.12588000E+03 -0.52015E-04
 0.12593000E+03 -0.72459E-04
 0.12598000E+03 -0.85183E-04
 0.12603000E+03 -0.85352E-04
 0.12607999E+03 -0.74597E-04
 0.12613000E+03 -0.61014E-04
 0.12618000E+03 -0.48338E-04
 0.12623000E+03 -0.37482E-04
 0.12628000E+03 -0.26193E-04
 0.12632999E+03 -0.71599E-05
 0.12638000E+03  0.18352E-04
 0.12643000E+03  0.41780E-04
 0.12648000E+03  0.55819E-04
 0.12653000E+03  0.58503E-04
 0.12657999E+03  0.53252E-04
 0.12663000E+03  0.42391E-04
 0.12668000E+03  0.27913E-04
 0.12673000E+03  0.11539E-04
 0.12678000E+03 -0.39359E-05
 0.12682999E+03 -0.14351E-04
 0.12688000E+03 -0.23114E-04
 0.12693000E+03 -0.34367E-04
 0.12698000E+03 -0.41829E-04
 0.12703000E+03 -0.39904E-04
 0.12707999E+03 -0.30675E-04
 0.12713000E+03 -0.17534E-04
 0.12718000E+03 -0.68926E-06
 0.12723000E+03  0.18302E-04
 0.12728000E+03  0.32458E-04
 0.12732999E+03  0.39839E-04
 0.12738000E+03  0.44430E-04
 0.12743000E+03  0.47769E-04
 0.12748000E+03  0.50138E-04
 0.12753000E+03  0.49469E-04
 0.12757999E+03  0.44197E-04
 0.12763000E+03  0.38475E-04
 0.12768000E+03  0.34989E-04
 0.12773000E+03  0.31138E-04
 0.12778000E+03  0.26169E-04
 0.12782999E+03  0.21893E-04
 0.12788000E+03  0.18560E-04
 0.12793000E+03  0.15292E-04
 0.12798000E+03  0.68188E-05
 0.12803000E+03 -0.92551E-05
 0.12808000E+03 -0.26013E-04
 0.12813000E+03 -0.40456E-04
 0.12817999E+03 -0.52823E-04
 0.12823000E+03 -0.62459E-04
 0.12828000E+03 -0.68384E-04
 0.12833000E+03 -0.68219E-04
 0.12838000E+03 -0.63375E-04
 0.12842999E+03 -0.56359E-04
 0.12848000E+03 -0.47698E-04
 0.12853000E+03 -0.35245E-04
 0.12858000E+03 -0.18409E-04
 0.12863000E+03 -0.28333E-05
 0.12867999E+03  0.54073E-05
 0.12873000E+03  0.59409E-05
 0.12878000E+03  0.46735E-05
 0.12883000E+03  0.67617E-05
 0.12888000E+03  0.15074E-04
 0.12892999E+03  0.28776E-04
 0.12898000E+03  0.40682E-04
 0.12903000E+03  0.44364E-04
 0.12908000E+03  0.37430E-04
 0.12913000E+03  0.21676E-04
 0.12917999E+03  0.24147E-05
 0.12923000E+03 -0.12998E-04
 0.12928000E+03 -0.20315E-04
 0.12933000E+03 -0.19017E-04
 0.12938000E+03 -0.95272E-05
 0.12942999E+03  0.23647E-06
 0.12948000E+03  0.34934E-05
 0.12953000E+03  0.33275E-05
 0.12958000E+03  0.47851E-05
 0.12963000E+03  0.10086E-04
 0.12967999E+03  0.17245E-04
 0.12973000E+03  0.23994E-04
 0.12978000E+03  0.28680E-04
 0.12983000E+03  0.28198E-04
 0.12988000E+03  0.21841E-04
 0.12992999E+03  0.12064E-04
 0.12998000E+03  0.14945E-05
 0.13003000E+03 -0.67317E-05
 0.13008000E+03 -0.80846E-05
 0.13013000E+03 -0.24325E-06
 0.13017999E+03  0.13450E-04
 0.13023000E+03  0.26584E-04
 0.13028000E+03  0.34977E-04
 0.13033000E+03  0.36894E-04
 0.13038000E+03  0.30374E-04
 0.13042999E+03  0.16375E-04
 0.13048000E+03  0.12262E-05
 0.13053000E+03 -0.83472E-05
 0.13058000E+03 -0.10703E-04
 0.13063000E+03 -0.11156E-04
 0.13067999E+03 -0.14815E-04
 0.13073000E+03 -0.22382E-04
 0.13078000E+03 -0.32038E-04
 0.13083000E+03 -0.38124E-04
 0.13088000E+03 -0.37891E-04
 0.13092999E+03 -0.33069E-04
 0.13098000E+03 -0.27022E-04
 0.13103000E+03 -0.24810E-04
 0.13108000E+03 -0.26290E-04
 0.13113000E+03 -0.27190E-04
 0.13117999E+03 -0.24765E-04
 0.13123000E+03 -0.18493E-04
 0.13128000E+03 -0.10284E-04
 0.13133000E+03 -0.36650E-05
 0.13138000E+03 -0.91989E-07
 0.13142999E+03  0.17092E-05
 0.13148000E+03  0.28101E-05
 0.13153000E+03  0.48185E-05
 0.13158000E+03  0.70694E-05
 0.13163000E+03  0.69064E-05
 0.13167999E+03  0.53158E-05
 0.13173000E+03  0.56526E-05
 0.13178000E+03  0.89921E-05
 0.13183000E+03  0.12464E-04
 0.13188000E+03  0.14405E-04
 0.13192999E+03  0.15663E-04
 0.13198000E+03  0.15244E-04
 0.13203000E+03  0.13798E-04
 0.13208000E+03  0.13011E-04
 0.13213000E+03  0.13183E-04
 0.13217999E+03  0.16244E-04
 0.13223000E+03  0.20940E-04
 0.13228000E+03  0.23423E-04
 0.13233000E+03  0.22532E-04
 0.13238000E+03  0.17378E-04
 0.13242999E+03  0.94923E-05
 0.13248000E+03  0.32927E-05
 0.13253000E+03 -0.23171E-05
 0.13258000E+03 -0.11586E-04
 0.13263000E+03 -0.22188E-04
 0.13267999E+03 -0.29820E-04
 0.13273000E+03 -0.32694E-04
 0.13278000E+03 -0.28922E-04
 0.13283000E+03 -0.20561E-04
 0.13288000E+03 -0.13100E-04
 0.13292999E+03 -0.86626E-05
 0.13298000E+03 -0.61624E-05
 0.13303000E+03 -0.43442E-05
 0.13308000E+03 -0.21451E-05
 0.13313000E+03  0.12531E-05
 0.13317999E+03  0.38111E-05
 0.13323000E+03  0.42096E-05
 0.13328000E+03  0.58588E-05
 0.13333000E+03  0.10330E-04
 0.13338000E+03  0.15918E-04
 0.13342999E+03  0.20153E-04
 0.13348000E+03  0.20215E-04
 0.13353000E+03  0.15536E-04
 0.13358000E+03  0.94306E-05
 0.13363000E+03  0.40932E-05
 0.13367999E+03 -0.20566E-05
 0.13373000E+03 -0.78249E-05
 0.13378000E+03 -0.11671E-04
 0.13383000E+03 -0.13054E-04
 0.13388000E+03 -0.11161E-04
 0.13392999E+03 -0.78680E-05
 0.13398000E+03 -0.41145E-05
 0.13403000E+03 -0.55347E-06
 0.13408000E+03  0.23006E-05
 0.13413000E+03  0.45882E-05
 0.13417999E+03  0.51872E-05
 0.13423000E+03  0.26850E-05
 0.13428000E+03 -0.38034E-05
 0.13433000E+03 -0.11097E-04
 0.13438000E+03 -0.14997E-04
 0.13442999E+03 -0.15829E-04
 0.13448000E+03 -0.16157E-04
 0.13453000E+03 -0.19580E-04
 0.13458000E+03 -0.26223E-04
 0.13463000E+03 -0.30969E-04
 0.13467999E+03 -0.32721E-04
 0.13473000E+03 -0.33195E-04
 0.13478000E+03 -0.30794E-04
 0.13483000E+03 -0.24651E-04
 0.13488000E+03 -0.14864E-04
 0.13492999E+03  0.24438E-06
 0.13498000E+03  0.20740E-04
 0.13503000E+03  0.42603E-04
 0.13508000E+03  0.59152E-04
 0.13513000E+03  0.64811E-04
 0.13517999E+03  0.60476E-04
 0.13523000E+03  0.50535E-04
 0.13528000E+03  0.37324E-04
 0.13533000E+03  0.24276E-04
 0.13538000E+03  0.14680E-04
 0.13542999E+03  0.84778E-05
 0.13548000E+03  0.57563E-05
 0.13553000E+03  0.54084E-05
 0.13558000E+03  0.55308E-05
 0.13563000E+03  0.63730E-05
 0.13567999E+03  0.70204E-05
 0.13573000E+03  0.65153E-05
 0.13578000E+03  0.48168E-05
 0.13583000E+03  0.20209E-05
 0.13588000E+03 -0.41679E-06
 0.13592999E+03 -0.11995E-05
 0.13598000E+03 -0.89888E-06
 0.13603000E+03 -0.30237E-05
 0.13608000E+03 -0.10207E-04
 0.13613000E+03 -0.22427E-04
 0.13617999E+03 -0.37835E-04
 0.13623000E+03 -0.50549E-04
 0.13628000E+03 -0.55933E-04
 0.13633000E+03 -0.54844E-04
 0.13638000E+03 -0.49885E-04
 0.13642999E+03 -0.43714E-04
 0.13648000E+03 -0.38792E-04
 0.13653000E+03 -0.35131E-04
 0.13658000E+03 -0.30042E-04
 0.13663000E+03 -0.19930E-04
 0.13667999E+03 -0.21656E-05
 0.13673000E+03  0.20092E-04
 0.13678000E+03  0.39619E-04
 0.13683000E+03  0.52071E-04
 0.13688000E+03  0.57342E-04
 0.13692999E+03  0.58377E-04
 0.13698000E+03  0.57602E-04
 0.13703000E+03  0.56084E-04
 0.13708000E+03  0.54173E-04
 0.13713000E+03  0.51392E-04
 0.13717999E+03  0.47653E-04
 0.13723000E+03  0.42616E-04
 0.13728000E+03  0.35545E-04
 0.13733000E+03  0.25232E-04
 0.13738000E+03  0.12535E-04
 0.13742999E+03  0.24570E-05
 0.13748000E+03 -0.22249E-05
 0.13753000E+03 -0.53467E-05
 0.13758000E+03 -0.11984E-04
 0.13763000E+03 -0.22935E-04
 0.13767999E+03 -0.34901E-04
 0.13773000E+03 -0.43754E-04
 0.13778000E+03 -0.48242E-04
 0.13783000E+03 -0.50689E-04
 0.13788000E+03 -0.52915E-04
 0.13792999E+03 -0.54824E-04
 0.13798000E+03 -0.56832E-04
 0.13803000E+03 -0.58467E-04
 0.13808000E+03 -0.57766E-04
 0.13813000E+03 -0.53713E-04
 0.13817999E+03 -0.44376E-04
 0.13823000E+03 -0.26839E-04
 0.13828000E+03 -0.38934E-05
 0.13833000E+03  0.16920E-04
 0.13838000E+03  0.31615E-04
 0.13842999E+03  0.40506E-04
 0.13848000E+03  0.44222E-04
 0.13853000E+03  0.43880E-04
 0.13858000E+03  0.42587E-04
 0.13863000E+03  0.42730E-04
 0.13867999E+03  0.45134E-04
 0.13873000E+03  0.48914E-04
 0.13878000E+03  0.48466E-04
 0.13883000E+03  0.39386E-04
 0.13888000E+03  0.24766E-04
 0.13892999E+03  0.97068E-05
 0.13898000E+03 -0.32668E-05
 0.13903000E+03 -0.13789E-04
 0.13908000E+03 -0.21929E-04
 0.13913000E+03 -0.28124E-04
 0.13917999E+03 -0.34410E-04
 0.13923000E+03 -0.42329E-04
 0.13928000E+03 -0.50971E-04
 0.13933000E+03 -0.57360E-04
 0.13938000E+03 -0.58870E-04
 0.13942999E+03 -0.54658E-04
 0.13948000E+03 -0.45655E-04
 0.13953000E+03 -0.33838E-04
 0.13958000E+03 -0.20338E-04
 0.13963000E+03 -0.65825E-05
 0.13967999E+03  0.63018E-05
 0.13973000E+03  0.18600E-04
 0.13978000E+03  0.31419E-04
 0.13983000E+03  0.46045E-04
 0.13988000E+03  0.60145E-04
 0.13992999E+03  0.69956E-04
 0.13998000E+03  0.73911E-04
 0.14003000E+03  0.70408E-04
 0.14008000E+03  0.59621E-04
 0.14013000E+03  0.44913E-04
 0.14017999E+03  0.30294E-04
 0.14023000E+03  0.18713E-04
 0.14028000E+03  0.10079E-04
 0.14033000E+03  0.14553E-05
 0.14038000E+03 -0.94713E-05
 0.14042999E+03 -0.20542E-04
 0.14048000E+03 -0.27056E-04
 0.14053000E+03 -0.27941E-04
 0.14058000E+03 -0.25011E-04
 0.14063000E+03 -0.19644E-04
 0.14067999E+03 -0.14032E-04
 0.14073000E+03 -0.10919E-04
 0.14078000E+03 -0.10092E-04
 0.14083000E+03 -0.89968E-05
 0.14088000E+03 -0.59314E-05
 0.14092999E+03 -0.17011E-05
 0.14098000E+03  0.62041E-06
 0.14103000E+03 -0.61129E-06
 0.14108000E+03 -0.47561E-05
 0.14113000E+03 -0.10468E-04
 0.14117999E+03 -0.15727E-04
 0.14123000E+03 -0.18381E-04
 0.14128000E+03 -0.17967E-04
 0.14133000E+03 -0.16359E-04
 0.14138000E+03 -0.15409E-04
 0.14142999E+03 -0.15323E-04
 0.14148000E+03 -0.13980E-04
 0.14153000E+03 -0.96961E-05
 0.14158000E+03 -0.42552E-05
 0.14163000E+03  0.53830E-06
 0.14167999E+03  0.58676E-05
 0.14173000E+03  0.13519E-04
 0.14178000E+03  0.22148E-04
 0.14183000E+03  0.28743E-04
 0.14188000E+03  0.32002E-04
 0.14192999E+03  0.33002E-04
 0.14198000E+03  0.32729E-04
 0.14203000E+03  0.30510E-04
 0.14208000E+03  0.25235E-04
 0.14213000E+03  0.15205E-04
 0.14217999E+03  0.19465E-05
 0.14223000E+03 -0.10477E-04
 0.14228000E+03 -0.20907E-04
 0.14233000E+03 -0.29588E-04
 0.14238000E+03 -0.37145E-04
 0.14242999E+03 -0.43745E-04
 0.14248000E+03 -0.48176E-04
 0.14253000E+03 -0.49377E-04
 0.14258000E+03 -0.44768E-04
 0.14263000E+03 -0.30793E-04
 0.14267999E+03 -0.82689E-05
 0.14273000E+03  0.16872E-04
 0.14278000E+03  0.37116E-04
 0.14283000E+03  0.47650E-04
 0.14288000E+03  0.47603E-04
 0.14292999E+03  0.39206E-04
 0.14298000E+03  0.27704E-04
 0.14303000E+03  0.16599E-04
 0.14308000E+03  0.57433E-05
 0.14313000E+03 -0.46561E-05
 0.14317999E+03 -0.13259E-04
 0.14323000E+03 -0.17889E-04
 0.14328000E+03 -0.15540E-04
 0.14333000E+03 -0.70284E-05
 0.14338000E+03  0.20739E-05
 0.14342999E+03  0.79348E-05
 0.14348000E+03  0.10038E-04
 0.14353000E+03  0.84813E-05
 0.14358000E+03  0.28339E-05
 0.14363000E+03 -0.71745E-05
 0.14367999E+03 -0.19031E-04
 0.14373000E+03 -0.28789E-04
 0.14378000E+03 -0.35247E-04
 0.14383000E+03 -0.38152E-04
 0.14388000E+03 -0.37950E-04
 0.14392999E+03 -0.36970E-04
 0.14398000E+03 -0.35187E-04
 0.14403000E+03 -0.31451E-04
 0.14408000E+03 -0.25271E-04
 0.14413000E+03 -0.15616E-04
 0.14417999E+03 -0.23998E-05
 0.14423000E+03  0.13929E-04
 0.14428000E+03  0.31779E-04
 0.14433000E+03  0.47557E-04
 0.14438000E+03  0.58554E-04
 0.14442999E+03  0.64114E-04
 0.14448000E+03  0.64841E-04
 0.14453000E+03  0.63462E-04
 0.14458000E+03  0.61194E-04
 0.14463000E+03  0.56298E-04
 0.14467999E+03  0.49008E-04
 0.14473000E+03  0.39254E-04
 0.14478000E+03  0.26000E-04
 0.14483000E+03  0.10996E-04
 0.14488000E+03 -0.38558E-05
 0.14492999E+03 -0.18005E-04
 0.14498000E+03 -0.30387E-04
 0.14503000E+03 -0.40059E-04
 0.14508000E+03 -0.46082E-04
 0.14513000E+03 -0.46339E-04
 0.14517999E+03 -0.40383E-04
 0.14523000E+03 -0.31391E-04
 0.14528000E+03 -0.24298E-04
 0.14533000E+03 -0.21259E-04
 0.14538000E+03 -0.20045E-04
 0.14542999E+03 -0.18257E-04
 0.14548000E+03 -0.14943E-04
 0.14553000E+03 -0.10771E-04
 0.14558000E+03 -0.60542E-05
 0.14563000E+03  0.39906E-06
 0.14567999E+03  0.72335E-05
 0.14573000E+03  0.10320E-04
 0.14578000E+03  0.68873E-05
 0.14583000E+03 -0.16614E-05
 0.14588000E+03 -0.10834E-04
 0.14592999E+03 -0.15480E-04
 0.14598000E+03 -0.12986E-04
 0.14603000E+03 -0.50811E-05
 0.14608000E+03  0.49195E-05
 0.14613000E+03  0.13992E-04
 0.14617999E+03  0.20604E-04
 0.14623000E+03  0.24857E-04
 0.14628000E+03  0.27954E-04
 0.14633000E+03  0.30574E-04
 0.14638000E+03  0.30945E-04
 0.14642999E+03  0.28156E-04
 0.14648000E+03  0.22648E-04
 0.14653000E+03  0.13597E-04
 0.14658000E+03  0.34581E-06
 0.14663000E+03 -0.14814E-04
 0.14667999E+03 -0.28499E-04
 0.14673000E+03 -0.38932E-04
 0.14678000E+03 -0.44804E-04
 0.14683000E+03 -0.46716E-04
 0.14688000E+03 -0.45908E-04
 0.14692999E+03 -0.42354E-04
 0.14698000E+03 -0.37296E-04
 0.14703000E+03 -0.32044E-04
 0.14708000E+03 -0.26602E-04
 0.14713000E+03 -0.19910E-04
 0.14717999E+03 -0.10998E-04
 0.14723000E+03 -0.10238E-05
 0.14728000E+03  0.81690E-05
 0.14733000E+03  0.16053E-04
 0.14738000E+03  0.22806E-04
 0.14742999E+03  0.28502E-04
 0.14748000E+03  0.33270E-04
 0.14753000E+03  0.36962E-04
 0.14758000E+03  0.39883E-04
 0.14763000E+03  0.41750E-04
 0.14767999E+03  0.40510E-04
 0.14773000E+03  0.35143E-04
 0.14778000E+03  0.26816E-04
 0.14783000E+03  0.18431E-04
 0.14788000E+03  0.12053E-04
 0.14792999E+03  0.66062E-05
 0.14798000E+03  0.96257E-08
 0.14803000E+03 -0.91741E-05
 0.14808000E+03 -0.21138E-04
 0.14813000E+03 -0.33302E-04
 0.14817999E+03 -0.41181E-04
 0.14823000E+03 -0.43026E-04
 0.14828000E+03 -0.40050E-04
 0.14833000E+03 -0.33251E-04
 0.14838000E+03 -0.24098E-04
 0.14842999E+03 -0.13905E-04
 0.14848000E+03 -0.28045E-05
 0.14853000E+03  0.77303E-05
 0.14858000E+03  0.14678E-04
 0.14863000E+03  0.18145E-04
 0.14867999E+03  0.21707E-04
 0.14873000E+03  0.25431E-04
 0.14878000E+03  0.25558E-04
 0.14883000E+03  0.20790E-04
 0.14888000E+03  0.13475E-04
 0.14892999E+03  0.66167E-05
 0.14898000E+03  0.18464E-05
 0.14903000E+03  0.10383E-06
 0.14908000E+03  0.17644E-05
 0.14913000E+03  0.59747E-05
 0.14917999E+03  0.10856E-04
 0.14923000E+03  0.14380E-04
 0.14928000E+03  0.16065E-04
 0.14933000E+03  0.16203E-04
 0.14938000E+03  0.15023E-04
 0.14942999E+03  0.13079E-04
 0.14948000E+03  0.11012E-04
 0.14953000E+03  0.97145E-05
 0.14958000E+03  0.98514E-05
 0.14963000E+03  0.11526E-04
 0.14967999E+03  0.12800E-04
 0.14973000E+03  0.11138E-04
 0.14978000E+03  0.64025E-05
 0.14983000E+03 -0.11927E-05
 0.14988000E+03 -0.10400E-04
 0.14992999E+03 -0.17964E-04
 0.14998000E+03 -0.21815E-04
