-0.19996643E-01  0.32159E-03
 0.30003358E-01  0.18025E-03
 0.80003358E-01  0.75264E-04
 0.13000336E+00  0.17007E-05
 0.18000336E+00 -0.45533E-04
 0.23000336E+00 -0.72196E-04
 0.28000337E+00 -0.83450E-04
 0.33000335E+00 -0.83982E-04
 0.38000336E+00 -0.77615E-04
 0.43000337E+00 -0.66987E-04
 0.48000336E+00 -0.55070E-04
 0.53000337E+00 -0.43229E-04
 0.58000338E+00 -0.31931E-04
 0.63000339E+00 -0.22073E-04
 0.68000335E+00 -0.14046E-04
 0.73000336E+00 -0.78018E-05
 0.78000337E+00 -0.30016E-05
 0.83000338E+00  0.34471E-06
 0.88000339E+00  0.23928E-05
 0.93000335E+00  0.34926E-05
 0.98000336E+00  0.37650E-05
 0.10300034E+01  0.36850E-05
 0.10800034E+01  0.33667E-05
 0.11300033E+01  0.28308E-05
 0.11800034E+01  0.25904E-05
 0.12300034E+01  0.21350E-05
 0.12800034E+01  0.12715E-05
 0.13300034E+01  0.96493E-06
 0.13800033E+01  0.76002E-06
 0.14300034E+01  0.45097E-06
 0.14800034E+01  0.15443E-06
 0.15300034E+01 -0.17747E-06
 0.15800034E+01 -0.78435E-07
 0.16300033E+01 -0.15582E-06
 0.16800034E+01 -0.31989E-06
 0.17300034E+01  0.18774E-07
 0.17800034E+01 -0.56399E-07
 0.18300034E+01 -0.23694E-06
 0.18800033E+01  0.37529E-07
 0.19300034E+01 -0.16388E-06
 0.19800034E+01 -0.85315E-07
 0.20300033E+01  0.19076E-06
 0.20800035E+01  0.20287E-07
 0.21300035E+01 -0.22681E-07
 0.21800034E+01 -0.16816E-06
 0.22300034E+01 -0.75252E-07
 0.22800033E+01  0.17263E-06
 0.23300035E+01 -0.31252E-07
 0.23800035E+01 -0.15593E-06
 0.24300034E+01 -0.25586E-07
 0.24800034E+01 -0.11780E-06
 0.25300033E+01 -0.80721E-07
 0.25800035E+01  0.14011E-06
 0.26300035E+01  0.15192E-06
 0.26800034E+01 -0.10058E-06
 0.27300034E+01 -0.24252E-06
 0.27800033E+01 -0.18078E-06
 0.28300035E+01 -0.14816E-06
 0.28800035E+01  0.26748E-06
 0.29300034E+01  0.16914E-06
 0.29800034E+01 -0.15142E-06
 0.30300033E+01 -0.47617E-07
 0.30800035E+01 -0.14828E-06
 0.31300035E+01  0.20889E-06
 0.31800034E+01  0.23017E-06
 0.32300034E+01 -0.88217E-07
 0.32800033E+01  0.10662E-06
 0.33300035E+01 -0.12237E-06
 0.33800035E+01 -0.13289E-06
 0.34300034E+01  0.30197E-06
 0.34800034E+01  0.64833E-07
 0.35300033E+01 -0.59042E-07
 0.35800035E+01  0.21996E-06
 0.36300035E+01 -0.27800E-07
 0.36800034E+01 -0.67488E-07
 0.37300034E+01  0.66084E-07
 0.37800033E+01 -0.67238E-07
 0.38300035E+01  0.18966E-06
 0.38800035E+01 -0.75413E-07
 0.39300034E+01 -0.36985E-06
 0.39800034E+01  0.11728E-07
 0.40300035E+01  0.11070E-06
 0.40800033E+01  0.42708E-07
 0.41300035E+01 -0.10575E-06
 0.41800036E+01 -0.22073E-06
 0.42300034E+01 -0.25808E-06
 0.42800035E+01 -0.88184E-07
 0.43300033E+01  0.10707E-06
 0.43800035E+01  0.60493E-07
 0.44300036E+01  0.18058E-06
 0.44800034E+01  0.90290E-07
 0.45300035E+01 -0.84302E-07
 0.45800033E+01  0.44520E-07
 0.46300035E+01  0.77747E-07
 0.46800036E+01  0.16024E-07
 0.47300034E+01 -0.29228E-07
 0.47800035E+01 -0.89367E-08
 0.48300033E+01  0.61298E-07
 0.48800035E+01  0.20327E-06
 0.49300036E+01  0.63916E-07
 0.49800034E+01 -0.26853E-06
 0.50300035E+01 -0.23657E-07
 0.50800033E+01  0.86340E-07
 0.51300035E+01  0.65586E-07
 0.51800036E+01  0.27499E-07
 0.52300034E+01 -0.15110E-06
 0.52800035E+01  0.84306E-07
 0.53300033E+01 -0.79507E-07
 0.53800035E+01 -0.15187E-06
 0.54300036E+01  0.13221E-06
 0.54800034E+01  0.20433E-06
 0.55300035E+01 -0.26478E-07
 0.55800033E+01 -0.36655E-06
 0.56300035E+01 -0.52946E-09
 0.56800036E+01  0.18335E-06
 0.57300034E+01  0.11105E-06
 0.57800035E+01  0.95550E-07
 0.58300033E+01 -0.57748E-07
 0.58800035E+01 -0.26866E-07
 0.59300036E+01 -0.16366E-06
 0.59800034E+01  0.28299E-07
 0.60300035E+01  0.36285E-06
 0.60800033E+01  0.90823E-08
 0.61300035E+01 -0.20971E-06
 0.61800036E+01 -0.18530E-07
 0.62300034E+01  0.58267E-07
 0.62800035E+01  0.21642E-07
 0.63300033E+01 -0.88324E-07
 0.63800035E+01  0.50399E-07
 0.64300036E+01 -0.85565E-07
 0.64800034E+01 -0.30751E-06
 0.65300035E+01  0.13268E-06
 0.65800033E+01  0.60591E-07
 0.66300035E+01 -0.90809E-07
 0.66800036E+01  0.18626E-06
 0.67300034E+01 -0.10701E-07
 0.67800035E+01 -0.11352E-06
 0.68300033E+01 -0.91309E-08
 0.68800035E+01  0.31063E-07
 0.69300036E+01  0.13231E-06
 0.69800034E+01 -0.76758E-07
 0.70300035E+01 -0.13901E-06
 0.70800033E+01  0.60970E-07
 0.71300035E+01 -0.87807E-07
 0.71800036E+01 -0.21386E-07
 0.72300034E+01  0.24918E-07
 0.72800035E+01 -0.18731E-06
 0.73300033E+01  0.33805E-07
 0.73800035E+01  0.15936E-06
 0.74300036E+01  0.15350E-06
 0.74800034E+01 -0.24525E-07
 0.75300035E+01 -0.32935E-06
 0.75800033E+01 -0.88145E-07
 0.76300035E+01 -0.45794E-06
 0.76800036E+01 -0.16536E-06
 0.77300034E+01  0.11481E-06
 0.77800035E+01 -0.71789E-06
 0.78300033E+01  0.19654E-05
 0.78800035E+01 -0.14014E-05
 0.79300036E+01  0.21041E-05
 0.79800034E+01 -0.23864E-05
 0.80300035E+01  0.36542E-06
 0.80800037E+01  0.36650E-05
 0.81300039E+01 -0.71436E-05
 0.81800032E+01  0.11320E-04
 0.82300034E+01 -0.17367E-04
 0.82800035E+01  0.18706E-04
 0.83300037E+01 -0.18847E-04
 0.83800039E+01  0.11445E-04
 0.84300032E+01  0.69045E-06
 0.84800034E+01 -0.21004E-04
 0.85300035E+01  0.48225E-04
 0.85800037E+01 -0.46919E-04
 0.86300039E+01  0.34011E-03
 0.86800032E+01  0.36888E-03
 0.87300034E+01  0.94995E-03
 0.87800035E+01  0.98726E-03
 0.88300037E+01  0.30799E-03
 0.88800039E+01  0.47085E-03
 0.89300032E+01 -0.10533E-02
 0.89800034E+01 -0.15845E-02
 0.90300035E+01 -0.60213E-03
 0.90800037E+01  0.11852E-02
 0.91300039E+01  0.14713E-02
 0.91800032E+01 -0.14066E-02
 0.92300034E+01 -0.14773E-02
 0.92800035E+01  0.29200E-03
 0.93300037E+01  0.20214E-02
 0.93800039E+01  0.21477E-02
 0.94300032E+01  0.55865E-03
 0.94800034E+01 -0.20776E-03
 0.95300035E+01 -0.37333E-02
 0.95800037E+01 -0.60158E-02
 0.96300039E+01 -0.28007E-02
 0.96800032E+01  0.17705E-02
 0.97300034E+01  0.33307E-02
 0.97800035E+01  0.49412E-03
 0.98300037E+01 -0.56447E-03
 0.98800039E+01  0.14297E-02
 0.99300032E+01  0.24655E-02
 0.99800034E+01  0.20577E-02
 0.10030004E+02  0.34004E-03
 0.10080004E+02 -0.19481E-02
 0.10130004E+02 -0.37131E-02
 0.10180003E+02 -0.39008E-02
 0.10230003E+02 -0.18741E-02
 0.10280004E+02  0.62171E-03
 0.10330004E+02  0.10072E-02
 0.10380004E+02  0.12773E-02
 0.10430003E+02  0.24992E-02
 0.10480003E+02  0.27050E-02
 0.10530004E+02  0.16254E-02
 0.10580004E+02  0.15454E-03
 0.10630004E+02 -0.68288E-03
 0.10680003E+02 -0.11515E-02
 0.10730003E+02 -0.96640E-03
 0.10780004E+02 -0.19219E-03
 0.10830004E+02  0.72112E-03
 0.10880004E+02  0.30944E-03
 0.10930003E+02 -0.45870E-03
 0.10980003E+02  0.39041E-03
 0.11030004E+02  0.12553E-02
 0.11080004E+02  0.15137E-02
 0.11130004E+02  0.43452E-03
 0.11180003E+02  0.31786E-03
 0.11230003E+02  0.86318E-03
 0.11280004E+02  0.80485E-03
 0.11330004E+02  0.99873E-03
 0.11380004E+02  0.28026E-03
 0.11430003E+02 -0.23652E-03
 0.11480003E+02 -0.21929E-02
 0.11530004E+02 -0.32467E-02
 0.11580004E+02 -0.20606E-02
 0.11630004E+02 -0.17220E-02
 0.11680003E+02 -0.24739E-03
 0.11730003E+02  0.32270E-03
 0.11780004E+02  0.47061E-03
 0.11830004E+02  0.23045E-02
 0.11880004E+02  0.42266E-02
 0.11930003E+02  0.52531E-02
 0.11980003E+02  0.13741E-02
 0.12030004E+02 -0.40038E-02
 0.12080004E+02 -0.52619E-02
 0.12130004E+02 -0.35672E-02
 0.12180003E+02 -0.22860E-02
 0.12230003E+02 -0.34637E-02
 0.12280004E+02 -0.28543E-02
 0.12330004E+02  0.78264E-03
 0.12380004E+02  0.38413E-02
 0.12430003E+02  0.43322E-02
 0.12480003E+02  0.29870E-02
 0.12530004E+02  0.11406E-02
 0.12580004E+02 -0.13993E-03
 0.12630004E+02  0.50103E-03
 0.12680003E+02  0.49137E-03
 0.12730003E+02 -0.85639E-03
 0.12780004E+02 -0.16083E-02
 0.12830004E+02 -0.20162E-02
 0.12880004E+02 -0.17609E-02
 0.12930003E+02 -0.43278E-03
 0.12980003E+02  0.16150E-02
 0.13030004E+02  0.24593E-02
 0.13080004E+02  0.13799E-02
 0.13130004E+02 -0.70679E-03
 0.13180003E+02 -0.92057E-03
 0.13230003E+02  0.10344E-02
 0.13280004E+02  0.62797E-03
 0.13330004E+02 -0.56569E-03
 0.13380004E+02 -0.69186E-03
 0.13430003E+02 -0.11927E-02
 0.13480003E+02 -0.11116E-02
 0.13530004E+02  0.32658E-03
 0.13580004E+02  0.10718E-02
 0.13630004E+02 -0.74572E-03
 0.13680003E+02 -0.21835E-02
 0.13730003E+02 -0.10654E-02
 0.13780004E+02  0.47256E-03
 0.13830004E+02  0.99459E-03
 0.13880004E+02  0.94471E-03
 0.13930003E+02  0.14777E-02
 0.13980003E+02  0.18038E-02
 0.14030004E+02  0.22629E-03
 0.14080004E+02 -0.14283E-03
 0.14130004E+02  0.11316E-02
 0.14180003E+02  0.12696E-02
 0.14230003E+02  0.20741E-04
 0.14280004E+02 -0.29978E-02
 0.14330004E+02 -0.35466E-02
 0.14380004E+02 -0.49096E-03
 0.14430003E+02  0.60296E-03
 0.14480003E+02  0.77948E-03
 0.14530004E+02  0.21104E-02
 0.14580004E+02  0.36456E-02
 0.14630004E+02  0.30298E-02
 0.14680003E+02  0.10582E-03
 0.14730003E+02 -0.16970E-02
 0.14780004E+02 -0.28070E-02
 0.14830004E+02 -0.72082E-02
 0.14880004E+02 -0.12836E-01
 0.14930003E+02 -0.10381E-01
 0.14980003E+02 -0.43644E-02
 0.15030004E+02  0.49368E-03
 0.15080004E+02  0.35823E-02
 0.15130004E+02  0.60519E-02
 0.15180003E+02  0.11241E-01
 0.15230003E+02  0.12353E-01
 0.15280004E+02  0.10892E-01
 0.15330004E+02  0.74354E-02
 0.15380004E+02  0.39039E-02
 0.15430003E+02  0.51850E-03
 0.15480003E+02 -0.61590E-02
 0.15530004E+02 -0.11806E-01
 0.15580004E+02 -0.10421E-01
 0.15630004E+02 -0.63357E-03
 0.15680003E+02  0.52094E-02
 0.15730003E+02  0.44803E-02
 0.15780004E+02  0.23522E-02
 0.15830004E+02 -0.18110E-03
 0.15880004E+02 -0.14065E-02
 0.15930003E+02 -0.45387E-03
 0.15980003E+02  0.19491E-02
 0.16030005E+02 -0.70974E-03
 0.16080004E+02 -0.52966E-02
 0.16130003E+02 -0.40890E-02
 0.16180004E+02 -0.38622E-02
 0.16230003E+02 -0.63613E-02
 0.16280005E+02 -0.42501E-02
 0.16330004E+02  0.82724E-03
 0.16380003E+02  0.37799E-02
 0.16430004E+02  0.37300E-02
 0.16480003E+02  0.49370E-02
 0.16530005E+02  0.71264E-02
 0.16580004E+02  0.51117E-02
 0.16630003E+02  0.38162E-02
 0.16680004E+02  0.21660E-02
 0.16730003E+02 -0.26270E-02
 0.16780005E+02 -0.68088E-02
 0.16830004E+02 -0.92094E-02
 0.16880003E+02 -0.73018E-02
 0.16930004E+02 -0.47274E-02
 0.16980003E+02  0.27000E-03
 0.17030005E+02  0.59335E-02
 0.17080004E+02  0.41251E-02
 0.17130003E+02 -0.14049E-02
 0.17180004E+02 -0.34679E-02
 0.17230003E+02  0.51155E-04
 0.17280005E+02  0.46394E-02
 0.17330004E+02  0.90331E-02
 0.17380003E+02  0.10412E-01
 0.17430004E+02  0.50185E-02
 0.17480003E+02 -0.96305E-03
 0.17530005E+02 -0.43682E-02
 0.17580004E+02 -0.77618E-02
 0.17630003E+02 -0.81041E-02
 0.17680004E+02 -0.73021E-02
 0.17730003E+02 -0.45761E-02
 0.17780005E+02  0.23814E-02
 0.17830004E+02  0.54531E-02
 0.17880003E+02  0.81159E-02
 0.17930004E+02  0.10528E-01
 0.17980003E+02  0.62963E-02
 0.18030005E+02  0.14697E-03
 0.18080004E+02 -0.34656E-02
 0.18130003E+02 -0.46314E-02
 0.18180004E+02 -0.39873E-02
 0.18230003E+02 -0.17175E-02
 0.18280005E+02  0.84750E-03
 0.18330004E+02 -0.41695E-03
 0.18380003E+02 -0.34508E-02
 0.18430004E+02 -0.54513E-02
 0.18480003E+02 -0.71253E-02
 0.18530005E+02 -0.34540E-02
 0.18580004E+02 -0.17169E-02
 0.18630003E+02 -0.27580E-02
 0.18680004E+02  0.54500E-03
 0.18730003E+02  0.42243E-02
 0.18780005E+02  0.66629E-02
 0.18830004E+02  0.49510E-02
 0.18880003E+02  0.16281E-02
 0.18930004E+02  0.60211E-03
 0.18980003E+02 -0.96369E-04
 0.19030005E+02 -0.18501E-02
 0.19080004E+02 -0.20954E-02
 0.19130003E+02 -0.80271E-04
 0.19180004E+02  0.85778E-03
 0.19230003E+02  0.18540E-02
 0.19280005E+02  0.31862E-02
 0.19330004E+02  0.40186E-02
 0.19380003E+02  0.39520E-02
 0.19430004E+02  0.23903E-02
 0.19480003E+02  0.10025E-02
 0.19530005E+02 -0.48067E-03
 0.19580004E+02 -0.76707E-03
 0.19630003E+02  0.14444E-03
 0.19680004E+02 -0.12401E-02
 0.19730003E+02 -0.29436E-02
 0.19780005E+02 -0.35681E-02
 0.19830004E+02 -0.27257E-02
 0.19880003E+02 -0.33950E-03
 0.19930004E+02  0.16581E-02
 0.19980003E+02  0.34524E-02
 0.20030005E+02  0.31386E-02
 0.20080004E+02  0.10147E-02
 0.20130003E+02 -0.65021E-04
 0.20180004E+02 -0.36076E-03
 0.20230003E+02 -0.52965E-03
 0.20280005E+02 -0.50053E-03
 0.20330004E+02 -0.68481E-03
 0.20380003E+02 -0.15367E-02
 0.20430004E+02 -0.25750E-02
 0.20480003E+02 -0.32010E-02
 0.20530005E+02 -0.33274E-02
 0.20580004E+02 -0.37931E-02
 0.20630003E+02 -0.39323E-02
 0.20680004E+02 -0.31279E-02
 0.20730003E+02 -0.14058E-02
 0.20780005E+02  0.20561E-02
 0.20830004E+02  0.51750E-02
 0.20880003E+02  0.63903E-02
 0.20930004E+02  0.53478E-02
 0.20980003E+02  0.35387E-02
 0.21030005E+02  0.23648E-02
 0.21080004E+02  0.23056E-03
 0.21130003E+02 -0.15422E-03
 0.21180004E+02 -0.35373E-03
 0.21230003E+02 -0.44844E-03
 0.21280005E+02  0.16861E-02
 0.21330004E+02 -0.65643E-03
 0.21380003E+02 -0.48127E-02
 0.21430004E+02 -0.69238E-02
 0.21480003E+02 -0.81405E-02
 0.21530005E+02 -0.65247E-02
 0.21580004E+02 -0.37083E-02
 0.21630003E+02 -0.15102E-02
 0.21680004E+02  0.59242E-04
 0.21730003E+02  0.24030E-02
 0.21780005E+02  0.50068E-02
 0.21830004E+02  0.66323E-02
 0.21880003E+02  0.83068E-02
 0.21930004E+02  0.85356E-02
 0.21980003E+02  0.48550E-02
 0.22030005E+02 -0.80374E-03
 0.22080004E+02 -0.45811E-02
 0.22130003E+02 -0.60410E-02
 0.22180004E+02 -0.54271E-02
 0.22230003E+02 -0.27194E-02
 0.22280005E+02 -0.12551E-03
 0.22330004E+02  0.65672E-03
 0.22380003E+02  0.12857E-03
 0.22430004E+02 -0.52930E-03
 0.22480003E+02  0.12002E-03
 0.22530005E+02  0.24674E-02
 0.22580004E+02  0.42810E-02
 0.22630003E+02  0.41779E-02
 0.22680004E+02  0.25655E-02
 0.22730003E+02 -0.69557E-03
 0.22780005E+02 -0.32812E-02
 0.22830004E+02 -0.35829E-02
 0.22880003E+02 -0.23802E-02
 0.22930004E+02 -0.60228E-03
 0.22980003E+02 -0.26394E-03
 0.23030005E+02  0.18290E-03
 0.23080004E+02  0.11838E-02
 0.23130003E+02  0.70837E-03
 0.23180004E+02  0.80804E-03
 0.23230003E+02  0.26108E-02
 0.23280005E+02  0.42720E-02
 0.23330004E+02  0.43523E-02
 0.23380003E+02  0.20072E-02
 0.23430004E+02 -0.21257E-02
 0.23480003E+02 -0.44630E-02
 0.23530005E+02 -0.39065E-02
 0.23580004E+02 -0.18830E-02
 0.23630003E+02  0.68858E-03
 0.23680004E+02  0.14128E-02
 0.23730003E+02  0.10750E-02
 0.23780005E+02  0.71946E-03
 0.23830004E+02 -0.51063E-03
 0.23880003E+02 -0.11773E-02
 0.23930004E+02 -0.13549E-02
 0.23980003E+02 -0.16064E-02
 0.24030005E+02 -0.81407E-03
 0.24080004E+02 -0.53972E-03
 0.24130003E+02 -0.18355E-02
 0.24180004E+02 -0.25157E-02
 0.24230003E+02 -0.30306E-02
 0.24280005E+02 -0.30510E-02
 0.24330004E+02 -0.14930E-02
 0.24380003E+02 -0.55278E-03
 0.24430004E+02  0.50730E-03
 0.24480003E+02  0.30524E-02
 0.24530005E+02  0.49000E-02
 0.24580004E+02  0.39791E-02
 0.24630003E+02  0.13310E-02
 0.24680004E+02  0.10204E-03
 0.24730003E+02  0.12391E-03
 0.24780005E+02  0.47350E-03
 0.24830004E+02  0.95371E-03
 0.24880003E+02 -0.77686E-04
 0.24930004E+02 -0.79419E-03
 0.24980003E+02 -0.61068E-03
 0.25030005E+02 -0.10986E-02
 0.25080004E+02 -0.11087E-02
 0.25130003E+02 -0.57808E-03
 0.25180004E+02  0.28617E-04
 0.25230003E+02  0.92449E-03
 0.25280005E+02  0.18415E-02
 0.25330004E+02  0.18250E-02
 0.25380003E+02  0.16884E-02
 0.25430004E+02  0.16941E-02
 0.25480003E+02  0.74555E-03
 0.25530005E+02  0.71644E-03
 0.25580004E+02  0.10338E-02
 0.25630003E+02  0.36328E-03
 0.25680004E+02 -0.20895E-03
 0.25730003E+02 -0.10396E-02
 0.25780005E+02 -0.17395E-02
 0.25830004E+02 -0.20908E-02
 0.25880003E+02 -0.20813E-02
 0.25930004E+02 -0.14561E-02
 0.25980003E+02 -0.12920E-02
 0.26030005E+02 -0.10172E-02
 0.26080004E+02 -0.62417E-03
 0.26130003E+02 -0.10713E-02
 0.26180004E+02 -0.15633E-02
 0.26230003E+02 -0.15845E-02
 0.26280005E+02 -0.82473E-03
 0.26330004E+02  0.86922E-03
 0.26380003E+02  0.21987E-02
 0.26430004E+02  0.20403E-02
 0.26480003E+02  0.19434E-02
 0.26530005E+02  0.14742E-02
 0.26580004E+02  0.41013E-03
 0.26630003E+02  0.23291E-03
 0.26680004E+02 -0.23272E-03
 0.26730003E+02 -0.46759E-03
 0.26780005E+02 -0.10142E-02
 0.26830004E+02 -0.17173E-02
 0.26880003E+02 -0.12552E-02
 0.26930004E+02 -0.67501E-03
 0.26980003E+02 -0.59854E-04
 0.27030005E+02  0.55742E-03
 0.27080004E+02  0.12408E-02
 0.27130003E+02  0.10146E-02
 0.27180004E+02  0.19805E-03
 0.27230003E+02  0.17276E-03
 0.27280005E+02  0.78261E-03
 0.27330004E+02  0.13365E-02
 0.27380003E+02  0.97898E-03
 0.27430004E+02  0.94551E-03
 0.27480003E+02  0.13019E-02
 0.27530005E+02  0.11607E-02
 0.27580004E+02  0.11233E-02
 0.27630003E+02  0.78915E-03
 0.27680004E+02 -0.49031E-05
 0.27730003E+02 -0.10698E-02
 0.27780005E+02 -0.23475E-02
 0.27830004E+02 -0.32538E-02
 0.27880003E+02 -0.34670E-02
 0.27930004E+02 -0.26993E-02
 0.27980003E+02 -0.99649E-03
 0.28030005E+02  0.99742E-03
 0.28080004E+02  0.20500E-02
 0.28130003E+02  0.22693E-02
 0.28180004E+02  0.23685E-02
 0.28230003E+02  0.15322E-02
 0.28280005E+02  0.73247E-04
 0.28330004E+02 -0.14303E-02
 0.28380003E+02 -0.24485E-02
 0.28430004E+02 -0.17775E-02
 0.28480003E+02  0.84672E-04
 0.28530005E+02  0.14805E-02
 0.28580004E+02  0.16908E-02
 0.28630003E+02  0.81402E-03
 0.28680004E+02 -0.59608E-03
 0.28730003E+02 -0.14260E-02
 0.28780005E+02 -0.19930E-02
 0.28830004E+02 -0.22452E-02
 0.28880003E+02 -0.93712E-03
 0.28930004E+02  0.76503E-03
 0.28980003E+02  0.15927E-02
 0.29030005E+02  0.14181E-02
 0.29080004E+02  0.73718E-03
 0.29130003E+02  0.54803E-03
 0.29180004E+02  0.24647E-03
 0.29230003E+02  0.12989E-03
 0.29280005E+02  0.42857E-03
 0.29330004E+02  0.47260E-03
 0.29380003E+02  0.99693E-03
 0.29430004E+02  0.15347E-02
 0.29480003E+02  0.15033E-02
 0.29530005E+02  0.14211E-02
 0.29580004E+02  0.12014E-02
 0.29630003E+02  0.49197E-03
 0.29680004E+02 -0.83481E-03
 0.29730003E+02 -0.23435E-02
 0.29780005E+02 -0.29069E-02
 0.29830004E+02 -0.24452E-02
 0.29880003E+02 -0.15620E-02
 0.29930004E+02 -0.97945E-04
 0.29980003E+02  0.96563E-03
 0.30030005E+02  0.83839E-03
 0.30080004E+02 -0.80274E-04
 0.30130003E+02 -0.91065E-03
 0.30180004E+02 -0.70454E-03
 0.30230003E+02  0.13685E-03
 0.30280005E+02  0.11049E-02
 0.30330004E+02  0.20257E-02
 0.30380003E+02  0.21768E-02
 0.30430004E+02  0.12284E-02
 0.30480003E+02 -0.32209E-03
 0.30530005E+02 -0.23837E-02
 0.30580004E+02 -0.37025E-02
 0.30630003E+02 -0.31315E-02
 0.30680004E+02 -0.21145E-02
 0.30730003E+02 -0.13831E-02
 0.30780005E+02 -0.46323E-03
 0.30830004E+02  0.87786E-03
 0.30880003E+02  0.17924E-02
 0.30930004E+02  0.16167E-02
 0.30980003E+02  0.11510E-02
 0.31030005E+02  0.70479E-03
 0.31080004E+02  0.56218E-03
 0.31130003E+02  0.13360E-02
 0.31180004E+02  0.25581E-02
 0.31230003E+02  0.28995E-02
 0.31280005E+02  0.23853E-02
 0.31330004E+02  0.18453E-02
 0.31380003E+02  0.70364E-03
 0.31430004E+02 -0.89899E-03
 0.31480003E+02 -0.18647E-02
 0.31530005E+02 -0.22130E-02
 0.31580004E+02 -0.20723E-02
 0.31630003E+02 -0.13493E-02
 0.31680004E+02 -0.28210E-03
 0.31730003E+02  0.68189E-03
 0.31780005E+02  0.13861E-02
 0.31830004E+02  0.19285E-02
 0.31880003E+02  0.15306E-02
 0.31930004E+02  0.15506E-03
 0.31980003E+02 -0.98315E-03
 0.32030003E+02 -0.13378E-02
 0.32080006E+02 -0.93630E-03
 0.32130005E+02 -0.34415E-03
 0.32180004E+02 -0.42380E-03
 0.32230003E+02 -0.13174E-02
 0.32280003E+02 -0.18686E-02
 0.32330006E+02 -0.14780E-02
 0.32380005E+02 -0.83139E-03
 0.32430004E+02 -0.64887E-03
 0.32480003E+02 -0.86200E-03
 0.32530003E+02 -0.43272E-03
 0.32580006E+02  0.14487E-03
 0.32630005E+02  0.33341E-03
 0.32680004E+02  0.72309E-03
 0.32730003E+02  0.11398E-02
 0.32780003E+02  0.11815E-02
 0.32830006E+02  0.51440E-03
 0.32880005E+02 -0.32813E-03
 0.32930004E+02 -0.76859E-03
 0.32980003E+02 -0.10119E-02
 0.33030003E+02 -0.12038E-02
 0.33080006E+02 -0.12107E-02
 0.33130005E+02 -0.77718E-03
 0.33180004E+02  0.25697E-03
 0.33230003E+02  0.13385E-02
 0.33280003E+02  0.16534E-02
 0.33330006E+02  0.14679E-02
 0.33380005E+02  0.11683E-02
 0.33430004E+02  0.13364E-02
 0.33480003E+02  0.15719E-02
 0.33530003E+02  0.10354E-02
 0.33580006E+02  0.66085E-03
 0.33630005E+02  0.24526E-03
 0.33680004E+02 -0.36543E-03
 0.33730003E+02 -0.62001E-03
 0.33780003E+02 -0.79113E-03
 0.33830006E+02 -0.37752E-03
 0.33880005E+02  0.28966E-03
 0.33930004E+02  0.51175E-03
 0.33980003E+02  0.68146E-03
 0.34030003E+02  0.57768E-03
 0.34080006E+02 -0.61828E-04
 0.34130005E+02 -0.33673E-03
 0.34180004E+02  0.19102E-03
 0.34230003E+02  0.72922E-03
 0.34280003E+02  0.82329E-03
 0.34330006E+02  0.64576E-03
 0.34380005E+02  0.15868E-03
 0.34430004E+02 -0.67965E-03
 0.34480003E+02 -0.11911E-02
 0.34530003E+02 -0.12253E-02
 0.34580006E+02 -0.14121E-02
 0.34630005E+02 -0.14552E-02
 0.34680004E+02 -0.11368E-02
 0.34730003E+02 -0.78533E-03
 0.34780003E+02 -0.29985E-03
 0.34830006E+02 -0.16025E-03
 0.34880005E+02 -0.40281E-03
 0.34930004E+02 -0.33250E-03
 0.34980003E+02 -0.36388E-03
 0.35030003E+02 -0.48385E-03
 0.35080006E+02 -0.38642E-03
 0.35130005E+02 -0.39307E-03
 0.35180004E+02 -0.34968E-03
 0.35230003E+02 -0.29293E-03
 0.35280003E+02 -0.27980E-03
 0.35330006E+02 -0.24440E-03
 0.35380005E+02 -0.26735E-03
 0.35430004E+02 -0.10122E-03
 0.35480003E+02  0.30836E-03
 0.35530003E+02  0.83857E-03
 0.35580006E+02  0.13847E-02
 0.35630005E+02  0.20193E-02
 0.35680004E+02  0.23922E-02
 0.35730003E+02  0.19053E-02
 0.35780003E+02  0.11306E-02
 0.35830006E+02  0.56117E-03
 0.35880005E+02  0.38163E-04
 0.35930004E+02 -0.17016E-03
 0.35980003E+02 -0.33207E-03
 0.36030003E+02 -0.91094E-03
 0.36080006E+02 -0.13131E-02
 0.36130005E+02 -0.13423E-02
 0.36180004E+02 -0.11107E-02
 0.36230003E+02 -0.44062E-03
 0.36280003E+02  0.29817E-03
 0.36330006E+02  0.75695E-03
 0.36380005E+02  0.95992E-03
 0.36430004E+02  0.11874E-02
 0.36480003E+02  0.11863E-02
 0.36530003E+02  0.64464E-03
 0.36580006E+02  0.11510E-03
 0.36630005E+02 -0.31129E-03
 0.36680004E+02 -0.71252E-03
 0.36730003E+02 -0.10580E-02
 0.36780003E+02 -0.10332E-02
 0.36830006E+02 -0.47419E-03
 0.36880005E+02 -0.17598E-03
 0.36930004E+02 -0.21604E-03
 0.36980003E+02 -0.30907E-03
 0.37030003E+02 -0.46628E-03
 0.37080006E+02 -0.54090E-03
 0.37130005E+02 -0.47353E-03
 0.37180004E+02 -0.17413E-03
 0.37230003E+02  0.37436E-03
 0.37280003E+02  0.74979E-03
 0.37330006E+02  0.51898E-03
 0.37380005E+02  0.11618E-03
 0.37430004E+02 -0.50289E-04
 0.37480003E+02 -0.30479E-03
 0.37530003E+02 -0.64471E-03
 0.37580006E+02 -0.83845E-03
 0.37630005E+02 -0.10027E-02
 0.37680004E+02 -0.12123E-02
 0.37730003E+02 -0.12405E-02
 0.37780003E+02 -0.49942E-03
 0.37830006E+02  0.75079E-03
 0.37880005E+02  0.15849E-02
 0.37930004E+02  0.20037E-02
 0.37980003E+02  0.20841E-02
 0.38030003E+02  0.18512E-02
 0.38080006E+02  0.15279E-02
 0.38130005E+02  0.11589E-02
 0.38180004E+02  0.86364E-03
 0.38230003E+02  0.51517E-03
 0.38280003E+02 -0.15200E-03
 0.38330006E+02 -0.94748E-03
 0.38380005E+02 -0.15056E-02
 0.38430004E+02 -0.16411E-02
 0.38480003E+02 -0.14010E-02
 0.38530003E+02 -0.10108E-02
 0.38580006E+02 -0.54931E-03
 0.38630005E+02 -0.75959E-04
 0.38680004E+02  0.31481E-03
 0.38730003E+02  0.59693E-03
 0.38780003E+02  0.94917E-03
 0.38830006E+02  0.12351E-02
 0.38880005E+02  0.88461E-03
 0.38930004E+02 -0.89526E-04
 0.38980003E+02 -0.11302E-02
 0.39030003E+02 -0.19173E-02
 0.39080006E+02 -0.24061E-02
 0.39130005E+02 -0.21896E-02
 0.39180004E+02 -0.14511E-02
 0.39230003E+02 -0.74018E-03
 0.39280003E+02  0.13869E-03
 0.39330006E+02  0.92938E-03
 0.39380005E+02  0.13483E-02
 0.39430004E+02  0.15792E-02
 0.39480003E+02  0.15910E-02
 0.39530003E+02  0.12761E-02
 0.39580006E+02  0.75131E-03
 0.39630005E+02  0.25475E-03
 0.39680004E+02  0.32551E-04
 0.39730003E+02  0.14467E-03
 0.39780003E+02  0.26787E-04
 0.39830006E+02 -0.30350E-03
 0.39880005E+02 -0.45675E-03
 0.39930004E+02 -0.47918E-03
 0.39980003E+02 -0.20735E-03
 0.40030003E+02  0.25194E-03
 0.40080006E+02  0.70807E-03
 0.40130005E+02  0.10214E-02
 0.40180004E+02  0.91813E-03
 0.40230003E+02  0.40541E-03
 0.40280003E+02 -0.29871E-03
 0.40330006E+02 -0.76129E-03
 0.40380005E+02 -0.61160E-03
 0.40430004E+02 -0.93891E-04
 0.40480003E+02  0.18242E-03
 0.40530003E+02  0.22176E-04
 0.40580006E+02 -0.23366E-03
 0.40630005E+02 -0.37845E-03
 0.40680004E+02 -0.43746E-03
 0.40730003E+02 -0.21408E-03
 0.40780003E+02  0.24423E-03
 0.40830006E+02  0.41109E-03
 0.40880005E+02  0.74403E-04
 0.40930004E+02 -0.51770E-03
 0.40980003E+02 -0.95513E-03
 0.41030003E+02 -0.10372E-02
 0.41080006E+02 -0.91681E-03
 0.41130005E+02 -0.73751E-03
 0.41180004E+02 -0.52621E-03
 0.41230003E+02 -0.35641E-03
 0.41280003E+02 -0.29680E-03
 0.41330006E+02 -0.12325E-03
 0.41380005E+02  0.31867E-03
 0.41430004E+02  0.79740E-03
 0.41480003E+02  0.11440E-02
 0.41530003E+02  0.13614E-02
 0.41580006E+02  0.13207E-02
 0.41630005E+02  0.94872E-03
 0.41680004E+02  0.33929E-03
 0.41730003E+02 -0.35739E-03
 0.41780003E+02 -0.61603E-03
 0.41830006E+02 -0.31856E-03
 0.41880005E+02  0.23606E-04
 0.41930004E+02  0.19113E-03
 0.41980003E+02  0.86211E-04
 0.42030003E+02 -0.15664E-03
 0.42080006E+02 -0.25317E-03
 0.42130005E+02 -0.24510E-03
 0.42180004E+02 -0.17370E-03
 0.42230003E+02 -0.33059E-04
 0.42280003E+02  0.75744E-04
 0.42330006E+02  0.22143E-03
 0.42380005E+02  0.26538E-03
 0.42430004E+02  0.15281E-03
 0.42480003E+02  0.23914E-03
 0.42530003E+02  0.31119E-03
 0.42580006E+02  0.35168E-03
 0.42630005E+02  0.49487E-03
 0.42680004E+02  0.50534E-03
 0.42730003E+02  0.50944E-03
 0.42780003E+02  0.44803E-03
 0.42830006E+02  0.23567E-03
 0.42880005E+02 -0.82221E-04
 0.42930004E+02 -0.35140E-03
 0.42980003E+02 -0.44429E-03
 0.43030003E+02 -0.55833E-03
 0.43080006E+02 -0.63048E-03
 0.43130005E+02 -0.68324E-03
 0.43180004E+02 -0.82897E-03
 0.43230003E+02 -0.10709E-02
 0.43280003E+02 -0.12778E-02
 0.43330006E+02 -0.11550E-02
 0.43380005E+02 -0.77702E-03
 0.43430004E+02 -0.35794E-03
 0.43480003E+02  0.17968E-04
 0.43530003E+02  0.35107E-03
 0.43580006E+02  0.65698E-03
 0.43630005E+02  0.85605E-03
 0.43680004E+02  0.74545E-03
 0.43730003E+02  0.34285E-03
 0.43780003E+02  0.13349E-03
 0.43830006E+02  0.23448E-03
 0.43880005E+02  0.42963E-03
 0.43930004E+02  0.84889E-03
 0.43980003E+02  0.13061E-02
 0.44030003E+02  0.12780E-02
 0.44080006E+02  0.77653E-03
 0.44130005E+02  0.27930E-03
 0.44180004E+02  0.94574E-04
 0.44230003E+02  0.12050E-05
 0.44280003E+02 -0.44907E-03
 0.44330006E+02 -0.12816E-02
 0.44380005E+02 -0.18469E-02
 0.44430004E+02 -0.17135E-02
 0.44480003E+02 -0.10497E-02
 0.44530003E+02 -0.35724E-04
 0.44580006E+02  0.81579E-03
 0.44630005E+02  0.11787E-02
 0.44680004E+02  0.12731E-02
 0.44730003E+02  0.11560E-02
 0.44780003E+02  0.92918E-03
 0.44830006E+02  0.44095E-03
 0.44880005E+02 -0.47647E-03
 0.44930004E+02 -0.12380E-02
 0.44980003E+02 -0.14198E-02
 0.45030003E+02 -0.12939E-02
 0.45080006E+02 -0.11628E-02
 0.45130005E+02 -0.10018E-02
 0.45180004E+02 -0.66556E-03
 0.45230003E+02 -0.17809E-03
 0.45280003E+02  0.28995E-03
 0.45330006E+02  0.47156E-03
 0.45380005E+02  0.38484E-03
 0.45430004E+02  0.47225E-03
 0.45480003E+02  0.72148E-03
 0.45530003E+02  0.78134E-03
 0.45580006E+02  0.61584E-03
 0.45630005E+02  0.45357E-03
 0.45680004E+02  0.41759E-03
 0.45730003E+02  0.36487E-03
 0.45780003E+02  0.30755E-03
 0.45830006E+02  0.27321E-03
 0.45880005E+02  0.24313E-03
 0.45930004E+02  0.16966E-03
 0.45980003E+02 -0.10077E-05
 0.46030003E+02 -0.12475E-03
 0.46080006E+02 -0.19042E-03
 0.46130005E+02 -0.25740E-03
 0.46180004E+02 -0.40134E-03
 0.46230003E+02 -0.62502E-03
 0.46280003E+02 -0.65715E-03
 0.46330006E+02 -0.43006E-03
 0.46380005E+02 -0.10853E-03
 0.46430004E+02  0.28934E-03
 0.46480003E+02  0.70036E-03
 0.46530003E+02  0.78090E-03
 0.46580006E+02  0.36941E-03
 0.46630005E+02 -0.20703E-03
 0.46680004E+02 -0.68659E-03
 0.46730003E+02 -0.93777E-03
 0.46780003E+02 -0.81742E-03
 0.46830006E+02 -0.44497E-03
 0.46880005E+02  0.11394E-03
 0.46930004E+02  0.75220E-03
 0.46980003E+02  0.11707E-02
 0.47030003E+02  0.12892E-02
 0.47080006E+02  0.10244E-02
 0.47130005E+02  0.39336E-03
 0.47180004E+02 -0.37409E-03
 0.47230003E+02 -0.10999E-02
 0.47280003E+02 -0.15912E-02
 0.47330006E+02 -0.16503E-02
 0.47380005E+02 -0.12449E-02
 0.47430004E+02 -0.57984E-03
 0.47480003E+02  0.17096E-03
 0.47530003E+02  0.68819E-03
 0.47580006E+02  0.73262E-03
 0.47630005E+02  0.73631E-03
 0.47680004E+02  0.85829E-03
 0.47730003E+02  0.88858E-03
 0.47780003E+02  0.78509E-03
 0.47830006E+02  0.40897E-03
 0.47880005E+02 -0.91074E-04
 0.47930004E+02 -0.31101E-03
 0.47980003E+02 -0.16246E-03
 0.48030003E+02  0.13915E-03
 0.48080006E+02  0.51999E-03
 0.48130005E+02  0.73842E-03
 0.48180004E+02  0.58522E-03
 0.48230003E+02  0.25032E-03
 0.48280003E+02 -0.69212E-04
 0.48330006E+02 -0.17933E-03
 0.48380005E+02 -0.24034E-03
 0.48430004E+02 -0.34206E-03
 0.48480003E+02 -0.56330E-03
 0.48530003E+02 -0.99917E-03
 0.48580006E+02 -0.12196E-02
 0.48630005E+02 -0.11459E-02
 0.48680004E+02 -0.97167E-03
 0.48730003E+02 -0.72775E-03
 0.48780003E+02 -0.49012E-03
 0.48830006E+02 -0.23041E-03
 0.48880005E+02  0.89158E-04
 0.48930004E+02  0.46912E-03
 0.48980003E+02  0.95298E-03
 0.49030003E+02  0.13314E-02
 0.49080006E+02  0.14394E-02
 0.49130005E+02  0.14387E-02
 0.49180004E+02  0.14519E-02
 0.49230003E+02  0.14359E-02
 0.49280003E+02  0.10475E-02
 0.49330006E+02  0.12395E-03
 0.49380005E+02 -0.94230E-03
 0.49430004E+02 -0.17158E-02
 0.49480003E+02 -0.21583E-02
 0.49530003E+02 -0.21679E-02
 0.49580006E+02 -0.15884E-02
 0.49630005E+02 -0.81354E-03
 0.49680004E+02 -0.15291E-03
 0.49730003E+02  0.33550E-03
 0.49780003E+02  0.66178E-03
 0.49830006E+02  0.91829E-03
 0.49880005E+02  0.10186E-02
 0.49930004E+02  0.87214E-03
 0.49980003E+02  0.56145E-03
 0.50030003E+02  0.20181E-03
 0.50080006E+02 -0.10994E-03
 0.50130005E+02 -0.33443E-03
 0.50180004E+02 -0.46427E-03
 0.50230003E+02 -0.40302E-03
 0.50280003E+02 -0.26151E-03
 0.50330006E+02 -0.12100E-03
 0.50380005E+02  0.98923E-04
 0.50430004E+02  0.24806E-03
 0.50480003E+02  0.14928E-03
 0.50530003E+02 -0.12333E-03
 0.50580006E+02 -0.22826E-03
 0.50630005E+02 -0.71122E-04
 0.50680004E+02  0.16808E-03
 0.50730003E+02  0.32719E-03
 0.50780003E+02  0.25700E-03
 0.50830006E+02  0.79767E-04
 0.50880005E+02 -0.14629E-03
 0.50930004E+02 -0.36285E-03
 0.50980003E+02 -0.40402E-03
 0.51030003E+02 -0.28372E-03
 0.51080006E+02 -0.51283E-04
 0.51130005E+02  0.21850E-03
 0.51180004E+02  0.45133E-03
 0.51230003E+02  0.49765E-03
 0.51280003E+02  0.38972E-03
 0.51330006E+02  0.31353E-03
 0.51380005E+02  0.23096E-03
 0.51430004E+02  0.51908E-05
 0.51480003E+02 -0.25776E-03
 0.51530003E+02 -0.29557E-03
 0.51580006E+02 -0.23768E-03
 0.51630005E+02 -0.13188E-03
 0.51680004E+02  0.72394E-04
 0.51730003E+02  0.17741E-03
 0.51780003E+02  0.29902E-03
 0.51830006E+02  0.40869E-03
 0.51880005E+02  0.33840E-03
 0.51930004E+02  0.22360E-03
 0.51980003E+02  0.33800E-04
 0.52030003E+02 -0.21555E-03
 0.52080006E+02 -0.48735E-03
 0.52130005E+02 -0.76101E-03
 0.52180004E+02 -0.81404E-03
 0.52230003E+02 -0.68243E-03
 0.52280003E+02 -0.46740E-03
 0.52330006E+02 -0.22696E-03
 0.52380005E+02 -0.60028E-04
 0.52430004E+02  0.13042E-03
 0.52480003E+02  0.28229E-03
 0.52530003E+02  0.41780E-03
 0.52580006E+02  0.62578E-03
 0.52630005E+02  0.70321E-03
 0.52680004E+02  0.63101E-03
 0.52730003E+02  0.38697E-03
 0.52780003E+02  0.35895E-04
 0.52830006E+02 -0.19536E-03
 0.52880005E+02 -0.35191E-03
 0.52930004E+02 -0.40796E-03
 0.52980003E+02 -0.31338E-03
 0.53030003E+02 -0.16036E-03
 0.53080006E+02 -0.27982E-04
 0.53130005E+02  0.73073E-04
 0.53180004E+02  0.29003E-03
 0.53230003E+02  0.56465E-03
 0.53280003E+02  0.73185E-03
 0.53330006E+02  0.75040E-03
 0.53380005E+02  0.61205E-03
 0.53430004E+02  0.41929E-03
 0.53480003E+02  0.16481E-03
 0.53530003E+02 -0.13682E-03
 0.53580006E+02 -0.47558E-03
 0.53630005E+02 -0.74173E-03
 0.53680004E+02 -0.72594E-03
 0.53730003E+02 -0.59061E-03
 0.53780003E+02 -0.45500E-03
 0.53830006E+02 -0.26351E-03
 0.53880005E+02 -0.11198E-03
 0.53930004E+02 -0.83197E-04
 0.53980003E+02 -0.98265E-04
 0.54030003E+02 -0.16084E-03
 0.54080006E+02 -0.23134E-03
 0.54130005E+02 -0.14694E-03
 0.54180004E+02 -0.20752E-04
 0.54230003E+02  0.91702E-04
 0.54280003E+02  0.29729E-03
 0.54330006E+02  0.49904E-03
 0.54380005E+02  0.54205E-03
 0.54430004E+02  0.35667E-03
 0.54480003E+02  0.73176E-04
 0.54530003E+02 -0.12619E-03
 0.54580006E+02 -0.26614E-03
 0.54630005E+02 -0.42139E-03
 0.54680004E+02 -0.55842E-03
 0.54730003E+02 -0.58822E-03
 0.54780003E+02 -0.51057E-03
 0.54830006E+02 -0.30621E-03
 0.54880005E+02  0.43796E-04
 0.54930004E+02  0.42219E-03
 0.54980003E+02  0.70155E-03
 0.55030003E+02  0.67902E-03
 0.55080006E+02  0.37167E-03
 0.55130005E+02  0.74645E-04
 0.55180004E+02 -0.17585E-03
 0.55230003E+02 -0.37263E-03
 0.55280003E+02 -0.43743E-03
 0.55330006E+02 -0.49069E-03
 0.55380005E+02 -0.64028E-03
 0.55430004E+02 -0.67562E-03
 0.55480003E+02 -0.35287E-03
 0.55530003E+02  0.11140E-03
 0.55580006E+02  0.46154E-03
 0.55630005E+02  0.64362E-03
 0.55680004E+02  0.65346E-03
 0.55730003E+02  0.59901E-03
 0.55780003E+02  0.51156E-03
 0.55830006E+02  0.39993E-03
 0.55880005E+02  0.20689E-03
 0.55930004E+02 -0.14340E-03
 0.55980003E+02 -0.46575E-03
 0.56030003E+02 -0.62342E-03
 0.56080006E+02 -0.54749E-03
 0.56130005E+02 -0.23591E-03
 0.56180004E+02  0.12758E-03
 0.56230003E+02  0.42530E-03
 0.56280003E+02  0.57419E-03
 0.56330006E+02  0.60215E-03
 0.56380005E+02  0.56653E-03
 0.56430004E+02  0.40332E-03
 0.56480003E+02  0.15767E-03
 0.56530003E+02 -0.43082E-04
 0.56580006E+02 -0.11989E-03
 0.56630005E+02 -0.63844E-04
 0.56680004E+02  0.78500E-04
 0.56730003E+02  0.25256E-03
 0.56780003E+02  0.38355E-03
 0.56830006E+02  0.34217E-03
 0.56880005E+02  0.12232E-03
 0.56930004E+02 -0.14720E-03
 0.56980003E+02 -0.33671E-03
 0.57030003E+02 -0.33992E-03
 0.57080006E+02 -0.32224E-03
 0.57130005E+02 -0.36327E-03
 0.57180004E+02 -0.27216E-03
 0.57230003E+02 -0.97616E-04
 0.57280003E+02 -0.12269E-05
 0.57330006E+02 -0.41198E-04
 0.57380005E+02 -0.13588E-03
 0.57430004E+02 -0.22236E-03
 0.57480003E+02 -0.31895E-03
 0.57530003E+02 -0.34571E-03
 0.57580006E+02 -0.35124E-03
 0.57630005E+02 -0.37690E-03
 0.57680004E+02 -0.32475E-03
 0.57730003E+02 -0.18900E-03
 0.57780003E+02  0.56065E-04
 0.57830006E+02  0.32918E-03
 0.57880005E+02  0.46502E-03
 0.57930004E+02  0.45398E-03
 0.57980003E+02  0.29538E-03
 0.58030003E+02  0.61903E-04
 0.58080006E+02 -0.13118E-03
 0.58130005E+02 -0.20882E-03
 0.58180004E+02 -0.15284E-03
 0.58230003E+02 -0.10321E-03
 0.58280003E+02 -0.89658E-04
 0.58330006E+02  0.17336E-04
 0.58380005E+02  0.19923E-03
 0.58430004E+02  0.30880E-03
 0.58480003E+02  0.25803E-03
 0.58530003E+02  0.74939E-04
 0.58580006E+02 -0.73891E-04
 0.58630005E+02 -0.92461E-04
 0.58680004E+02  0.49112E-05
 0.58730003E+02  0.21269E-03
 0.58780003E+02  0.37520E-03
 0.58830006E+02  0.31992E-03
 0.58880005E+02  0.12651E-03
 0.58930004E+02 -0.51058E-05
 0.58980003E+02 -0.67246E-04
 0.59030003E+02 -0.82208E-04
 0.59080006E+02  0.43080E-05
 0.59130005E+02  0.76907E-04
 0.59180004E+02  0.54035E-04
 0.59230003E+02 -0.45264E-04
 0.59280003E+02 -0.19719E-03
 0.59330006E+02 -0.32723E-03
 0.59380005E+02 -0.39509E-03
 0.59430004E+02 -0.40606E-03
 0.59480003E+02 -0.39593E-03
 0.59530003E+02 -0.36148E-03
 0.59580006E+02 -0.27088E-03
 0.59630005E+02 -0.69578E-04
 0.59680004E+02  0.22543E-03
 0.59730003E+02  0.48253E-03
 0.59780003E+02  0.62312E-03
 0.59830006E+02  0.54961E-03
 0.59880005E+02  0.34535E-03
 0.59930004E+02  0.13487E-03
 0.59980003E+02 -0.12255E-03
 0.60030003E+02 -0.34385E-03
 0.60080006E+02 -0.43776E-03
 0.60130005E+02 -0.35135E-03
 0.60180004E+02 -0.19948E-03
 0.60230003E+02 -0.11863E-03
 0.60280003E+02 -0.55197E-04
 0.60330006E+02 -0.15626E-04
 0.60380005E+02 -0.21831E-04
 0.60430004E+02 -0.35157E-04
 0.60480003E+02 -0.52148E-05
 0.60530003E+02 -0.15649E-05
 0.60580006E+02 -0.58155E-04
 0.60630005E+02 -0.11597E-03
 0.60680004E+02 -0.17598E-03
 0.60730003E+02 -0.18137E-03
 0.60780003E+02 -0.13846E-03
 0.60830006E+02 -0.64870E-04
 0.60880005E+02  0.12688E-03
 0.60930004E+02  0.33258E-03
 0.60980003E+02  0.35323E-03
 0.61030003E+02  0.20595E-03
 0.61080006E+02  0.20390E-04
 0.61130005E+02 -0.10806E-03
 0.61180004E+02 -0.18432E-03
 0.61230003E+02 -0.25623E-03
 0.61280003E+02 -0.27375E-03
 0.61330006E+02 -0.20807E-03
 0.61380005E+02 -0.10006E-03
 0.61430004E+02  0.56967E-04
 0.61480003E+02  0.27497E-03
 0.61530003E+02  0.52979E-03
 0.61580006E+02  0.71139E-03
 0.61630005E+02  0.75902E-03
 0.61680004E+02  0.71812E-03
 0.61730003E+02  0.58217E-03
 0.61780003E+02  0.40084E-03
 0.61830006E+02  0.17293E-03
 0.61880005E+02 -0.15247E-03
 0.61930004E+02 -0.41878E-03
 0.61980003E+02 -0.48671E-03
 0.62030003E+02 -0.38746E-03
 0.62080006E+02 -0.21129E-03
 0.62130005E+02 -0.91942E-04
 0.62180004E+02 -0.83394E-04
 0.62230003E+02 -0.11570E-03
 0.62280003E+02 -0.10169E-03
 0.62330006E+02  0.54460E-05
 0.62380005E+02  0.17010E-03
 0.62430004E+02  0.26858E-03
 0.62480003E+02  0.21691E-03
 0.62530003E+02  0.47348E-04
 0.62580006E+02 -0.18101E-03
 0.62630005E+02 -0.38022E-03
 0.62680004E+02 -0.42967E-03
 0.62730003E+02 -0.29742E-03
 0.62780003E+02 -0.10732E-03
 0.62830006E+02 -0.58417E-05
 0.62880005E+02 -0.41998E-04
 0.62930004E+02 -0.12309E-03
 0.62980003E+02 -0.16550E-03
 0.63030003E+02 -0.19751E-03
 0.63080006E+02 -0.18418E-03
 0.63130005E+02 -0.12013E-03
 0.63180004E+02 -0.60183E-04
 0.63230003E+02 -0.56221E-04
 0.63280003E+02 -0.82208E-04
 0.63330006E+02 -0.41472E-04
 0.63380005E+02 -0.11792E-04
 0.63430004E+02 -0.26959E-04
 0.63480003E+02 -0.49831E-05
 0.63530003E+02  0.41622E-04
 0.63580006E+02  0.12399E-03
 0.63630005E+02  0.21497E-03
 0.63680004E+02  0.24381E-03
 0.63730003E+02  0.25699E-03
 0.63780003E+02  0.26994E-03
 0.63830006E+02  0.22436E-03
 0.63880005E+02  0.15805E-03
 0.63930004E+02  0.92994E-04
 0.63980003E+02 -0.14593E-04
 0.64030006E+02 -0.97581E-04
 0.64080002E+02 -0.98820E-04
 0.64130005E+02 -0.30717E-04
 0.64180008E+02  0.10694E-03
 0.64230003E+02  0.26603E-03
 0.64280006E+02  0.40594E-03
 0.64330002E+02  0.45386E-03
 0.64380005E+02  0.35909E-03
 0.64430008E+02  0.18384E-03
 0.64480003E+02 -0.62336E-04
 0.64530006E+02 -0.33936E-03
 0.64580002E+02 -0.50854E-03
 0.64630005E+02 -0.50247E-03
 0.64680008E+02 -0.39795E-03
 0.64730003E+02 -0.30893E-03
 0.64780006E+02 -0.27079E-03
 0.64830002E+02 -0.28406E-03
 0.64880005E+02 -0.29793E-03
 0.64930008E+02 -0.25197E-03
 0.64980003E+02 -0.18146E-03
 0.65030006E+02 -0.13091E-03
 0.65080002E+02 -0.11228E-03
 0.65130005E+02 -0.84363E-04
 0.65180008E+02  0.22480E-05
 0.65230003E+02  0.12389E-03
 0.65280006E+02  0.21750E-03
 0.65330002E+02  0.21096E-03
 0.65380005E+02  0.19226E-03
 0.65430008E+02  0.27027E-03
 0.65480003E+02  0.38445E-03
 0.65530006E+02  0.47794E-03
 0.65580002E+02  0.52362E-03
 0.65630005E+02  0.50266E-03
 0.65680008E+02  0.38769E-03
 0.65730003E+02  0.19118E-03
 0.65780006E+02  0.10605E-04
 0.65830002E+02 -0.10039E-03
 0.65880005E+02 -0.16948E-03
 0.65930008E+02 -0.19799E-03
 0.65980003E+02 -0.19210E-03
 0.66030006E+02 -0.18047E-03
 0.66080002E+02 -0.13836E-03
 0.66130005E+02 -0.69956E-04
 0.66180008E+02 -0.14894E-04
 0.66230003E+02 -0.29526E-05
 0.66280006E+02 -0.17948E-04
 0.66330002E+02 -0.11695E-04
 0.66380005E+02  0.15040E-04
 0.66430008E+02  0.47107E-04
 0.66480003E+02  0.43552E-04
 0.66530006E+02 -0.28239E-04
 0.66580002E+02 -0.15154E-03
 0.66630005E+02 -0.32368E-03
 0.66680008E+02 -0.48031E-03
 0.66730003E+02 -0.51208E-03
 0.66780006E+02 -0.42306E-03
 0.66830002E+02 -0.29704E-03
 0.66880005E+02 -0.17754E-03
 0.66930008E+02 -0.53315E-04
 0.66980003E+02  0.79279E-04
 0.67030006E+02  0.20589E-03
 0.67080002E+02  0.29712E-03
 0.67130005E+02  0.33673E-03
 0.67180008E+02  0.33372E-03
 0.67230003E+02  0.29619E-03
 0.67280006E+02  0.25358E-03
 0.67330002E+02  0.19035E-03
 0.67380005E+02  0.10434E-03
 0.67430008E+02  0.26539E-04
 0.67480003E+02 -0.29334E-04
 0.67530006E+02 -0.26181E-06
 0.67580002E+02  0.76792E-04
 0.67630005E+02  0.13660E-03
 0.67680008E+02  0.18641E-03
 0.67730003E+02  0.17517E-03
 0.67780006E+02  0.14282E-03
 0.67830002E+02  0.13595E-03
 0.67880005E+02  0.84389E-04
 0.67930008E+02 -0.77659E-05
 0.67980003E+02 -0.14219E-03
 0.68030006E+02 -0.32522E-03
 0.68080002E+02 -0.44945E-03
 0.68130005E+02 -0.46500E-03
 0.68180008E+02 -0.40740E-03
 0.68230003E+02 -0.27278E-03
 0.68280006E+02 -0.77869E-04
 0.68330002E+02  0.10255E-03
 0.68380005E+02  0.21443E-03
 0.68430008E+02  0.25874E-03
 0.68480003E+02  0.22329E-03
 0.68530006E+02  0.99227E-04
 0.68580002E+02 -0.38208E-04
 0.68630005E+02 -0.15844E-03
 0.68680008E+02 -0.25608E-03
 0.68730003E+02 -0.31083E-03
 0.68780006E+02 -0.34625E-03
 0.68830002E+02 -0.30182E-03
 0.68880005E+02 -0.14780E-03
 0.68930008E+02  0.53663E-04
 0.68980003E+02  0.24124E-03
 0.69030006E+02  0.35998E-03
 0.69080002E+02  0.39514E-03
 0.69130005E+02  0.33022E-03
 0.69180008E+02  0.20995E-03
 0.69230003E+02  0.99219E-04
 0.69280006E+02  0.10823E-04
 0.69330002E+02 -0.44591E-04
 0.69380005E+02 -0.66989E-04
 0.69430008E+02 -0.82294E-04
 0.69480003E+02 -0.17038E-03
 0.69530006E+02 -0.34402E-03
 0.69580002E+02 -0.50108E-03
 0.69630005E+02 -0.52141E-03
 0.69680008E+02 -0.33292E-03
 0.69730003E+02 -0.24789E-04
 0.69780006E+02  0.24536E-03
 0.69830002E+02  0.44550E-03
 0.69880005E+02  0.58944E-03
 0.69930008E+02  0.64812E-03
 0.69980003E+02  0.62748E-03
 0.70030006E+02  0.51888E-03
 0.70080002E+02  0.32456E-03
 0.70130005E+02  0.11919E-03
 0.70180008E+02 -0.86656E-04
 0.70230003E+02 -0.23158E-03
 0.70280006E+02 -0.20617E-03
 0.70330002E+02 -0.48467E-04
 0.70380005E+02  0.15337E-03
 0.70430008E+02  0.30282E-03
 0.70480003E+02  0.33309E-03
 0.70530006E+02  0.24702E-03
 0.70580002E+02  0.82120E-04
 0.70630005E+02 -0.82490E-04
 0.70680008E+02 -0.18948E-03
 0.70730003E+02 -0.25013E-03
 0.70780006E+02 -0.33324E-03
 0.70830002E+02 -0.41521E-03
 0.70880005E+02 -0.39671E-03
 0.70930008E+02 -0.28191E-03
 0.70980003E+02 -0.11020E-03
 0.71030006E+02  0.65600E-04
 0.71080002E+02  0.17250E-03
 0.71130005E+02  0.19120E-03
 0.71180008E+02  0.16226E-03
 0.71230003E+02  0.10982E-03
 0.71280006E+02  0.35082E-04
 0.71330002E+02 -0.32088E-04
 0.71380005E+02 -0.98085E-04
 0.71430008E+02 -0.17943E-03
 0.71480003E+02 -0.21567E-03
 0.71530006E+02 -0.16278E-03
 0.71580002E+02 -0.99127E-04
 0.71630005E+02 -0.92391E-04
 0.71680008E+02 -0.16239E-03
 0.71730003E+02 -0.29917E-03
 0.71780006E+02 -0.35980E-03
 0.71830002E+02 -0.25740E-03
 0.71880005E+02 -0.88391E-04
 0.71930008E+02 -0.27799E-05
 0.71980003E+02 -0.56079E-04
 0.72030006E+02 -0.12221E-03
 0.72080002E+02 -0.13834E-03
 0.72130005E+02 -0.14639E-03
 0.72180008E+02 -0.88945E-04
 0.72230003E+02  0.44001E-04
 0.72280006E+02  0.19189E-03
 0.72330002E+02  0.32561E-03
 0.72380005E+02  0.40406E-03
 0.72430008E+02  0.42857E-03
 0.72480003E+02  0.43250E-03
 0.72530006E+02  0.38041E-03
 0.72580002E+02  0.26357E-03
 0.72630005E+02  0.15907E-03
 0.72680008E+02  0.72210E-04
 0.72730003E+02 -0.26545E-04
 0.72780006E+02 -0.11960E-03
 0.72830002E+02 -0.19144E-03
 0.72880005E+02 -0.20259E-03
 0.72930008E+02 -0.15530E-03
 0.72980003E+02 -0.11537E-03
 0.73030006E+02 -0.10747E-03
 0.73080002E+02 -0.88243E-04
 0.73130005E+02 -0.33078E-04
 0.73180008E+02  0.12742E-04
 0.73230003E+02  0.48962E-04
 0.73280006E+02  0.38798E-04
 0.73330002E+02 -0.87040E-04
 0.73380005E+02 -0.23123E-03
 0.73430008E+02 -0.30917E-03
 0.73480003E+02 -0.32765E-03
 0.73530006E+02 -0.29732E-03
 0.73580002E+02 -0.24692E-03
 0.73630005E+02 -0.15485E-03
 0.73680008E+02 -0.26356E-04
 0.73730003E+02  0.93884E-04
 0.73780006E+02  0.22343E-03
 0.73830002E+02  0.33095E-03
 0.73880005E+02  0.35485E-03
 0.73930008E+02  0.29193E-03
 0.73980003E+02  0.14079E-03
 0.74030006E+02 -0.67248E-04
 0.74080002E+02 -0.25157E-03
 0.74130005E+02 -0.32005E-03
 0.74180008E+02 -0.25217E-03
 0.74230003E+02 -0.11907E-03
 0.74280006E+02  0.44306E-04
 0.74330002E+02  0.24286E-03
 0.74380005E+02  0.44699E-03
 0.74430008E+02  0.60810E-03
 0.74480003E+02  0.66630E-03
 0.74530006E+02  0.57907E-03
 0.74580002E+02  0.38152E-03
 0.74630005E+02  0.12654E-03
 0.74680008E+02 -0.98457E-04
 0.74730003E+02 -0.18220E-03
 0.74780006E+02 -0.12799E-03
 0.74830002E+02  0.16415E-04
 0.74880005E+02  0.20519E-03
 0.74930008E+02  0.36382E-03
 0.74980003E+02  0.40583E-03
 0.75030006E+02  0.25340E-03
 0.75080002E+02 -0.47225E-04
 0.75130005E+02 -0.35352E-03
 0.75180008E+02 -0.54615E-03
 0.75230003E+02 -0.57152E-03
 0.75280006E+02 -0.46179E-03
 0.75330002E+02 -0.30379E-03
 0.75380005E+02 -0.19229E-03
 0.75430008E+02 -0.15282E-03
 0.75480003E+02 -0.19485E-03
 0.75530006E+02 -0.32490E-03
 0.75580002E+02 -0.45985E-03
 0.75630005E+02 -0.51551E-03
 0.75680008E+02 -0.45421E-03
 0.75730003E+02 -0.27492E-03
 0.75780006E+02 -0.24878E-04
 0.75830002E+02  0.23230E-03
 0.75880005E+02  0.44951E-03
 0.75930008E+02  0.58403E-03
 0.75980003E+02  0.60503E-03
 0.76030006E+02  0.53687E-03
 0.76080002E+02  0.42353E-03
 0.76130005E+02  0.28699E-03
 0.76180008E+02  0.12873E-03
 0.76230003E+02 -0.52009E-04
 0.76280006E+02 -0.26638E-03
 0.76330002E+02 -0.48541E-03
 0.76380005E+02 -0.60658E-03
 0.76430008E+02 -0.57128E-03
 0.76480003E+02 -0.39047E-03
 0.76530006E+02 -0.14414E-03
 0.76580002E+02  0.72887E-04
 0.76630005E+02  0.24518E-03
 0.76680008E+02  0.36958E-03
 0.76730003E+02  0.44517E-03
 0.76780006E+02  0.47619E-03
 0.76830002E+02  0.43072E-03
 0.76880005E+02  0.26769E-03
 0.76930008E+02  0.16726E-04
 0.76980003E+02 -0.21574E-03
 0.77030006E+02 -0.34465E-03
 0.77080002E+02 -0.34638E-03
 0.77130005E+02 -0.24702E-03
 0.77180008E+02 -0.86159E-04
 0.77230003E+02  0.63213E-04
 0.77280006E+02  0.14711E-03
 0.77330002E+02  0.17688E-03
 0.77380005E+02  0.15968E-03
 0.77430008E+02  0.12176E-03
 0.77480003E+02  0.83921E-04
 0.77530006E+02  0.61663E-04
 0.77580002E+02  0.40718E-04
 0.77630005E+02 -0.28121E-04
 0.77680008E+02 -0.13248E-03
 0.77730003E+02 -0.22825E-03
 0.77780006E+02 -0.29185E-03
 0.77830002E+02 -0.35040E-03
 0.77880005E+02 -0.40442E-03
 0.77930008E+02 -0.40951E-03
 0.77980003E+02 -0.33286E-03
 0.78030006E+02 -0.14771E-03
 0.78080002E+02  0.90862E-04
 0.78130005E+02  0.29027E-03
 0.78180008E+02  0.39747E-03
 0.78230003E+02  0.41805E-03
 0.78280006E+02  0.40874E-03
 0.78330002E+02  0.38935E-03
 0.78380005E+02  0.36204E-03
 0.78430008E+02  0.31032E-03
 0.78480003E+02  0.22351E-03
 0.78530006E+02  0.15109E-03
 0.78580002E+02  0.10837E-03
 0.78630005E+02  0.10282E-03
 0.78680008E+02  0.13509E-03
 0.78730003E+02  0.14933E-03
 0.78780006E+02  0.11416E-03
 0.78830002E+02  0.18531E-04
 0.78880005E+02 -0.12281E-03
 0.78930008E+02 -0.25662E-03
 0.78980003E+02 -0.33443E-03
 0.79030006E+02 -0.33557E-03
 0.79080002E+02 -0.29260E-03
 0.79130005E+02 -0.26009E-03
 0.79180008E+02 -0.24028E-03
 0.79230003E+02 -0.21872E-03
 0.79280006E+02 -0.20889E-03
 0.79330002E+02 -0.20036E-03
 0.79380005E+02 -0.18514E-03
 0.79430008E+02 -0.17594E-03
 0.79480003E+02 -0.16469E-03
 0.79530006E+02 -0.14027E-03
 0.79580002E+02 -0.11485E-03
 0.79630005E+02 -0.58227E-04
 0.79680008E+02  0.70469E-04
 0.79730003E+02  0.23975E-03
 0.79780006E+02  0.41796E-03
 0.79830002E+02  0.56075E-03
 0.79880005E+02  0.60762E-03
 0.79930008E+02  0.51759E-03
 0.79980003E+02  0.30851E-03
 0.80030006E+02  0.10313E-03
 0.80080002E+02 -0.44104E-04
 0.80130005E+02 -0.14683E-03
 0.80180008E+02 -0.19929E-03
 0.80230003E+02 -0.21769E-03
 0.80280006E+02 -0.20517E-03
 0.80330002E+02 -0.19021E-03
 0.80380005E+02 -0.16441E-03
 0.80430008E+02 -0.10547E-03
 0.80480003E+02 -0.75473E-04
 0.80530006E+02 -0.12442E-03
 0.80580002E+02 -0.21263E-03
 0.80630005E+02 -0.27384E-03
 0.80680008E+02 -0.26104E-03
 0.80730003E+02 -0.13389E-03
 0.80780006E+02  0.22596E-04
 0.80830002E+02  0.11300E-03
 0.80880005E+02  0.13067E-03
 0.80930008E+02  0.93037E-04
 0.80980003E+02  0.71368E-04
 0.81030006E+02  0.73985E-04
 0.81080002E+02  0.67609E-04
 0.81130005E+02  0.53092E-04
 0.81180008E+02  0.48826E-04
 0.81230003E+02  0.88945E-04
 0.81280006E+02  0.17062E-03
 0.81330002E+02  0.26020E-03
 0.81380005E+02  0.32805E-03
 0.81430008E+02  0.36949E-03
 0.81480003E+02  0.36875E-03
 0.81530006E+02  0.30084E-03
 0.81580002E+02  0.17839E-03
 0.81630005E+02  0.30759E-04
 0.81680008E+02 -0.10593E-03
 0.81730003E+02 -0.21017E-03
 0.81780006E+02 -0.27913E-03
 0.81830002E+02 -0.30555E-03
 0.81880005E+02 -0.28316E-03
 0.81930008E+02 -0.21697E-03
 0.81980003E+02 -0.11605E-03
 0.82030006E+02 -0.12494E-04
 0.82080002E+02  0.46351E-04
 0.82130005E+02  0.30693E-04
 0.82180008E+02 -0.72433E-04
 0.82230003E+02 -0.21003E-03
 0.82280006E+02 -0.31478E-03
 0.82330002E+02 -0.34597E-03
 0.82380005E+02 -0.26301E-03
 0.82430008E+02 -0.12207E-03
 0.82480003E+02 -0.23155E-04
 0.82530006E+02  0.11945E-04
 0.82580002E+02  0.72035E-05
 0.82630005E+02 -0.20371E-04
 0.82680008E+02 -0.58411E-04
 0.82730003E+02 -0.90024E-04
 0.82780006E+02 -0.11580E-03
 0.82830002E+02 -0.13102E-03
 0.82880005E+02 -0.11662E-03
 0.82930008E+02 -0.66537E-04
 0.82980003E+02  0.47189E-05
 0.83030006E+02  0.90522E-04
 0.83080002E+02  0.17315E-03
 0.83130005E+02  0.21035E-03
 0.83180008E+02  0.19605E-03
 0.83230003E+02  0.15379E-03
 0.83280006E+02  0.13642E-03
 0.83330002E+02  0.15912E-03
 0.83380005E+02  0.16421E-03
 0.83430008E+02  0.15597E-03
 0.83480003E+02  0.16513E-03
 0.83530006E+02  0.18917E-03
 0.83580002E+02  0.23786E-03
 0.83630005E+02  0.30474E-03
 0.83680008E+02  0.35643E-03
 0.83730003E+02  0.34009E-03
 0.83780006E+02  0.24600E-03
 0.83830002E+02  0.14498E-03
 0.83880005E+02  0.74314E-04
 0.83930008E+02 -0.20423E-05
 0.83980003E+02 -0.93160E-04
 0.84030006E+02 -0.16912E-03
 0.84080002E+02 -0.22177E-03
 0.84130005E+02 -0.25845E-03
 0.84180008E+02 -0.27034E-03
 0.84230003E+02 -0.23538E-03
 0.84280006E+02 -0.16798E-03
 0.84330002E+02 -0.10715E-03
 0.84380005E+02 -0.45428E-04
 0.84430008E+02  0.29923E-04
 0.84480003E+02  0.91620E-04
 0.84530006E+02  0.11251E-03
 0.84580002E+02  0.95524E-04
 0.84630005E+02  0.72967E-04
 0.84680008E+02  0.28024E-04
 0.84730003E+02 -0.69101E-04
 0.84780006E+02 -0.16458E-03
 0.84830002E+02 -0.22502E-03
 0.84880005E+02 -0.25928E-03
 0.84930008E+02 -0.25670E-03
 0.84980003E+02 -0.20592E-03
 0.85030006E+02 -0.12522E-03
 0.85080002E+02 -0.58037E-04
 0.85130005E+02 -0.24304E-04
 0.85180008E+02 -0.22065E-04
 0.85230003E+02 -0.27868E-04
 0.85280006E+02 -0.29603E-04
 0.85330002E+02 -0.30792E-04
 0.85380005E+02 -0.17906E-04
 0.85430008E+02 -0.12572E-04
 0.85480003E+02 -0.18305E-04
 0.85530006E+02  0.11427E-04
 0.85580002E+02  0.75921E-04
 0.85630005E+02  0.14667E-03
 0.85680008E+02  0.20790E-03
 0.85730003E+02  0.23571E-03
 0.85780006E+02  0.19883E-03
 0.85830002E+02  0.97198E-04
 0.85880005E+02 -0.14374E-04
 0.85930008E+02 -0.85054E-04
 0.85980003E+02 -0.83782E-04
 0.86030006E+02 -0.10112E-04
 0.86080002E+02  0.96663E-04
 0.86130005E+02  0.18841E-03
 0.86180008E+02  0.22620E-03
 0.86230003E+02  0.20700E-03
 0.86280006E+02  0.12029E-03
 0.86330002E+02 -0.14153E-04
 0.86380005E+02 -0.14414E-03
 0.86430008E+02 -0.26041E-03
 0.86480003E+02 -0.32364E-03
 0.86530006E+02 -0.30738E-03
 0.86580002E+02 -0.23731E-03
 0.86630005E+02 -0.13814E-03
 0.86680008E+02 -0.32860E-04
 0.86730003E+02  0.56471E-04
 0.86780006E+02  0.88051E-04
 0.86830002E+02  0.67487E-04
 0.86880005E+02  0.48586E-04
 0.86930008E+02  0.56191E-04
 0.86980003E+02  0.90395E-04
 0.87030006E+02  0.10481E-03
 0.87080002E+02  0.89061E-04
 0.87130005E+02  0.67671E-04
 0.87180008E+02  0.31388E-04
 0.87230003E+02  0.17946E-04
 0.87280006E+02  0.79191E-05
 0.87330002E+02 -0.48399E-04
 0.87380005E+02 -0.13095E-03
 0.87430008E+02 -0.20274E-03
 0.87480003E+02 -0.21382E-03
 0.87530006E+02 -0.16589E-03
 0.87580002E+02 -0.66234E-04
 0.87630005E+02  0.73126E-04
 0.87680008E+02  0.20979E-03
 0.87730003E+02  0.31480E-03
 0.87780006E+02  0.36925E-03
 0.87830002E+02  0.39162E-03
 0.87880005E+02  0.33671E-03
 0.87930008E+02  0.17295E-03
 0.87980003E+02 -0.20832E-04
 0.88030006E+02 -0.19838E-03
 0.88080002E+02 -0.29296E-03
 0.88130005E+02 -0.27291E-03
 0.88180008E+02 -0.18740E-03
 0.88230003E+02 -0.65746E-04
 0.88280006E+02  0.33825E-04
 0.88330002E+02  0.73951E-04
 0.88380005E+02  0.67105E-04
 0.88430008E+02  0.23178E-04
 0.88480003E+02 -0.34171E-04
 0.88530006E+02 -0.88336E-04
 0.88580002E+02 -0.13477E-03
 0.88630005E+02 -0.12966E-03
 0.88680008E+02 -0.63454E-04
 0.88730003E+02  0.79318E-05
 0.88780006E+02  0.58966E-04
 0.88830002E+02  0.83406E-04
 0.88880005E+02  0.84384E-04
 0.88930008E+02  0.72805E-04
 0.88980003E+02  0.48958E-04
 0.89030006E+02  0.21759E-04
 0.89080002E+02  0.42488E-05
 0.89130005E+02  0.11724E-04
 0.89180008E+02  0.28122E-04
 0.89230003E+02  0.20452E-04
 0.89280006E+02 -0.13679E-04
 0.89330002E+02 -0.90592E-04
 0.89380005E+02 -0.18311E-03
 0.89430008E+02 -0.21841E-03
 0.89480003E+02 -0.21482E-03
 0.89530006E+02 -0.19696E-03
 0.89580002E+02 -0.15152E-03
 0.89630005E+02 -0.84482E-04
 0.89680008E+02  0.27634E-05
 0.89730003E+02  0.95883E-04
 0.89780006E+02  0.18775E-03
 0.89830002E+02  0.24858E-03
 0.89880005E+02  0.24817E-03
 0.89930008E+02  0.20906E-03
 0.89980003E+02  0.13616E-03
 0.90030006E+02  0.48135E-04
 0.90080002E+02 -0.22184E-05
 0.90130005E+02 -0.10515E-04
 0.90180008E+02 -0.82785E-05
 0.90230003E+02 -0.10132E-05
 0.90280006E+02  0.19088E-05
 0.90330002E+02 -0.17541E-04
 0.90380005E+02 -0.37300E-04
 0.90430008E+02 -0.42028E-04
 0.90480003E+02 -0.50157E-04
 0.90530006E+02 -0.58025E-04
 0.90580002E+02 -0.41677E-04
 0.90630005E+02  0.40284E-05
 0.90680008E+02  0.58740E-04
 0.90730003E+02  0.99620E-04
 0.90780006E+02  0.11436E-03
 0.90830002E+02  0.99172E-04
 0.90880005E+02  0.72342E-04
 0.90930008E+02  0.44615E-04
 0.90980003E+02  0.15273E-05
 0.91030006E+02 -0.67254E-04
 0.91080002E+02 -0.14513E-03
 0.91130005E+02 -0.19076E-03
 0.91180008E+02 -0.18159E-03
 0.91230003E+02 -0.13455E-03
 0.91280006E+02 -0.75565E-04
 0.91330002E+02 -0.31628E-04
 0.91380005E+02 -0.43354E-04
 0.91430008E+02 -0.87680E-04
 0.91480003E+02 -0.11197E-03
 0.91530006E+02 -0.10360E-03
 0.91580002E+02 -0.49321E-04
 0.91630005E+02  0.15039E-04
 0.91680008E+02  0.64757E-04
 0.91730003E+02  0.12509E-03
 0.91780006E+02  0.17967E-03
 0.91830002E+02  0.21696E-03
 0.91880005E+02  0.24162E-03
 0.91930008E+02  0.21635E-03
 0.91980003E+02  0.11592E-03
 0.92030006E+02 -0.22878E-04
 0.92080002E+02 -0.14017E-03
 0.92130005E+02 -0.20282E-03
 0.92180008E+02 -0.20923E-03
 0.92230003E+02 -0.17620E-03
 0.92280006E+02 -0.11804E-03
 0.92330002E+02 -0.47804E-04
 0.92380005E+02  0.10167E-04
 0.92430008E+02  0.58272E-04
 0.92480003E+02  0.10212E-03
 0.92530006E+02  0.14325E-03
 0.92580002E+02  0.17974E-03
 0.92630005E+02  0.20084E-03
 0.92680008E+02  0.21922E-03
 0.92730003E+02  0.22654E-03
 0.92780006E+02  0.20868E-03
 0.92830002E+02  0.15867E-03
 0.92880005E+02  0.80500E-04
 0.92930008E+02  0.15925E-05
 0.92980003E+02 -0.80648E-04
 0.93030006E+02 -0.14437E-03
 0.93080002E+02 -0.16905E-03
 0.93130005E+02 -0.17982E-03
 0.93180008E+02 -0.17388E-03
 0.93230003E+02 -0.15342E-03
 0.93280006E+02 -0.12435E-03
 0.93330002E+02 -0.10413E-03
 0.93380005E+02 -0.10784E-03
 0.93430008E+02 -0.96048E-04
 0.93480003E+02 -0.66278E-04
 0.93530006E+02 -0.48238E-04
 0.93580002E+02 -0.35204E-04
 0.93630005E+02 -0.97334E-05
 0.93680008E+02  0.27632E-04
 0.93730003E+02  0.60279E-04
 0.93780006E+02  0.66843E-04
 0.93830002E+02  0.36006E-04
 0.93880005E+02 -0.15644E-04
 0.93930008E+02 -0.63954E-04
 0.93980003E+02 -0.10453E-03
 0.94030006E+02 -0.12551E-03
 0.94080002E+02 -0.11991E-03
 0.94130005E+02 -0.10520E-03
 0.94180008E+02 -0.67607E-04
 0.94230003E+02  0.22698E-05
 0.94280006E+02  0.77610E-04
 0.94330002E+02  0.12331E-03
 0.94380005E+02  0.13387E-03
 0.94430008E+02  0.14132E-03
 0.94480003E+02  0.14784E-03
 0.94530006E+02  0.14397E-03
 0.94580002E+02  0.10886E-03
 0.94630005E+02  0.27445E-04
 0.94680008E+02 -0.68551E-04
 0.94730003E+02 -0.14362E-03
 0.94780006E+02 -0.16430E-03
 0.94830002E+02 -0.12722E-03
 0.94880005E+02 -0.63748E-04
 0.94930008E+02  0.12292E-04
 0.94980003E+02  0.93244E-04
 0.95030006E+02  0.15715E-03
 0.95080002E+02  0.19930E-03
 0.95130005E+02  0.22222E-03
 0.95180008E+02  0.22140E-03
 0.95230003E+02  0.19362E-03
 0.95280006E+02  0.13069E-03
 0.95330002E+02  0.54531E-04
 0.95380005E+02 -0.79036E-05
 0.95430008E+02 -0.53189E-04
 0.95480003E+02 -0.74191E-04
 0.95530006E+02 -0.73771E-04
 0.95580002E+02 -0.66816E-04
 0.95630005E+02 -0.65997E-04
 0.95680008E+02 -0.73462E-04
 0.95730003E+02 -0.84764E-04
 0.95780006E+02 -0.10320E-03
 0.95830002E+02 -0.12088E-03
 0.95880005E+02 -0.12274E-03
 0.95930008E+02 -0.10726E-03
 0.95980003E+02 -0.75949E-04
 0.96030006E+02 -0.44699E-04
 0.96080002E+02 -0.25059E-04
 0.96130005E+02 -0.15428E-04
 0.96180008E+02 -0.89793E-05
 0.96230003E+02  0.94737E-05
 0.96280006E+02  0.30687E-04
 0.96330002E+02  0.50628E-04
 0.96380005E+02  0.74566E-04
 0.96430008E+02  0.75654E-04
 0.96480003E+02  0.35892E-04
 0.96530006E+02 -0.19760E-04
 0.96580002E+02 -0.60103E-04
 0.96630005E+02 -0.70261E-04
 0.96680008E+02 -0.48723E-04
 0.96730003E+02 -0.14584E-04
 0.96780006E+02  0.15699E-04
 0.96830002E+02  0.31084E-04
 0.96880005E+02  0.19694E-04
 0.96930008E+02 -0.59053E-05
 0.96980003E+02 -0.30917E-04
 0.97030006E+02 -0.53686E-04
 0.97080002E+02 -0.73013E-04
 0.97130005E+02 -0.89980E-04
 0.97180008E+02 -0.92535E-04
 0.97230003E+02 -0.64246E-04
 0.97280006E+02 -0.12404E-04
 0.97330002E+02  0.34359E-04
 0.97380005E+02  0.55251E-04
 0.97430008E+02  0.61366E-04
 0.97480003E+02  0.66483E-04
 0.97530006E+02  0.73813E-04
 0.97580002E+02  0.89986E-04
 0.97630005E+02  0.99823E-04
 0.97680008E+02  0.10095E-03
 0.97730003E+02  0.10584E-03
 0.97780006E+02  0.93425E-04
 0.97830002E+02  0.53996E-04
 0.97880005E+02  0.75767E-06
 0.97930008E+02 -0.42231E-04
 0.97980003E+02 -0.50989E-04
 0.98030006E+02 -0.13833E-04
 0.98080002E+02  0.53859E-04
 0.98130005E+02  0.10297E-03
 0.98180008E+02  0.10576E-03
 0.98230003E+02  0.63975E-04
 0.98280006E+02  0.50718E-05
 0.98330002E+02 -0.46346E-04
 0.98380005E+02 -0.82408E-04
 0.98430008E+02 -0.82463E-04
 0.98480003E+02 -0.58735E-04
 0.98530006E+02 -0.35928E-04
 0.98580002E+02 -0.10846E-04
 0.98630005E+02  0.12468E-04
 0.98680008E+02  0.26312E-04
 0.98730003E+02  0.34519E-04
 0.98780006E+02  0.35382E-04
 0.98830002E+02  0.20370E-04
 0.98880005E+02 -0.14765E-04
 0.98930008E+02 -0.68428E-04
 0.98980003E+02 -0.12294E-03
 0.99030006E+02 -0.14603E-03
 0.99080002E+02 -0.11484E-03
 0.99130005E+02 -0.52209E-04
 0.99180008E+02  0.38487E-05
 0.99230003E+02  0.34676E-04
 0.99280006E+02  0.24673E-04
 0.99330002E+02 -0.18864E-04
 0.99380005E+02 -0.80102E-04
 0.99430008E+02 -0.13877E-03
 0.99480003E+02 -0.16671E-03
 0.99530006E+02 -0.15813E-03
 0.99580002E+02 -0.10784E-03
 0.99630005E+02 -0.19480E-04
 0.99680008E+02  0.78581E-04
 0.99730003E+02  0.17198E-03
 0.99780006E+02  0.24524E-03
 0.99830002E+02  0.27339E-03
 0.99880005E+02  0.25496E-03
 0.99930008E+02  0.20852E-03
 0.99980003E+02  0.15525E-03
 0.10003001E+03  0.98381E-04
 0.10008000E+03  0.48456E-04
 0.10013000E+03  0.16329E-04
 0.10018001E+03 -0.11803E-04
 0.10023000E+03 -0.41414E-04
 0.10028001E+03 -0.79777E-04
 0.10033000E+03 -0.13220E-03
 0.10038000E+03 -0.18854E-03
 0.10043001E+03 -0.22502E-03
 0.10048000E+03 -0.22070E-03
 0.10053001E+03 -0.18639E-03
 0.10058000E+03 -0.13956E-03
 0.10063000E+03 -0.81262E-04
 0.10068001E+03 -0.17148E-04
 0.10073000E+03  0.33670E-04
 0.10078001E+03  0.79382E-04
 0.10083000E+03  0.12117E-03
 0.10088000E+03  0.14005E-03
 0.10093001E+03  0.13876E-03
 0.10098000E+03  0.10652E-03
 0.10103001E+03  0.55631E-04
 0.10108000E+03  0.10566E-04
 0.10113000E+03 -0.20097E-04
 0.10118001E+03 -0.18611E-04
 0.10123000E+03  0.28708E-05
 0.10128001E+03  0.28054E-04
 0.10133000E+03  0.48752E-04
 0.10138000E+03  0.64434E-04
 0.10143001E+03  0.72567E-04
 0.10148000E+03  0.61388E-04
 0.10153001E+03  0.43277E-04
 0.10158000E+03  0.79578E-05
 0.10163000E+03 -0.35999E-04
 0.10168001E+03 -0.50008E-04
 0.10173000E+03 -0.32495E-04
 0.10178001E+03  0.91667E-05
 0.10183000E+03  0.46247E-04
 0.10188000E+03  0.61347E-04
 0.10193001E+03  0.67916E-04
 0.10198000E+03  0.64147E-04
 0.10203001E+03  0.43966E-04
 0.10208000E+03  0.41834E-05
 0.10213000E+03 -0.52405E-04
 0.10218001E+03 -0.12413E-03
 0.10223000E+03 -0.19497E-03
 0.10228001E+03 -0.23459E-03
 0.10233000E+03 -0.24314E-03
 0.10238000E+03 -0.23185E-03
 0.10243001E+03 -0.20504E-03
 0.10248000E+03 -0.16587E-03
 0.10253001E+03 -0.10551E-03
 0.10258000E+03 -0.31071E-04
 0.10263000E+03  0.20089E-04
 0.10268001E+03  0.29607E-04
 0.10273000E+03  0.14153E-04
 0.10278001E+03  0.73448E-06
 0.10283000E+03  0.25004E-04
 0.10288000E+03  0.92801E-04
 0.10293001E+03  0.17301E-03
 0.10298000E+03  0.23409E-03
 0.10303001E+03  0.24765E-03
 0.10308000E+03  0.21679E-03
 0.10313000E+03  0.16289E-03
 0.10318001E+03  0.99509E-04
 0.10323000E+03  0.41198E-04
 0.10328001E+03 -0.64306E-05
 0.10333000E+03 -0.46657E-04
 0.10338000E+03 -0.66750E-04
 0.10343001E+03 -0.42356E-04
 0.10348000E+03  0.16568E-04
 0.10353001E+03  0.83990E-04
 0.10358000E+03  0.14768E-03
 0.10363000E+03  0.18530E-03
 0.10368001E+03  0.17070E-03
 0.10373000E+03  0.10504E-03
 0.10378001E+03  0.11526E-04
 0.10383000E+03 -0.87544E-04
 0.10388000E+03 -0.17422E-03
 0.10393001E+03 -0.22186E-03
 0.10398000E+03 -0.22321E-03
 0.10403001E+03 -0.20563E-03
 0.10408000E+03 -0.16831E-03
 0.10413000E+03 -0.10548E-03
 0.10418001E+03 -0.30737E-04
 0.10423000E+03  0.47989E-04
 0.10428001E+03  0.99122E-04
 0.10433000E+03  0.11369E-03
 0.10438000E+03  0.11199E-03
 0.10443001E+03  0.10446E-03
 0.10448000E+03  0.10114E-03
 0.10453001E+03  0.90694E-04
 0.10458000E+03  0.74131E-04
 0.10463000E+03  0.53423E-04
 0.10468001E+03  0.11343E-04
 0.10473000E+03 -0.38785E-04
 0.10478001E+03 -0.76572E-04
 0.10483000E+03 -0.97054E-04
 0.10488000E+03 -0.10504E-03
 0.10493001E+03 -0.10553E-03
 0.10498000E+03 -0.93477E-04
 0.10503001E+03 -0.62149E-04
 0.10508000E+03 -0.80841E-05
 0.10513000E+03  0.52828E-04
 0.10518001E+03  0.93201E-04
 0.10523000E+03  0.10805E-03
 0.10528001E+03  0.98366E-04
 0.10533000E+03  0.64668E-04
 0.10538000E+03  0.17795E-04
 0.10543001E+03 -0.25180E-04
 0.10548000E+03 -0.50574E-04
 0.10553001E+03 -0.69014E-04
 0.10558000E+03 -0.84492E-04
 0.10563000E+03 -0.93178E-04
 0.10568001E+03 -0.88549E-04
 0.10573000E+03 -0.62427E-04
 0.10578001E+03 -0.31734E-04
 0.10583000E+03 -0.11653E-04
 0.10588000E+03 -0.77823E-05
 0.10593001E+03 -0.84153E-05
 0.10598000E+03  0.32588E-05
 0.10603001E+03  0.17661E-04
 0.10608000E+03  0.22920E-04
 0.10613000E+03  0.22432E-04
 0.10618001E+03  0.16222E-04
 0.10623000E+03 -0.31517E-05
 0.10628001E+03 -0.30422E-04
 0.10633000E+03 -0.57320E-04
 0.10638000E+03 -0.81180E-04
 0.10643001E+03 -0.97621E-04
 0.10648000E+03 -0.96742E-04
 0.10653001E+03 -0.74259E-04
 0.10658000E+03 -0.29258E-04
 0.10663000E+03  0.29569E-04
 0.10668001E+03  0.81338E-04
 0.10673000E+03  0.11041E-03
 0.10678001E+03  0.10559E-03
 0.10683000E+03  0.77778E-04
 0.10688000E+03  0.32164E-04
 0.10693001E+03 -0.19175E-04
 0.10698000E+03 -0.46458E-04
 0.10703001E+03 -0.43044E-04
 0.10708000E+03 -0.88760E-05
 0.10713000E+03  0.43082E-04
 0.10718001E+03  0.94398E-04
 0.10723000E+03  0.14038E-03
 0.10728001E+03  0.17479E-03
 0.10733000E+03  0.18071E-03
 0.10738000E+03  0.14893E-03
 0.10743001E+03  0.90714E-04
 0.10748000E+03  0.32885E-04
 0.10753001E+03 -0.50886E-06
 0.10758000E+03 -0.85878E-05
 0.10763000E+03 -0.35338E-05
 0.10768001E+03 -0.63900E-05
 0.10773000E+03 -0.18641E-04
 0.10778001E+03 -0.30834E-04
 0.10783000E+03 -0.40664E-04
 0.10788000E+03 -0.37808E-04
 0.10793001E+03 -0.38782E-04
 0.10798000E+03 -0.63022E-04
 0.10803001E+03 -0.10268E-03
 0.10808000E+03 -0.14699E-03
 0.10813000E+03 -0.18338E-03
 0.10818001E+03 -0.20609E-03
 0.10823000E+03 -0.21474E-03
 0.10828001E+03 -0.20282E-03
 0.10833000E+03 -0.17492E-03
 0.10838000E+03 -0.13660E-03
 0.10843001E+03 -0.80605E-04
 0.10848000E+03 -0.13808E-04
 0.10853001E+03  0.46733E-04
 0.10858000E+03  0.85714E-04
 0.10863000E+03  0.10066E-03
 0.10868001E+03  0.10689E-03
 0.10873000E+03  0.12126E-03
 0.10878001E+03  0.15082E-03
 0.10883000E+03  0.18559E-03
 0.10888000E+03  0.21388E-03
 0.10893001E+03  0.22297E-03
 0.10898000E+03  0.20446E-03
 0.10903001E+03  0.17149E-03
 0.10908000E+03  0.13481E-03
 0.10913000E+03  0.93526E-04
 0.10918001E+03  0.45710E-04
 0.10923000E+03 -0.10058E-04
 0.10928001E+03 -0.57253E-04
 0.10933000E+03 -0.78344E-04
 0.10938000E+03 -0.71346E-04
 0.10943001E+03 -0.45920E-04
 0.10948000E+03 -0.22382E-04
 0.10953001E+03 -0.65454E-05
 0.10958000E+03 -0.65582E-05
 0.10963000E+03 -0.21447E-04
 0.10968001E+03 -0.33035E-04
 0.10973000E+03 -0.40601E-04
 0.10978001E+03 -0.38652E-04
 0.10983000E+03 -0.25265E-04
 0.10988000E+03 -0.66677E-05
 0.10993001E+03  0.14011E-04
 0.10998000E+03  0.32229E-04
 0.11003001E+03  0.40673E-04
 0.11008000E+03  0.28917E-04
 0.11013000E+03  0.79902E-05
 0.11018001E+03 -0.16081E-04
 0.11023000E+03 -0.48857E-04
 0.11028001E+03 -0.71754E-04
 0.11033000E+03 -0.77105E-04
 0.11038000E+03 -0.81379E-04
 0.11043001E+03 -0.87780E-04
 0.11048000E+03 -0.10099E-03
 0.11053001E+03 -0.11842E-03
 0.11058000E+03 -0.12287E-03
 0.11063000E+03 -0.11803E-03
 0.11068001E+03 -0.10662E-03
 0.11073000E+03 -0.89851E-04
 0.11078001E+03 -0.67761E-04
 0.11083000E+03 -0.27030E-04
 0.11088000E+03  0.25632E-04
 0.11093001E+03  0.67465E-04
 0.11098000E+03  0.84302E-04
 0.11103001E+03  0.78064E-04
 0.11108000E+03  0.56045E-04
 0.11113000E+03  0.17800E-04
 0.11118001E+03 -0.24898E-04
 0.11123000E+03 -0.54164E-04
 0.11128001E+03 -0.59395E-04
 0.11133000E+03 -0.30272E-04
 0.11138000E+03  0.83348E-05
 0.11143001E+03  0.22145E-04
 0.11148000E+03  0.13940E-04
 0.11153001E+03  0.32631E-05
 0.11158000E+03  0.49642E-05
 0.11163000E+03  0.68303E-05
 0.11168001E+03  0.13365E-04
 0.11173000E+03  0.43513E-04
 0.11178001E+03  0.87841E-04
 0.11183000E+03  0.13860E-03
 0.11188000E+03  0.18902E-03
 0.11193001E+03  0.21650E-03
 0.11198000E+03  0.20597E-03
 0.11203001E+03  0.16995E-03
 0.11208000E+03  0.11978E-03
 0.11213000E+03  0.62703E-04
 0.11218001E+03  0.13232E-04
 0.11223000E+03 -0.21622E-04
 0.11228001E+03 -0.51493E-04
 0.11233000E+03 -0.80813E-04
 0.11238000E+03 -0.10605E-03
 0.11243001E+03 -0.13410E-03
 0.11248000E+03 -0.15282E-03
 0.11253001E+03 -0.14725E-03
 0.11258000E+03 -0.12086E-03
 0.11263000E+03 -0.78228E-04
 0.11268001E+03 -0.30516E-04
 0.11273000E+03  0.60438E-05
 0.11278001E+03  0.22718E-04
 0.11283000E+03  0.23049E-04
 0.11288000E+03  0.10408E-04
 0.11293001E+03 -0.95461E-05
 0.11298000E+03 -0.23853E-04
 0.11303001E+03 -0.31542E-04
 0.11308000E+03 -0.32873E-04
 0.11313000E+03 -0.18369E-04
 0.11318001E+03  0.34508E-05
 0.11323000E+03  0.12149E-04
 0.11328001E+03  0.39762E-05
 0.11333000E+03 -0.16263E-04
 0.11338000E+03 -0.34015E-04
 0.11343001E+03 -0.30417E-04
 0.11348000E+03 -0.10956E-04
 0.11353001E+03  0.17232E-04
 0.11358000E+03  0.50800E-04
 0.11363000E+03  0.76441E-04
 0.11368001E+03  0.86735E-04
 0.11373000E+03  0.71372E-04
 0.11378001E+03  0.33559E-04
 0.11383000E+03 -0.23001E-05
 0.11388000E+03 -0.19051E-04
 0.11393001E+03 -0.11177E-04
 0.11398000E+03  0.17212E-04
 0.11403001E+03  0.52135E-04
 0.11408000E+03  0.75657E-04
 0.11413000E+03  0.76529E-04
 0.11418001E+03  0.53970E-04
 0.11423000E+03  0.17774E-04
 0.11428001E+03 -0.19256E-04
 0.11433000E+03 -0.46418E-04
 0.11438000E+03 -0.63457E-04
 0.11443001E+03 -0.79839E-04
 0.11448000E+03 -0.90662E-04
 0.11453001E+03 -0.93169E-04
 0.11458000E+03 -0.94184E-04
 0.11463000E+03 -0.93145E-04
 0.11468001E+03 -0.85181E-04
 0.11473000E+03 -0.61099E-04
 0.11478001E+03 -0.27390E-04
 0.11483000E+03  0.29004E-05
 0.11488000E+03  0.24603E-04
 0.11493001E+03  0.36228E-04
 0.11498000E+03  0.46980E-04
 0.11503001E+03  0.62750E-04
 0.11508000E+03  0.88402E-04
 0.11513000E+03  0.12364E-03
 0.11518001E+03  0.15346E-03
 0.11523000E+03  0.16312E-03
 0.11528001E+03  0.14705E-03
 0.11533000E+03  0.10022E-03
 0.11538000E+03  0.26814E-04
 0.11543001E+03 -0.52418E-04
 0.11548000E+03 -0.12201E-03
 0.11553001E+03 -0.17857E-03
 0.11558000E+03 -0.20952E-03
 0.11563000E+03 -0.19983E-03
 0.11568001E+03 -0.15863E-03
 0.11573000E+03 -0.95569E-04
 0.11578001E+03 -0.24307E-04
 0.11583000E+03  0.43245E-04
 0.11588000E+03  0.10057E-03
 0.11593001E+03  0.13091E-03
 0.11598000E+03  0.13348E-03
 0.11603001E+03  0.11030E-03
 0.11608000E+03  0.63627E-04
 0.11613000E+03  0.91217E-05
 0.11618001E+03 -0.24126E-04
 0.11623000E+03 -0.26512E-04
 0.11628001E+03 -0.12468E-04
 0.11633000E+03  0.12830E-04
 0.11638000E+03  0.35173E-04
 0.11643001E+03  0.46923E-04
 0.11648000E+03  0.45368E-04
 0.11653001E+03  0.26478E-04
 0.11658000E+03  0.40972E-05
 0.11663000E+03 -0.18828E-04
 0.11668001E+03 -0.47208E-04
 0.11673000E+03 -0.68614E-04
 0.11678001E+03 -0.70380E-04
 0.11683000E+03 -0.56662E-04
 0.11688000E+03 -0.35518E-04
 0.11693001E+03 -0.12842E-04
 0.11698000E+03  0.48912E-05
 0.11703001E+03  0.17403E-04
 0.11708000E+03  0.21485E-04
 0.11713000E+03  0.14254E-04
 0.11718001E+03 -0.39830E-05
 0.11723000E+03 -0.36808E-04
 0.11728001E+03 -0.69348E-04
 0.11733000E+03 -0.80841E-04
 0.11738000E+03 -0.61890E-04
 0.11743001E+03 -0.15278E-04
 0.11748000E+03  0.36740E-04
 0.11753001E+03  0.77863E-04
 0.11758000E+03  0.10091E-03
 0.11763000E+03  0.96059E-04
 0.11768001E+03  0.68603E-04
 0.11773000E+03  0.36917E-04
 0.11778001E+03  0.89590E-05
 0.11783000E+03 -0.11572E-04
 0.11788000E+03 -0.23617E-04
 0.11793001E+03 -0.34882E-04
 0.11798000E+03 -0.42980E-04
 0.11803001E+03 -0.40529E-04
 0.11808000E+03 -0.27163E-04
 0.11813000E+03 -0.10774E-04
 0.11818001E+03  0.22163E-05
 0.11823000E+03  0.17972E-04
 0.11828001E+03  0.36542E-04
 0.11833000E+03  0.56278E-04
 0.11838000E+03  0.72322E-04
 0.11843001E+03  0.75960E-04
 0.11848000E+03  0.71655E-04
 0.11853001E+03  0.57015E-04
 0.11858000E+03  0.30232E-04
 0.11863000E+03 -0.24113E-05
 0.11868001E+03 -0.40876E-04
 0.11873000E+03 -0.80939E-04
 0.11878001E+03 -0.11754E-03
 0.11883000E+03 -0.14731E-03
 0.11888000E+03 -0.15908E-03
 0.11893001E+03 -0.14495E-03
 0.11898000E+03 -0.10999E-03
 0.11903001E+03 -0.59462E-04
 0.11908000E+03 -0.43459E-05
 0.11913000E+03  0.37102E-04
 0.11918001E+03  0.59358E-04
 0.11923000E+03  0.69453E-04
 0.11928001E+03  0.77820E-04
 0.11933000E+03  0.89331E-04
 0.11938000E+03  0.10537E-03
 0.11943001E+03  0.11397E-03
 0.11948000E+03  0.10367E-03
 0.11953001E+03  0.83240E-04
 0.11958000E+03  0.53541E-04
 0.11963000E+03  0.22026E-04
 0.11968001E+03  0.23523E-05
 0.11973000E+03 -0.26566E-05
 0.11978001E+03  0.96871E-05
 0.11983000E+03  0.26907E-04
 0.11988000E+03  0.32754E-04
 0.11993001E+03  0.21100E-04
 0.11998000E+03 -0.12819E-04
 0.12003001E+03 -0.60996E-04
 0.12008000E+03 -0.10868E-03
 0.12013000E+03 -0.14630E-03
 0.12018001E+03 -0.15790E-03
 0.12023000E+03 -0.14111E-03
 0.12028001E+03 -0.11321E-03
 0.12033000E+03 -0.81351E-04
 0.12038000E+03 -0.55512E-04
 0.12043001E+03 -0.49771E-04
 0.12048000E+03 -0.56667E-04
 0.12053001E+03 -0.57874E-04
 0.12058000E+03 -0.45199E-04
 0.12063000E+03 -0.23736E-04
 0.12068001E+03  0.33031E-05
 0.12073000E+03  0.34876E-04
 0.12078001E+03  0.63174E-04
 0.12083000E+03  0.83874E-04
 0.12088000E+03  0.10193E-03
 0.12093001E+03  0.12092E-03
 0.12098000E+03  0.13446E-03
 0.12103001E+03  0.13913E-03
 0.12108000E+03  0.13728E-03
 0.12113000E+03  0.13258E-03
 0.12118001E+03  0.12816E-03
 0.12123000E+03  0.11613E-03
 0.12128001E+03  0.92434E-04
 0.12133000E+03  0.59894E-04
 0.12138000E+03  0.24810E-04
 0.12143001E+03 -0.62344E-06
 0.12148000E+03 -0.14697E-04
 0.12153001E+03 -0.17405E-04
 0.12158000E+03 -0.14044E-04
 0.12163000E+03 -0.12200E-04
 0.12168001E+03 -0.93784E-05
 0.12173000E+03 -0.90570E-05
 0.12178001E+03 -0.11852E-04
 0.12183000E+03 -0.18595E-04
 0.12188000E+03 -0.34926E-04
 0.12193001E+03 -0.59807E-04
 0.12198000E+03 -0.87862E-04
 0.12203001E+03 -0.10540E-03
 0.12208000E+03 -0.10490E-03
 0.12213000E+03 -0.90739E-04
 0.12218001E+03 -0.66684E-04
 0.12223000E+03 -0.37328E-04
 0.12228001E+03 -0.22079E-05
 0.12233000E+03  0.31184E-04
 0.12238000E+03  0.44359E-04
 0.12243001E+03  0.30624E-04
 0.12248000E+03 -0.53013E-05
 0.12253001E+03 -0.47775E-04
 0.12258000E+03 -0.79508E-04
 0.12263000E+03 -0.92259E-04
 0.12268001E+03 -0.83499E-04
 0.12273000E+03 -0.61486E-04
 0.12278001E+03 -0.31901E-04
 0.12283000E+03  0.25416E-05
 0.12288000E+03  0.30507E-04
 0.12293001E+03  0.50878E-04
 0.12298000E+03  0.64238E-04
 0.12303001E+03  0.63539E-04
 0.12308000E+03  0.49071E-04
 0.12313000E+03  0.22283E-04
 0.12318001E+03 -0.41343E-05
 0.12323000E+03 -0.15670E-04
 0.12328001E+03 -0.16954E-04
 0.12333000E+03 -0.11795E-04
 0.12338000E+03 -0.82772E-05
 0.12343001E+03 -0.13335E-04
 0.12348000E+03 -0.29582E-04
 0.12353001E+03 -0.60788E-04
 0.12358000E+03 -0.92722E-04
 0.12363000E+03 -0.11288E-03
 0.12368001E+03 -0.11424E-03
 0.12373000E+03 -0.89938E-04
 0.12378001E+03 -0.45939E-04
 0.12383000E+03  0.80148E-06
 0.12388000E+03  0.36444E-04
 0.12393001E+03  0.60763E-04
 0.12398000E+03  0.71828E-04
 0.12403001E+03  0.71961E-04
 0.12408000E+03  0.67118E-04
 0.12413000E+03  0.61073E-04
 0.12418001E+03  0.59510E-04
 0.12423000E+03  0.58150E-04
 0.12428001E+03  0.52981E-04
 0.12433000E+03  0.45461E-04
 0.12438000E+03  0.42401E-04
 0.12443001E+03  0.44093E-04
 0.12448000E+03  0.39854E-04
 0.12453001E+03  0.28591E-04
 0.12458000E+03  0.12892E-04
 0.12463000E+03 -0.23607E-05
 0.12468001E+03 -0.15308E-04
 0.12473000E+03 -0.25491E-04
 0.12478001E+03 -0.26702E-04
 0.12483000E+03 -0.15004E-04
 0.12488000E+03  0.92704E-05
 0.12493001E+03  0.37351E-04
 0.12498000E+03  0.56364E-04
 0.12503001E+03  0.57121E-04
 0.12508000E+03  0.47274E-04
 0.12513000E+03  0.39539E-04
 0.12518001E+03  0.37629E-04
 0.12523000E+03  0.38283E-04
 0.12528001E+03  0.32958E-04
 0.12533000E+03  0.20299E-04
 0.12538000E+03  0.45021E-05
 0.12543001E+03 -0.69197E-05
 0.12548000E+03 -0.15020E-04
 0.12553001E+03 -0.22128E-04
 0.12558000E+03 -0.21030E-04
 0.12563000E+03 -0.11449E-04
 0.12568001E+03  0.36773E-05
 0.12573000E+03  0.19710E-04
 0.12578001E+03  0.33768E-04
 0.12583000E+03  0.42163E-04
 0.12588000E+03  0.35637E-04
 0.12593001E+03  0.12051E-04
 0.12598000E+03 -0.26489E-04
 0.12603001E+03 -0.65917E-04
 0.12608000E+03 -0.89802E-04
 0.12613000E+03 -0.10040E-03
 0.12618001E+03 -0.10471E-03
 0.12623000E+03 -0.10746E-03
 0.12628001E+03 -0.10953E-03
 0.12633000E+03 -0.10906E-03
 0.12638000E+03 -0.97421E-04
 0.12643001E+03 -0.70641E-04
 0.12648000E+03 -0.34285E-04
 0.12653001E+03  0.93754E-05
 0.12658000E+03  0.46067E-04
 0.12663000E+03  0.67369E-04
 0.12668001E+03  0.78940E-04
 0.12673000E+03  0.83369E-04
 0.12678001E+03  0.85421E-04
 0.12683000E+03  0.83432E-04
 0.12688000E+03  0.75306E-04
 0.12693001E+03  0.63243E-04
 0.12698000E+03  0.49117E-04
 0.12703001E+03  0.36256E-04
 0.12708000E+03  0.20855E-04
 0.12713000E+03  0.45440E-05
 0.12718001E+03 -0.86315E-05
 0.12723000E+03 -0.22031E-04
 0.12728001E+03 -0.37141E-04
 0.12733000E+03 -0.55128E-04
 0.12738000E+03 -0.65455E-04
 0.12743001E+03 -0.58303E-04
 0.12748000E+03 -0.42218E-04
 0.12753001E+03 -0.31664E-04
 0.12758000E+03 -0.30841E-04
 0.12763000E+03 -0.33035E-04
 0.12768001E+03 -0.35476E-04
 0.12773000E+03 -0.32197E-04
 0.12778001E+03 -0.17479E-04
 0.12783000E+03  0.35197E-05
 0.12788000E+03  0.20974E-04
 0.12793001E+03  0.28620E-04
 0.12798000E+03  0.27677E-04
 0.12803000E+03  0.20578E-04
 0.12808000E+03  0.10080E-04
 0.12813000E+03 -0.21951E-05
 0.12818001E+03 -0.10073E-04
 0.12823001E+03 -0.26030E-05
 0.12828000E+03  0.21931E-04
 0.12833000E+03  0.57081E-04
 0.12838000E+03  0.94252E-04
 0.12843001E+03  0.11735E-03
 0.12848001E+03  0.11193E-03
 0.12853000E+03  0.84308E-04
 0.12858000E+03  0.48825E-04
 0.12863000E+03  0.17409E-04
 0.12868001E+03 -0.53212E-05
 0.12873001E+03 -0.21972E-04
 0.12878000E+03 -0.32703E-04
 0.12883000E+03 -0.45058E-04
 0.12888000E+03 -0.62488E-04
 0.12893001E+03 -0.75512E-04
 0.12898001E+03 -0.76160E-04
 0.12903000E+03 -0.64527E-04
 0.12908000E+03 -0.50340E-04
 0.12913000E+03 -0.43295E-04
 0.12918001E+03 -0.40464E-04
 0.12923001E+03 -0.31920E-04
 0.12928000E+03 -0.95907E-05
 0.12933000E+03  0.31071E-04
 0.12938000E+03  0.79932E-04
 0.12943001E+03  0.11936E-03
 0.12948001E+03  0.13534E-03
 0.12953000E+03  0.11742E-03
 0.12958000E+03  0.76189E-04
 0.12963000E+03  0.29871E-04
 0.12968001E+03 -0.18399E-04
 0.12973001E+03 -0.66204E-04
 0.12978000E+03 -0.10882E-03
 0.12983000E+03 -0.13993E-03
 0.12988000E+03 -0.15065E-03
 0.12993001E+03 -0.13893E-03
 0.12998001E+03 -0.10883E-03
 0.13003000E+03 -0.70732E-04
 0.13008000E+03 -0.38899E-04
 0.13013000E+03 -0.19646E-04
 0.13018001E+03 -0.10171E-04
 0.13023001E+03 -0.64291E-05
 0.13028000E+03 -0.10351E-04
 0.13033000E+03 -0.22063E-04
 0.13038000E+03 -0.29941E-04
 0.13043001E+03 -0.23429E-04
 0.13048001E+03 -0.46318E-06
 0.13053000E+03  0.28375E-04
 0.13058000E+03  0.46052E-04
 0.13063000E+03  0.46911E-04
 0.13068001E+03  0.33520E-04
 0.13073001E+03  0.16559E-04
 0.13078000E+03  0.11501E-04
 0.13083000E+03  0.20196E-04
 0.13088000E+03  0.32304E-04
 0.13093001E+03  0.38636E-04
 0.13098001E+03  0.36377E-04
 0.13103000E+03  0.28739E-04
 0.13108000E+03  0.17048E-04
 0.13113000E+03  0.38475E-05
 0.13118001E+03 -0.36408E-05
 0.13123001E+03 -0.89707E-07
 0.13128000E+03  0.13960E-04
 0.13133000E+03  0.31599E-04
 0.13138000E+03  0.48487E-04
 0.13143001E+03  0.59669E-04
 0.13148001E+03  0.56848E-04
 0.13153000E+03  0.40479E-04
 0.13158000E+03  0.17222E-04
 0.13163000E+03 -0.54755E-05
 0.13168001E+03 -0.20190E-04
 0.13173001E+03 -0.28252E-04
 0.13178000E+03 -0.35697E-04
 0.13183000E+03 -0.39712E-04
 0.13188000E+03 -0.35172E-04
 0.13193001E+03 -0.16896E-04
 0.13198001E+03  0.18722E-04
 0.13203000E+03  0.63751E-04
 0.13208000E+03  0.11086E-03
 0.13213000E+03  0.15073E-03
 0.13218001E+03  0.16915E-03
 0.13223001E+03  0.16328E-03
 0.13228000E+03  0.13654E-03
 0.13233000E+03  0.96323E-04
 0.13238000E+03  0.50238E-04
 0.13243001E+03 -0.62125E-06
 0.13248001E+03 -0.47620E-04
 0.13253000E+03 -0.82811E-04
 0.13258000E+03 -0.10883E-03
 0.13263000E+03 -0.12641E-03
 0.13268001E+03 -0.13974E-03
 0.13273001E+03 -0.15028E-03
 0.13278000E+03 -0.15443E-03
 0.13283000E+03 -0.15215E-03
 0.13288000E+03 -0.14103E-03
 0.13293001E+03 -0.12598E-03
 0.13298001E+03 -0.11227E-03
 0.13303000E+03 -0.96443E-04
 0.13308000E+03 -0.72581E-04
 0.13313000E+03 -0.36784E-04
 0.13318001E+03  0.45956E-05
 0.13323001E+03  0.47649E-04
 0.13328000E+03  0.83483E-04
 0.13333000E+03  0.98828E-04
 0.13338000E+03  0.99305E-04
 0.13343001E+03  0.90723E-04
 0.13348001E+03  0.79943E-04
 0.13353000E+03  0.69463E-04
 0.13358000E+03  0.54957E-04
 0.13363000E+03  0.44845E-04
 0.13368001E+03  0.38837E-04
 0.13373001E+03  0.34987E-04
 0.13378000E+03  0.32680E-04
 0.13383000E+03  0.25603E-04
 0.13388000E+03  0.11790E-04
 0.13393001E+03 -0.97678E-05
 0.13398001E+03 -0.33321E-04
 0.13403000E+03 -0.52456E-04
 0.13408000E+03 -0.64611E-04
 0.13413000E+03 -0.67675E-04
 0.13418001E+03 -0.60361E-04
 0.13423001E+03 -0.47758E-04
 0.13428000E+03 -0.35581E-04
 0.13433000E+03 -0.18053E-04
 0.13438000E+03  0.65624E-05
 0.13443001E+03  0.34130E-04
 0.13448001E+03  0.58288E-04
 0.13453000E+03  0.71686E-04
 0.13458000E+03  0.73944E-04
 0.13463000E+03  0.63961E-04
 0.13468001E+03  0.48207E-04
 0.13473001E+03  0.34223E-04
 0.13478000E+03  0.19400E-04
 0.13483000E+03  0.59854E-05
 0.13488000E+03 -0.63483E-05
 0.13493001E+03 -0.17445E-04
 0.13498001E+03 -0.22401E-04
 0.13503000E+03 -0.22598E-04
 0.13508000E+03 -0.18616E-04
 0.13513000E+03 -0.13514E-04
 0.13518001E+03 -0.11606E-04
 0.13523001E+03 -0.16834E-04
 0.13528000E+03 -0.32467E-04
 0.13533000E+03 -0.50315E-04
 0.13538000E+03 -0.61337E-04
 0.13543001E+03 -0.57560E-04
 0.13548001E+03 -0.38857E-04
 0.13553000E+03 -0.14100E-04
 0.13558000E+03  0.12036E-04
 0.13563000E+03  0.30924E-04
 0.13568001E+03  0.37870E-04
 0.13573001E+03  0.31184E-04
 0.13578000E+03  0.11932E-04
 0.13583000E+03 -0.97936E-05
 0.13588000E+03 -0.28191E-04
 0.13593001E+03 -0.36376E-04
 0.13598001E+03 -0.31594E-04
 0.13603000E+03 -0.17217E-04
 0.13608000E+03  0.45549E-05
 0.13613000E+03  0.28677E-04
 0.13618001E+03  0.49340E-04
 0.13623001E+03  0.57810E-04
 0.13628000E+03  0.53773E-04
 0.13633000E+03  0.42366E-04
 0.13638000E+03  0.27759E-04
 0.13643001E+03  0.17512E-04
 0.13648001E+03  0.18036E-04
 0.13653000E+03  0.30460E-04
 0.13658000E+03  0.47208E-04
 0.13663000E+03  0.58503E-04
 0.13668001E+03  0.55218E-04
 0.13673001E+03  0.39775E-04
 0.13678000E+03  0.21667E-04
 0.13683000E+03  0.60656E-05
 0.13688000E+03 -0.75144E-05
 0.13693001E+03 -0.28138E-04
 0.13698001E+03 -0.55031E-04
 0.13703000E+03 -0.78143E-04
 0.13708000E+03 -0.87859E-04
 0.13713000E+03 -0.79762E-04
 0.13718001E+03 -0.61661E-04
 0.13723001E+03 -0.38327E-04
 0.13728000E+03 -0.13588E-04
 0.13733000E+03  0.45867E-05
 0.13738000E+03  0.16690E-04
 0.13743001E+03  0.23150E-04
 0.13748001E+03  0.24738E-04
 0.13753000E+03  0.25253E-04
 0.13758000E+03  0.24301E-04
 0.13763000E+03  0.23922E-04
 0.13768001E+03  0.22728E-04
 0.13773001E+03  0.19194E-04
 0.13778000E+03  0.16410E-04
 0.13783000E+03  0.12474E-04
 0.13788000E+03  0.74170E-05
 0.13793001E+03  0.32244E-05
 0.13798001E+03  0.11625E-05
 0.13803000E+03  0.39071E-05
 0.13808000E+03  0.13224E-04
 0.13813000E+03  0.26122E-04
 0.13818001E+03  0.35314E-04
 0.13823001E+03  0.35786E-04
 0.13828000E+03  0.27441E-04
 0.13833000E+03  0.12904E-04
 0.13838000E+03 -0.69496E-05
 0.13843001E+03 -0.29971E-04
 0.13848001E+03 -0.55949E-04
 0.13853000E+03 -0.83508E-04
 0.13858000E+03 -0.11044E-03
 0.13863000E+03 -0.13535E-03
 0.13868001E+03 -0.15072E-03
 0.13873001E+03 -0.15530E-03
 0.13878000E+03 -0.14607E-03
 0.13883000E+03 -0.12019E-03
 0.13888000E+03 -0.85079E-04
 0.13893001E+03 -0.46109E-04
 0.13898001E+03 -0.77241E-05
 0.13903000E+03  0.25750E-04
 0.13908000E+03  0.52569E-04
 0.13913000E+03  0.72079E-04
 0.13918001E+03  0.82766E-04
 0.13923001E+03  0.87002E-04
 0.13928000E+03  0.89358E-04
 0.13933000E+03  0.92476E-04
 0.13938000E+03  0.96376E-04
 0.13943001E+03  0.99456E-04
 0.13948001E+03  0.10193E-03
 0.13953000E+03  0.10360E-03
 0.13958000E+03  0.99281E-04
 0.13963000E+03  0.83672E-04
 0.13968001E+03  0.66848E-04
 0.13973001E+03  0.53631E-04
 0.13978000E+03  0.45713E-04
 0.13983000E+03  0.43393E-04
 0.13988000E+03  0.35154E-04
 0.13993001E+03  0.23297E-04
 0.13998001E+03  0.11399E-04
 0.14003000E+03  0.32053E-05
 0.14008000E+03 -0.82275E-05
 0.14013000E+03 -0.28069E-04
 0.14018001E+03 -0.32472E-04
 0.14023001E+03 -0.30347E-04
 0.14028000E+03 -0.61161E-04
 0.14033000E+03 -0.97432E-04
 0.14038000E+03 -0.93849E-04
 0.14043001E+03 -0.75103E-04
 0.14048001E+03 -0.69553E-04
 0.14053000E+03 -0.53585E-04
 0.14058000E+03 -0.10308E-04
 0.14063000E+03  0.49120E-05
 0.14068001E+03 -0.11044E-04
 0.14073001E+03 -0.10976E-04
 0.14078000E+03  0.50728E-05
 0.14083000E+03  0.99568E-05
 0.14088000E+03 -0.27249E-04
 0.14093001E+03 -0.51481E-04
 0.14098001E+03 -0.39955E-04
 0.14103000E+03 -0.20898E-04
 0.14108000E+03  0.23055E-05
 0.14113000E+03  0.49390E-05
 0.14118001E+03  0.57909E-06
 0.14123001E+03  0.11169E-05
 0.14128000E+03  0.14830E-04
 0.14133000E+03  0.33924E-04
 0.14138000E+03  0.37489E-04
 0.14143001E+03  0.24386E-04
 0.14148001E+03  0.49778E-06
 0.14153000E+03  0.11496E-05
 0.14158000E+03  0.23929E-05
 0.14163000E+03 -0.25690E-04
 0.14168001E+03 -0.51409E-04
 0.14173001E+03 -0.50533E-04
 0.14178000E+03 -0.42796E-04
 0.14183000E+03 -0.46882E-04
 0.14188000E+03 -0.42847E-04
 0.14193001E+03 -0.35491E-04
 0.14198001E+03 -0.14236E-04
 0.14203000E+03  0.17305E-04
 0.14208000E+03  0.27781E-04
 0.14213000E+03  0.36139E-04
 0.14218001E+03  0.46134E-04
 0.14223001E+03  0.54616E-04
 0.14228000E+03  0.59945E-04
 0.14233000E+03  0.50204E-04
 0.14238000E+03  0.40789E-04
 0.14243001E+03  0.32581E-04
 0.14248001E+03  0.29368E-04
 0.14253000E+03  0.40865E-04
 0.14258000E+03  0.54562E-04
 0.14263000E+03  0.66676E-04
 0.14268001E+03  0.76004E-04
 0.14273001E+03  0.75510E-04
 0.14278000E+03  0.59697E-04
 0.14283000E+03  0.37603E-04
 0.14288000E+03  0.16257E-04
 0.14293001E+03 -0.63946E-05
 0.14298001E+03 -0.28778E-04
 0.14303000E+03 -0.52725E-04
 0.14308000E+03 -0.65864E-04
 0.14313000E+03 -0.71642E-04
 0.14318001E+03 -0.71352E-04
 0.14323001E+03 -0.49457E-04
 0.14328000E+03 -0.23074E-04
 0.14333000E+03 -0.38220E-05
 0.14338000E+03  0.50956E-05
 0.14343001E+03  0.63475E-05
 0.14348001E+03 -0.47405E-07
 0.14353000E+03 -0.19819E-04
 0.14358000E+03 -0.34458E-04
 0.14363000E+03 -0.40407E-04
 0.14368001E+03 -0.48757E-04
 0.14373001E+03 -0.55105E-04
 0.14378000E+03 -0.47994E-04
 0.14383000E+03 -0.33356E-04
 0.14388000E+03 -0.24150E-04
 0.14393001E+03 -0.22305E-04
 0.14398001E+03 -0.20853E-04
 0.14403000E+03 -0.11096E-04
 0.14408000E+03  0.12076E-05
 0.14413000E+03  0.11206E-04
 0.14418001E+03  0.26126E-04
 0.14423001E+03  0.39214E-04
 0.14428000E+03  0.42656E-04
 0.14433000E+03  0.48724E-04
 0.14438000E+03  0.54966E-04
 0.14443001E+03  0.56014E-04
 0.14448001E+03  0.56400E-04
 0.14453000E+03  0.53629E-04
 0.14458000E+03  0.50128E-04
 0.14463000E+03  0.50143E-04
 0.14468001E+03  0.46269E-04
 0.14473001E+03  0.32811E-04
 0.14478000E+03  0.15661E-04
 0.14483000E+03 -0.54025E-05
 0.14488000E+03 -0.20589E-04
 0.14493001E+03 -0.29580E-04
 0.14498001E+03 -0.40440E-04
 0.14503000E+03 -0.43388E-04
 0.14508000E+03 -0.47796E-04
 0.14513000E+03 -0.58299E-04
 0.14518001E+03 -0.69727E-04
 0.14523001E+03 -0.76429E-04
 0.14528000E+03 -0.68989E-04
 0.14533000E+03 -0.57931E-04
 0.14538000E+03 -0.52378E-04
 0.14543001E+03 -0.45240E-04
 0.14548001E+03 -0.33270E-04
 0.14553000E+03 -0.23014E-04
 0.14558000E+03 -0.88736E-05
 0.14563000E+03  0.71139E-05
 0.14568001E+03  0.14382E-04
 0.14573001E+03  0.15264E-04
 0.14578000E+03  0.13922E-04
 0.14583000E+03  0.18008E-04
 0.14588000E+03  0.26433E-04
 0.14593001E+03  0.35116E-04
 0.14598001E+03  0.46837E-04
 0.14603000E+03  0.67356E-04
 0.14608000E+03  0.85009E-04
 0.14613000E+03  0.83424E-04
 0.14618001E+03  0.69231E-04
 0.14623001E+03  0.46671E-04
 0.14628000E+03  0.20352E-04
 0.14633000E+03 -0.42572E-05
 0.14638000E+03 -0.24823E-04
 0.14643001E+03 -0.34979E-04
 0.14648001E+03 -0.36706E-04
 0.14653000E+03 -0.33856E-04
 0.14658000E+03 -0.28065E-04
 0.14663000E+03 -0.26855E-04
 0.14668001E+03 -0.21309E-04
 0.14673001E+03 -0.91722E-05
 0.14678000E+03  0.11600E-05
 0.14683000E+03  0.16517E-04
 0.14688000E+03  0.28834E-04
 0.14693001E+03  0.38076E-04
 0.14698001E+03  0.51115E-04
 0.14703000E+03  0.68439E-04
 0.14708000E+03  0.87937E-04
 0.14713000E+03  0.94834E-04
 0.14718001E+03  0.85116E-04
 0.14723001E+03  0.58863E-04
 0.14728000E+03  0.22984E-04
 0.14733000E+03 -0.10940E-04
 0.14738000E+03 -0.38519E-04
 0.14743001E+03 -0.60208E-04
 0.14748001E+03 -0.90094E-04
 0.14753000E+03 -0.11529E-03
 0.14758000E+03 -0.11810E-03
 0.14763000E+03 -0.11232E-03
 0.14768001E+03 -0.93951E-04
 0.14773001E+03 -0.73764E-04
 0.14778000E+03 -0.71707E-04
 0.14783000E+03 -0.71118E-04
 0.14788000E+03 -0.59842E-04
 0.14793001E+03 -0.37046E-04
 0.14798001E+03 -0.94168E-05
 0.14803000E+03  0.28372E-05
 0.14808000E+03 -0.42398E-05
 0.14813000E+03 -0.66920E-05
 0.14818001E+03  0.35467E-05
 0.14823001E+03  0.12174E-04
 0.14828000E+03  0.17333E-04
 0.14833000E+03  0.17430E-04
 0.14838000E+03  0.68984E-05
 0.14843001E+03 -0.41160E-05
 0.14848001E+03 -0.22609E-05
 0.14853000E+03  0.11593E-04
 0.14858000E+03  0.34066E-04
 0.14863000E+03  0.57447E-04
 0.14868001E+03  0.74928E-04
 0.14873001E+03  0.82394E-04
 0.14878000E+03  0.74451E-04
 0.14883000E+03  0.62053E-04
 0.14888000E+03  0.51610E-04
 0.14893001E+03  0.35760E-04
 0.14898001E+03  0.16691E-04
 0.14903000E+03  0.67114E-05
 0.14908000E+03  0.90743E-05
 0.14913000E+03  0.16854E-04
 0.14918001E+03  0.20266E-04
 0.14923001E+03  0.17423E-04
 0.14928000E+03  0.21211E-04
 0.14933000E+03  0.25032E-04
 0.14938000E+03  0.18367E-04
 0.14943001E+03  0.34565E-05
 0.14948001E+03 -0.17324E-04
 0.14953000E+03 -0.34733E-04
 0.14958000E+03 -0.48713E-04
 0.14963000E+03 -0.50234E-04
 0.14968001E+03 -0.34463E-04
 0.14973001E+03 -0.12922E-04
 0.14978000E+03  0.32847E-05
 0.14983000E+03  0.64372E-05
 0.14988000E+03  0.70931E-05
 0.14993001E+03  0.28788E-05
 0.14998001E+03 -0.67460E-05
