-0.20000458E-01  0.14499E-05
 0.29999543E-01  0.68155E-06
 0.79999544E-01  0.34598E-06
 0.12999955E+00 -0.87974E-07
 0.17999955E+00 -0.13392E-06
 0.22999954E+00 -0.37259E-06
 0.27999955E+00 -0.22413E-06
 0.32999954E+00 -0.45925E-06
 0.37999955E+00 -0.32707E-06
 0.42999956E+00 -0.21335E-06
 0.47999954E+00 -0.35413E-06
 0.52999955E+00 -0.13757E-08
 0.57999957E+00 -0.38447E-06
 0.62999958E+00 -0.51976E-07
 0.67999953E+00 -0.64794E-07
 0.72999954E+00 -0.22233E-06
 0.77999955E+00  0.16052E-06
 0.82999957E+00 -0.65449E-07
 0.87999958E+00 -0.32772E-08
 0.92999953E+00  0.51057E-07
 0.97999954E+00  0.52381E-07
 0.10299996E+01 -0.12998E-06
 0.10799996E+01 -0.11819E-07
 0.11299995E+01  0.26017E-06
 0.11799996E+01 -0.43053E-07
 0.12299995E+01 -0.62061E-07
 0.12799996E+01  0.10027E-06
 0.13299996E+01 -0.32053E-07
 0.13799995E+01 -0.49740E-07
 0.14299996E+01  0.10546E-06
 0.14799995E+01  0.68131E-07
 0.15299996E+01 -0.63951E-07
 0.15799996E+01 -0.13879E-06
 0.16299995E+01  0.10007E-06
 0.16799996E+01  0.10469E-06
 0.17299995E+01 -0.10198E-06
 0.17799996E+01  0.19134E-06
 0.18299996E+01  0.29539E-07
 0.18799995E+01 -0.17084E-06
 0.19299996E+01  0.17752E-06
 0.19799995E+01 -0.63085E-08
 0.20299995E+01 -0.58682E-07
 0.20799997E+01  0.14968E-06
 0.21299996E+01  0.79520E-07
 0.21799996E+01 -0.14202E-06
 0.22299995E+01  0.14087E-06
 0.22799995E+01  0.15523E-06
 0.23299997E+01 -0.24678E-06
 0.23799996E+01  0.22691E-06
 0.24299996E+01 -0.14857E-07
 0.24799995E+01 -0.17798E-06
 0.25299995E+01  0.63782E-07
 0.25799997E+01  0.54666E-07
 0.26299996E+01 -0.70793E-07
 0.26799996E+01 -0.14516E-06
 0.27299995E+01  0.19657E-06
 0.27799995E+01 -0.10456E-06
 0.28299997E+01 -0.84152E-07
 0.28799996E+01  0.10482E-06
 0.29299996E+01 -0.19346E-08
 0.29799995E+01 -0.12844E-07
 0.30299995E+01  0.15855E-06
 0.30799997E+01 -0.51452E-07
 0.31299996E+01 -0.29846E-06
 0.31799996E+01  0.12139E-06
 0.32299995E+01 -0.34192E-09
 0.32799995E+01 -0.56581E-07
 0.33299997E+01 -0.25967E-07
 0.33799996E+01 -0.50953E-07
 0.34299996E+01 -0.79550E-07
 0.34799995E+01  0.23309E-07
 0.35299995E+01  0.10455E-07
 0.35799997E+01 -0.24327E-06
 0.36299996E+01  0.21620E-06
 0.36799996E+01 -0.14103E-06
 0.37299995E+01 -0.20779E-06
 0.37799995E+01  0.25948E-06
 0.38299997E+01 -0.12297E-06
 0.38799996E+01  0.66553E-09
 0.39299996E+01  0.50276E-07
 0.39799995E+01 -0.16947E-06
 0.40299997E+01 -0.35889E-07
 0.40799994E+01  0.12550E-06
 0.41299996E+01 -0.51845E-07
 0.41799998E+01 -0.50314E-07
 0.42299995E+01  0.50795E-07
 0.42799997E+01  0.62387E-07
 0.43299994E+01  0.84973E-07
 0.43799996E+01 -0.11518E-06
 0.44299998E+01  0.69605E-07
 0.44799995E+01  0.66058E-08
 0.45299997E+01 -0.31861E-07
 0.45799994E+01  0.15425E-06
 0.46299996E+01  0.20608E-06
 0.46799998E+01 -0.33603E-07
 0.47299995E+01 -0.24754E-07
 0.47799997E+01  0.22693E-06
 0.48299994E+01 -0.55581E-07
 0.48799996E+01  0.96486E-07
 0.49299998E+01 -0.18254E-07
 0.49799995E+01 -0.93874E-07
 0.50299997E+01 -0.15496E-07
 0.50799994E+01  0.96714E-07
 0.51299996E+01  0.70997E-07
 0.51799998E+01 -0.19028E-06
 0.52299995E+01  0.73460E-07
 0.52799997E+01 -0.91875E-07
 0.53299994E+01 -0.39099E-07
 0.53799996E+01  0.24021E-07
 0.54299998E+01 -0.19728E-07
 0.54799995E+01 -0.51345E-07
 0.55299997E+01 -0.67498E-07
 0.55799994E+01  0.75912E-07
 0.56299996E+01 -0.46431E-07
 0.56799998E+01 -0.38877E-08
 0.57299995E+01 -0.58179E-07
 0.57799997E+01  0.48705E-07
 0.58299994E+01 -0.57431E-07
 0.58799996E+01 -0.41879E-07
 0.59299998E+01  0.29481E-07
 0.59799995E+01 -0.78965E-07
 0.60299997E+01  0.11666E-06
 0.60799994E+01 -0.34466E-08
 0.61299996E+01 -0.13127E-07
 0.61799998E+01  0.22943E-08
 0.62299995E+01 -0.70918E-07
 0.62799997E+01  0.56336E-07
 0.63299994E+01  0.71430E-09
 0.63799996E+01 -0.11917E-06
 0.64299998E+01  0.65770E-07
 0.64799995E+01  0.17848E-06
 0.65299997E+01 -0.91541E-07
 0.65799994E+01 -0.52642E-07
 0.66299996E+01  0.18249E-06
 0.66799998E+01 -0.15459E-06
 0.67299995E+01 -0.41506E-07
 0.67799997E+01  0.20472E-06
 0.68299994E+01 -0.64491E-07
 0.68799996E+01 -0.51524E-07
 0.69299998E+01  0.10352E-06
 0.69799995E+01  0.56167E-07
 0.70299997E+01 -0.79121E-07
 0.70799994E+01  0.10219E-06
 0.71299996E+01 -0.29239E-07
 0.71799998E+01 -0.11941E-06
 0.72299995E+01  0.90161E-07
 0.72799997E+01 -0.57971E-07
 0.73299994E+01 -0.13186E-06
 0.73799996E+01  0.72282E-07
 0.74299998E+01  0.28890E-07
 0.74799995E+01 -0.23687E-07
 0.75299997E+01  0.43695E-08
 0.75799994E+01 -0.76543E-07
 0.76299996E+01  0.52791E-08
 0.76799998E+01  0.16144E-06
 0.77299995E+01  0.13012E-06
 0.77799997E+01 -0.70792E-07
 0.78299994E+01  0.19759E-06
 0.78799996E+01 -0.11980E-06
 0.79299998E+01 -0.67240E-07
 0.79799995E+01  0.25519E-06
 0.80299997E+01 -0.21322E-06
 0.80799999E+01 -0.66283E-07
 0.81300001E+01  0.19336E-06
 0.81799994E+01 -0.85472E-07
 0.82299995E+01 -0.36525E-06
 0.82799997E+01  0.39409E-06
 0.83299999E+01 -0.42511E-07
 0.83800001E+01 -0.33886E-06
 0.84299994E+01  0.28468E-06
 0.84799995E+01 -0.25943E-06
 0.85299997E+01  0.30732E-07
 0.85799999E+01  0.91935E-07
 0.86300001E+01 -0.28043E-07
 0.86799994E+01 -0.10294E-06
 0.87299995E+01 -0.40042E-07
 0.87799997E+01  0.10187E-06
 0.88299999E+01 -0.30602E-06
 0.88800001E+01  0.16413E-06
 0.89299994E+01 -0.47086E-07
 0.89799995E+01 -0.33514E-06
 0.90299997E+01  0.14919E-06
 0.90799999E+01 -0.10852E-06
 0.91300001E+01 -0.11036E-06
 0.91799994E+01  0.24998E-06
 0.92299995E+01  0.13386E-06
 0.92799997E+01 -0.93539E-07
 0.93299999E+01  0.23107E-06
 0.93800001E+01  0.12154E-06
 0.94299994E+01 -0.19118E-06
 0.94799995E+01  0.13840E-06
 0.95299997E+01 -0.25105E-07
 0.95799999E+01  0.17635E-06
 0.96300001E+01 -0.23081E-06
 0.96799994E+01  0.44405E-06
 0.97299995E+01 -0.82478E-06
 0.97799997E+01  0.93346E-08
 0.98299999E+01 -0.47925E-06
 0.98800001E+01 -0.86110E-06
 0.99299994E+01  0.41599E-05
 0.99799995E+01  0.13186E-04
 0.10030000E+02  0.55096E-04
 0.10080000E+02  0.12097E-03
 0.10130000E+02  0.21380E-03
 0.10179999E+02  0.22990E-03
 0.10230000E+02  0.11415E-03
 0.10280000E+02 -0.82972E-04
 0.10330000E+02 -0.29532E-03
 0.10380000E+02 -0.31448E-03
 0.10429999E+02 -0.27333E-03
 0.10480000E+02 -0.20131E-03
 0.10530000E+02 -0.98259E-04
 0.10580000E+02 -0.76808E-04
 0.10630000E+02  0.24772E-04
 0.10679999E+02  0.13248E-03
 0.10730000E+02  0.24723E-03
 0.10780000E+02  0.22790E-03
 0.10830000E+02  0.16760E-03
 0.10880000E+02  0.17010E-03
 0.10929999E+02  0.28154E-04
 0.10980000E+02 -0.49000E-04
 0.11030000E+02 -0.20443E-03
 0.11080000E+02 -0.25660E-03
 0.11130000E+02 -0.11382E-03
 0.11179999E+02 -0.39948E-04
 0.11230000E+02  0.21637E-04
 0.11280000E+02 -0.37344E-04
 0.11330000E+02  0.57084E-04
 0.11380000E+02  0.10226E-03
 0.11429999E+02  0.84327E-04
 0.11480000E+02  0.13678E-03
 0.11530000E+02 -0.45110E-04
 0.11580000E+02 -0.10547E-03
 0.11630000E+02 -0.12873E-03
 0.11679999E+02  0.83318E-05
 0.11730000E+02  0.12511E-03
 0.11780000E+02 -0.24857E-04
 0.11830000E+02  0.62643E-04
 0.11880000E+02  0.86906E-04
 0.11929999E+02  0.69290E-04
 0.11980000E+02  0.45738E-04
 0.12030000E+02  0.18391E-04
 0.12080000E+02  0.30646E-04
 0.12130000E+02 -0.47119E-04
 0.12179999E+02  0.34928E-04
 0.12230000E+02  0.21394E-04
 0.12280000E+02 -0.75184E-04
 0.12330000E+02 -0.10876E-03
 0.12380000E+02 -0.10474E-03
 0.12429999E+02 -0.14995E-03
 0.12480000E+02 -0.22415E-03
 0.12530000E+02 -0.76200E-04
 0.12580000E+02 -0.85639E-05
 0.12630000E+02  0.61919E-04
 0.12679999E+02  0.20606E-03
 0.12730000E+02  0.11059E-03
 0.12780000E+02  0.39885E-04
 0.12830000E+02  0.15980E-03
 0.12880000E+02  0.18635E-03
 0.12929999E+02  0.29212E-04
 0.12980000E+02 -0.38507E-04
 0.13030000E+02 -0.64692E-04
 0.13080000E+02 -0.10323E-03
 0.13130000E+02  0.34168E-05
 0.13179999E+02 -0.25242E-04
 0.13230000E+02 -0.77814E-04
 0.13280000E+02 -0.52476E-04
 0.13330000E+02  0.22829E-05
 0.13380000E+02  0.12220E-03
 0.13429999E+02  0.89396E-05
 0.13480000E+02 -0.81318E-04
 0.13530000E+02 -0.11215E-03
 0.13580000E+02 -0.94340E-04
 0.13630000E+02  0.65192E-05
 0.13679999E+02 -0.42076E-04
 0.13730000E+02  0.36508E-04
 0.13780000E+02  0.12555E-03
 0.13830000E+02  0.10495E-03
 0.13880000E+02  0.68649E-04
 0.13929999E+02 -0.67105E-05
 0.13980000E+02  0.22884E-04
 0.14030000E+02  0.89795E-04
 0.14080000E+02  0.14513E-03
 0.14130000E+02  0.14551E-04
 0.14179999E+02 -0.19189E-03
 0.14230000E+02 -0.10390E-03
 0.14280000E+02 -0.25065E-04
 0.14330000E+02 -0.63982E-04
 0.14380000E+02 -0.10857E-03
 0.14429999E+02 -0.15662E-03
 0.14480000E+02 -0.13304E-03
 0.14530000E+02  0.45244E-05
 0.14580000E+02  0.16576E-03
 0.14630000E+02  0.14021E-03
 0.14679999E+02  0.84495E-04
 0.14730000E+02  0.11312E-03
 0.14780000E+02  0.18906E-03
 0.14830000E+02  0.19489E-03
 0.14880000E+02  0.67478E-04
 0.14929999E+02 -0.59052E-04
 0.14980000E+02 -0.15210E-03
 0.15030000E+02 -0.16963E-03
 0.15080000E+02 -0.69893E-04
 0.15130000E+02 -0.86612E-05
 0.15179999E+02 -0.90672E-04
 0.15230000E+02 -0.17928E-03
 0.15280000E+02 -0.21298E-03
 0.15330000E+02 -0.49488E-04
 0.15380000E+02  0.10194E-03
 0.15429999E+02  0.82894E-04
 0.15480000E+02  0.12622E-03
 0.15530000E+02  0.16076E-03
 0.15580000E+02  0.15622E-03
 0.15630000E+02  0.86063E-04
 0.15679999E+02  0.42162E-04
 0.15730000E+02 -0.45370E-04
 0.15780000E+02 -0.19356E-03
 0.15830000E+02 -0.12390E-03
 0.15880000E+02 -0.46871E-04
 0.15929999E+02 -0.75599E-04
 0.15980000E+02 -0.71463E-04
 0.16030001E+02  0.46014E-04
 0.16080000E+02  0.15755E-03
 0.16129999E+02  0.24805E-04
 0.16180000E+02 -0.41343E-04
 0.16230000E+02  0.10417E-03
 0.16280001E+02  0.10534E-03
 0.16330000E+02 -0.20532E-04
 0.16379999E+02 -0.10096E-03
 0.16430000E+02 -0.68942E-04
 0.16480000E+02  0.54463E-04
 0.16530001E+02  0.92166E-04
 0.16580000E+02  0.61995E-04
 0.16629999E+02  0.12288E-04
 0.16680000E+02 -0.86999E-04
 0.16730000E+02 -0.17249E-03
 0.16780001E+02 -0.16774E-03
 0.16830000E+02 -0.23734E-05
 0.16879999E+02  0.93280E-04
 0.16930000E+02 -0.11646E-03
 0.16980000E+02 -0.36975E-03
 0.17030001E+02 -0.61853E-03
 0.17080000E+02 -0.75089E-03
 0.17129999E+02 -0.55505E-03
 0.17180000E+02 -0.30788E-03
 0.17230000E+02  0.78405E-04
 0.17280001E+02  0.67570E-03
 0.17330000E+02  0.14249E-02
 0.17379999E+02  0.17592E-02
 0.17430000E+02  0.13335E-02
 0.17480000E+02  0.88048E-03
 0.17530001E+02  0.63866E-03
 0.17580000E+02  0.50800E-03
 0.17629999E+02 -0.32012E-04
 0.17680000E+02 -0.10156E-02
 0.17730000E+02 -0.19459E-02
 0.17780001E+02 -0.22518E-02
 0.17830000E+02 -0.16952E-02
 0.17879999E+02 -0.95894E-03
 0.17930000E+02 -0.26202E-04
 0.17980000E+02  0.50652E-03
 0.18030001E+02  0.70581E-03
 0.18080000E+02  0.13400E-02
 0.18129999E+02  0.11832E-02
 0.18180000E+02  0.64941E-03
 0.18230000E+02  0.74976E-03
 0.18280001E+02  0.82146E-03
 0.18330000E+02  0.55707E-03
 0.18379999E+02 -0.16414E-03
 0.18430000E+02 -0.94464E-03
 0.18480000E+02 -0.14596E-02
 0.18530001E+02 -0.11181E-02
 0.18580000E+02 -0.37876E-03
 0.18629999E+02 -0.33635E-03
 0.18680000E+02 -0.57936E-04
 0.18730000E+02  0.30788E-03
 0.18780001E+02  0.39774E-03
 0.18830000E+02  0.47319E-03
 0.18879999E+02  0.32383E-03
 0.18930000E+02  0.31964E-03
 0.18980000E+02  0.27071E-03
 0.19030001E+02  0.13485E-03
 0.19080000E+02 -0.11475E-03
 0.19129999E+02 -0.39758E-03
 0.19180000E+02 -0.25489E-03
 0.19230000E+02 -0.31045E-03
 0.19280001E+02 -0.37556E-03
 0.19330000E+02 -0.12136E-03
 0.19379999E+02  0.15287E-03
 0.19430000E+02  0.49151E-03
 0.19480000E+02  0.52522E-03
 0.19530001E+02  0.33479E-03
 0.19580000E+02  0.37137E-04
 0.19629999E+02 -0.16076E-03
 0.19680000E+02 -0.40916E-03
 0.19730000E+02 -0.85372E-03
 0.19780001E+02 -0.62043E-03
 0.19830000E+02 -0.51735E-04
 0.19879999E+02  0.19823E-03
 0.19930000E+02  0.40988E-03
 0.19980000E+02  0.60263E-03
 0.20030001E+02  0.59480E-03
 0.20080000E+02  0.56522E-03
 0.20129999E+02  0.39973E-03
 0.20180000E+02  0.79932E-04
 0.20230000E+02  0.17841E-04
 0.20280001E+02 -0.77426E-04
 0.20330000E+02 -0.49822E-03
 0.20379999E+02 -0.83027E-03
 0.20430000E+02 -0.78325E-03
 0.20480000E+02 -0.88987E-03
 0.20530001E+02 -0.95323E-03
 0.20580000E+02 -0.45147E-03
 0.20629999E+02  0.42220E-04
 0.20680000E+02  0.50120E-03
 0.20730000E+02  0.10027E-02
 0.20780001E+02  0.10714E-02
 0.20830000E+02  0.78489E-03
 0.20879999E+02  0.68572E-03
 0.20930000E+02  0.68644E-03
 0.20980000E+02  0.46176E-03
 0.21030001E+02  0.12498E-03
 0.21080000E+02 -0.17329E-03
 0.21129999E+02 -0.35492E-03
 0.21180000E+02 -0.56861E-03
 0.21230000E+02 -0.61123E-03
 0.21280001E+02 -0.38959E-03
 0.21330000E+02 -0.30470E-03
 0.21379999E+02 -0.37610E-03
 0.21430000E+02 -0.44746E-03
 0.21480000E+02 -0.34040E-03
 0.21530001E+02 -0.12456E-03
 0.21580000E+02 -0.68480E-04
 0.21629999E+02 -0.38407E-04
 0.21680000E+02  0.57590E-05
 0.21730000E+02  0.25663E-04
 0.21780001E+02  0.26100E-03
 0.21830000E+02  0.49101E-03
 0.21879999E+02  0.53616E-03
 0.21930000E+02  0.66640E-03
 0.21980000E+02  0.78519E-03
 0.22030001E+02  0.53534E-03
 0.22080000E+02 -0.11835E-04
 0.22129999E+02 -0.24166E-03
 0.22180000E+02 -0.25219E-03
 0.22230000E+02 -0.32170E-03
 0.22280001E+02 -0.33278E-03
 0.22330000E+02 -0.36969E-03
 0.22379999E+02 -0.19288E-03
 0.22430000E+02  0.32862E-04
 0.22480000E+02  0.12467E-03
 0.22530001E+02  0.68386E-04
 0.22580000E+02 -0.16479E-03
 0.22629999E+02 -0.34305E-03
 0.22680000E+02 -0.45128E-03
 0.22730000E+02 -0.25209E-03
 0.22780001E+02 -0.12900E-03
 0.22830000E+02 -0.14774E-03
 0.22879999E+02  0.89424E-04
 0.22930000E+02  0.12201E-03
 0.22980000E+02  0.82916E-04
 0.23030001E+02  0.15490E-03
 0.23080000E+02  0.33213E-03
 0.23129999E+02  0.49615E-03
 0.23180000E+02  0.38398E-03
 0.23230000E+02  0.33505E-03
 0.23280001E+02  0.29638E-03
 0.23330000E+02  0.14110E-03
 0.23379999E+02 -0.77850E-05
 0.23430000E+02 -0.13244E-03
 0.23480000E+02 -0.23089E-03
 0.23530001E+02 -0.34554E-03
 0.23580000E+02 -0.45959E-03
 0.23629999E+02 -0.54437E-03
 0.23680000E+02 -0.52551E-03
 0.23730000E+02 -0.35856E-03
 0.23780001E+02 -0.11348E-03
 0.23830000E+02  0.74899E-04
 0.23879999E+02  0.26467E-03
 0.23930000E+02  0.41566E-03
 0.23980000E+02  0.47610E-03
 0.24030001E+02  0.47168E-03
 0.24080000E+02  0.32642E-03
 0.24129999E+02  0.12691E-03
 0.24180000E+02 -0.10397E-03
 0.24230000E+02 -0.31067E-03
 0.24280001E+02 -0.37857E-03
 0.24330000E+02 -0.25839E-03
 0.24379999E+02 -0.14006E-04
 0.24430000E+02  0.63720E-04
 0.24480000E+02 -0.74443E-04
 0.24530001E+02 -0.10920E-03
 0.24580000E+02 -0.68192E-04
 0.24629999E+02 -0.74692E-04
 0.24680000E+02  0.10787E-05
 0.24730000E+02  0.46423E-04
 0.24780001E+02 -0.59751E-05
 0.24830000E+02 -0.12153E-04
 0.24879999E+02  0.47020E-04
 0.24930000E+02  0.86339E-04
 0.24980000E+02  0.21791E-03
 0.25030001E+02  0.30475E-03
 0.25080000E+02  0.16762E-03
 0.25129999E+02  0.90137E-04
 0.25180000E+02  0.51107E-04
 0.25230000E+02  0.29938E-04
 0.25280001E+02  0.74986E-04
 0.25330000E+02  0.21731E-04
 0.25379999E+02 -0.32234E-04
 0.25430000E+02  0.84511E-05
 0.25480000E+02  0.10726E-03
 0.25530001E+02  0.21665E-03
 0.25580000E+02  0.14836E-03
 0.25629999E+02 -0.73944E-04
 0.25680000E+02 -0.22223E-03
 0.25730000E+02 -0.33067E-03
 0.25780001E+02 -0.46806E-03
 0.25830000E+02 -0.46334E-03
 0.25879999E+02 -0.26410E-03
 0.25930000E+02 -0.15404E-03
 0.25980000E+02 -0.98396E-04
 0.26030001E+02  0.59717E-04
 0.26080000E+02  0.93297E-04
 0.26129999E+02  0.66228E-04
 0.26180000E+02  0.12364E-03
 0.26230000E+02  0.14693E-03
 0.26280001E+02  0.68212E-04
 0.26330000E+02  0.31825E-04
 0.26379999E+02  0.92036E-04
 0.26430000E+02  0.37594E-05
 0.26480000E+02 -0.75205E-04
 0.26530001E+02 -0.26509E-04
 0.26580000E+02 -0.53593E-04
 0.26629999E+02 -0.84811E-05
 0.26680000E+02  0.17064E-03
 0.26730000E+02  0.35482E-03
 0.26780001E+02  0.49139E-03
 0.26830000E+02  0.49076E-03
 0.26879999E+02  0.30929E-03
 0.26930000E+02  0.79744E-04
 0.26980000E+02 -0.23605E-04
 0.27030001E+02 -0.65197E-04
 0.27080000E+02 -0.11776E-03
 0.27129999E+02 -0.16533E-03
 0.27180000E+02 -0.24189E-03
 0.27230000E+02 -0.31744E-03
 0.27280001E+02 -0.31135E-03
 0.27330000E+02 -0.17311E-03
 0.27379999E+02 -0.71596E-04
 0.27430000E+02 -0.32517E-04
 0.27480000E+02 -0.13273E-04
 0.27530001E+02 -0.12688E-03
 0.27580000E+02 -0.17204E-03
 0.27629999E+02 -0.83987E-04
 0.27680000E+02 -0.25312E-05
 0.27730000E+02  0.52692E-04
 0.27780001E+02  0.50484E-04
 0.27830000E+02  0.95118E-04
 0.27879999E+02  0.16373E-03
 0.27930000E+02  0.12436E-03
 0.27980000E+02  0.10771E-03
 0.28030001E+02  0.89193E-04
 0.28080000E+02 -0.28582E-05
 0.28129999E+02 -0.19755E-04
 0.28180000E+02 -0.15545E-04
 0.28230000E+02 -0.28503E-04
 0.28280001E+02  0.74692E-05
 0.28330000E+02 -0.59383E-05
 0.28379999E+02 -0.37725E-04
 0.28430000E+02  0.15522E-04
 0.28480000E+02  0.62690E-04
 0.28530001E+02  0.41753E-04
 0.28580000E+02  0.43945E-05
 0.28629999E+02 -0.58655E-04
 0.28680000E+02 -0.16511E-03
 0.28730000E+02 -0.20513E-03
 0.28780001E+02 -0.17080E-03
 0.28830000E+02 -0.10137E-03
 0.28879999E+02 -0.21184E-04
 0.28930000E+02  0.35414E-04
 0.28980000E+02  0.15176E-03
 0.29030001E+02  0.20940E-03
 0.29080000E+02  0.17660E-03
 0.29129999E+02  0.13061E-03
 0.29180000E+02  0.33623E-05
 0.29230000E+02 -0.94344E-04
 0.29280001E+02 -0.12979E-03
 0.29330000E+02 -0.13636E-03
 0.29379999E+02 -0.65134E-04
 0.29430000E+02  0.72430E-04
 0.29480000E+02  0.16388E-03
 0.29530001E+02  0.14943E-03
 0.29580000E+02  0.18450E-03
 0.29629999E+02  0.22474E-03
 0.29680000E+02  0.14661E-03
 0.29730000E+02  0.36535E-04
 0.29780001E+02 -0.99757E-04
 0.29830000E+02 -0.22011E-03
 0.29879999E+02 -0.28118E-03
 0.29930000E+02 -0.29810E-03
 0.29980000E+02 -0.21645E-03
 0.30030001E+02 -0.94987E-04
 0.30080000E+02  0.19039E-04
 0.30129999E+02  0.10012E-03
 0.30180000E+02  0.12114E-03
 0.30230000E+02  0.15491E-03
 0.30280001E+02  0.19220E-03
 0.30330000E+02  0.18285E-03
 0.30379999E+02  0.15104E-03
 0.30430000E+02  0.12078E-03
 0.30480000E+02  0.68190E-04
 0.30530001E+02  0.26178E-04
 0.30580000E+02 -0.35149E-05
 0.30629999E+02 -0.72012E-04
 0.30680000E+02 -0.11798E-03
 0.30730000E+02 -0.12214E-03
 0.30780001E+02 -0.11542E-03
 0.30830000E+02 -0.98792E-04
 0.30879999E+02 -0.98544E-04
 0.30930000E+02 -0.13086E-03
 0.30980000E+02 -0.13321E-03
 0.31030001E+02 -0.72374E-04
 0.31080000E+02 -0.89611E-04
 0.31129999E+02 -0.16665E-03
 0.31180000E+02 -0.13524E-03
 0.31230000E+02 -0.49997E-04
 0.31280001E+02 -0.20196E-04
 0.31330000E+02 -0.13068E-04
 0.31379999E+02  0.63309E-04
 0.31430000E+02  0.14992E-03
 0.31480000E+02  0.19679E-03
 0.31530001E+02  0.22771E-03
 0.31580000E+02  0.21895E-03
 0.31629999E+02  0.22340E-03
 0.31680000E+02  0.16824E-03
 0.31730000E+02  0.61621E-04
 0.31780001E+02  0.50405E-04
 0.31830000E+02  0.72190E-04
 0.31879999E+02  0.39233E-04
 0.31930000E+02 -0.47609E-04
 0.31980000E+02 -0.10591E-03
 0.32029999E+02 -0.14513E-03
 0.32080002E+02 -0.21820E-03
 0.32130001E+02 -0.21709E-03
 0.32180000E+02 -0.16421E-03
 0.32230000E+02 -0.15693E-03
 0.32279999E+02 -0.11448E-03
 0.32330002E+02 -0.26506E-04
 0.32380001E+02  0.42989E-04
 0.32430000E+02  0.13103E-03
 0.32480000E+02  0.18230E-03
 0.32529999E+02  0.13707E-03
 0.32580002E+02  0.72893E-04
 0.32630001E+02  0.45477E-04
 0.32680000E+02  0.74096E-04
 0.32730000E+02  0.87656E-04
 0.32779999E+02  0.54318E-04
 0.32830002E+02  0.54942E-04
 0.32880001E+02  0.60285E-04
 0.32930000E+02  0.67800E-04
 0.32980000E+02  0.10584E-03
 0.33029999E+02  0.83774E-04
 0.33080002E+02  0.22037E-04
 0.33130001E+02  0.71863E-05
 0.33180000E+02 -0.13969E-04
 0.33230000E+02 -0.70301E-04
 0.33279999E+02 -0.14177E-03
 0.33330002E+02 -0.21159E-03
 0.33380001E+02 -0.25544E-03
 0.33430000E+02 -0.24348E-03
 0.33480000E+02 -0.15034E-03
 0.33529999E+02 -0.46957E-04
 0.33580002E+02  0.24771E-04
 0.33630001E+02  0.66195E-04
 0.33680000E+02  0.41540E-04
 0.33730000E+02 -0.39502E-04
 0.33779999E+02 -0.10876E-03
 0.33830002E+02 -0.13399E-03
 0.33880001E+02 -0.13064E-03
 0.33930000E+02 -0.10142E-03
 0.33980000E+02 -0.21795E-04
 0.34029999E+02  0.10424E-03
 0.34080002E+02  0.19894E-03
 0.34130001E+02  0.23585E-03
 0.34180000E+02  0.21534E-03
 0.34230000E+02  0.16398E-03
 0.34279999E+02  0.11877E-03
 0.34330002E+02  0.56631E-04
 0.34380001E+02  0.86667E-05
 0.34430000E+02  0.12886E-04
 0.34480000E+02  0.17331E-04
 0.34529999E+02 -0.15967E-04
 0.34580002E+02 -0.49034E-04
 0.34630001E+02 -0.74691E-04
 0.34680000E+02 -0.45744E-04
 0.34730000E+02  0.55046E-04
 0.34779999E+02  0.12336E-03
 0.34830002E+02  0.15631E-03
 0.34880001E+02  0.12815E-03
 0.34930000E+02  0.17475E-04
 0.34980000E+02 -0.60660E-04
 0.35029999E+02 -0.12940E-03
 0.35080002E+02 -0.22152E-03
 0.35130001E+02 -0.24323E-03
 0.35180000E+02 -0.18350E-03
 0.35230000E+02 -0.10548E-03
 0.35279999E+02 -0.16251E-04
 0.35330002E+02  0.88853E-04
 0.35380001E+02  0.12812E-03
 0.35430000E+02  0.98286E-04
 0.35480000E+02  0.72918E-04
 0.35529999E+02  0.64689E-04
 0.35580002E+02  0.56316E-04
 0.35630001E+02  0.43233E-04
 0.35680000E+02  0.56811E-04
 0.35730000E+02  0.50883E-04
 0.35779999E+02  0.76399E-05
 0.35830002E+02 -0.26096E-04
 0.35880001E+02 -0.57507E-04
 0.35930000E+02 -0.70200E-04
 0.35980000E+02 -0.58354E-04
 0.36029999E+02 -0.39789E-04
 0.36080002E+02 -0.44804E-04
 0.36130001E+02 -0.54965E-04
 0.36180000E+02 -0.33692E-04
 0.36230000E+02 -0.86055E-05
 0.36279999E+02 -0.19332E-05
 0.36330002E+02 -0.18117E-04
 0.36380001E+02 -0.52259E-04
 0.36430000E+02 -0.10271E-03
 0.36480000E+02 -0.15076E-03
 0.36529999E+02 -0.16459E-03
 0.36580002E+02 -0.11545E-03
 0.36630001E+02 -0.29418E-04
 0.36680000E+02  0.67274E-04
 0.36730000E+02  0.15679E-03
 0.36779999E+02  0.17871E-03
 0.36830002E+02  0.16415E-03
 0.36880001E+02  0.15679E-03
 0.36930000E+02  0.17333E-03
 0.36980000E+02  0.18828E-03
 0.37029999E+02  0.13640E-03
 0.37080002E+02  0.66996E-04
 0.37130001E+02  0.37808E-04
 0.37180000E+02  0.15426E-04
 0.37230000E+02 -0.21080E-04
 0.37279999E+02 -0.62338E-04
 0.37330002E+02 -0.11576E-03
 0.37380001E+02 -0.12283E-03
 0.37430000E+02 -0.78475E-04
 0.37480000E+02 -0.60861E-04
 0.37529999E+02 -0.38378E-04
 0.37580002E+02 -0.19205E-05
 0.37630001E+02  0.16949E-04
 0.37680000E+02  0.34667E-04
 0.37730000E+02  0.26926E-04
 0.37779999E+02 -0.27754E-04
 0.37830002E+02 -0.67154E-04
 0.37880001E+02 -0.64235E-04
 0.37930000E+02 -0.49998E-04
 0.37980000E+02 -0.26886E-04
 0.38029999E+02  0.84117E-07
 0.38080002E+02  0.15625E-04
 0.38130001E+02  0.11979E-05
 0.38180000E+02 -0.10726E-04
 0.38230000E+02 -0.12951E-04
 0.38279999E+02 -0.58790E-04
 0.38330002E+02 -0.80838E-04
 0.38380001E+02 -0.38898E-04
 0.38430000E+02 -0.17521E-04
 0.38480000E+02 -0.16028E-04
 0.38529999E+02 -0.96323E-05
 0.38580002E+02 -0.32369E-04
 0.38630001E+02 -0.43494E-04
 0.38680000E+02  0.13298E-04
 0.38730000E+02  0.73678E-04
 0.38779999E+02  0.92355E-04
 0.38830002E+02  0.10737E-03
 0.38880001E+02  0.13001E-03
 0.38930000E+02  0.15351E-03
 0.38980000E+02  0.16169E-03
 0.39029999E+02  0.11697E-03
 0.39080002E+02  0.16189E-06
 0.39130001E+02 -0.11811E-03
 0.39180000E+02 -0.16051E-03
 0.39230000E+02 -0.16831E-03
 0.39279999E+02 -0.16141E-03
 0.39330002E+02 -0.12756E-03
 0.39380001E+02 -0.86994E-04
 0.39430000E+02 -0.17675E-04
 0.39480000E+02  0.54228E-04
 0.39529999E+02  0.79334E-04
 0.39580002E+02  0.10366E-03
 0.39630001E+02  0.15231E-03
 0.39680000E+02  0.17814E-03
 0.39730000E+02  0.15225E-03
 0.39779999E+02  0.98014E-04
 0.39830002E+02  0.50969E-04
 0.39880001E+02  0.83093E-05
 0.39930000E+02 -0.51014E-04
 0.39980000E+02 -0.11147E-03
 0.40029999E+02 -0.14501E-03
 0.40080002E+02 -0.14147E-03
 0.40130001E+02 -0.10099E-03
 0.40180000E+02 -0.69900E-04
 0.40230000E+02 -0.81060E-04
 0.40279999E+02 -0.10866E-03
 0.40330002E+02 -0.10844E-03
 0.40380001E+02 -0.37558E-04
 0.40430000E+02  0.62924E-04
 0.40480000E+02  0.11221E-03
 0.40529999E+02  0.11656E-03
 0.40580002E+02  0.12418E-03
 0.40630001E+02  0.13087E-03
 0.40680000E+02  0.12278E-03
 0.40730000E+02  0.90335E-04
 0.40779999E+02  0.25920E-04
 0.40830002E+02 -0.46510E-04
 0.40880001E+02 -0.11210E-03
 0.40930000E+02 -0.15927E-03
 0.40980000E+02 -0.18294E-03
 0.41029999E+02 -0.16488E-03
 0.41080002E+02 -0.10940E-03
 0.41130001E+02 -0.46780E-04
 0.41180000E+02  0.14858E-04
 0.41230000E+02  0.52527E-04
 0.41279999E+02  0.70773E-04
 0.41330002E+02  0.89309E-04
 0.41380001E+02  0.98204E-04
 0.41430000E+02  0.84599E-04
 0.41480000E+02  0.74435E-04
 0.41529999E+02  0.73410E-04
 0.41580002E+02  0.49351E-04
 0.41630001E+02  0.83654E-05
 0.41680000E+02 -0.15143E-04
 0.41730000E+02  0.71155E-05
 0.41779999E+02  0.34464E-04
 0.41830002E+02  0.42492E-04
 0.41880001E+02  0.48994E-04
 0.41930000E+02  0.32153E-04
 0.41980000E+02  0.47344E-05
 0.42029999E+02  0.14906E-05
 0.42080002E+02  0.10679E-04
 0.42130001E+02  0.40030E-06
 0.42180000E+02 -0.11190E-04
 0.42230000E+02 -0.32755E-05
 0.42279999E+02 -0.62633E-05
 0.42330002E+02 -0.36515E-04
 0.42380001E+02 -0.79722E-04
 0.42430000E+02 -0.10741E-03
 0.42480000E+02 -0.11256E-03
 0.42529999E+02 -0.10555E-03
 0.42580002E+02 -0.10315E-03
 0.42630001E+02 -0.11470E-03
 0.42680000E+02 -0.10992E-03
 0.42730000E+02 -0.68822E-04
 0.42779999E+02 -0.14064E-05
 0.42830002E+02  0.80225E-04
 0.42880001E+02  0.16447E-03
 0.42930000E+02  0.20705E-03
 0.42980000E+02  0.17719E-03
 0.43029999E+02  0.11621E-03
 0.43080002E+02  0.64643E-04
 0.43130001E+02  0.20136E-04
 0.43180000E+02 -0.32692E-04
 0.43230000E+02 -0.60480E-04
 0.43279999E+02 -0.46908E-04
 0.43330002E+02 -0.41444E-04
 0.43380001E+02 -0.48546E-04
 0.43430000E+02 -0.55871E-04
 0.43480000E+02 -0.68174E-04
 0.43529999E+02 -0.82680E-04
 0.43580002E+02 -0.82161E-04
 0.43630001E+02 -0.53704E-04
 0.43680000E+02 -0.18231E-04
 0.43730000E+02  0.18183E-04
 0.43779999E+02  0.55524E-04
 0.43830002E+02  0.80141E-04
 0.43880001E+02  0.86726E-04
 0.43930000E+02  0.71972E-04
 0.43980000E+02  0.36674E-04
 0.44029999E+02  0.84861E-05
 0.44080002E+02  0.19055E-04
 0.44130001E+02  0.57048E-04
 0.44180000E+02  0.65970E-04
 0.44230000E+02  0.43023E-04
 0.44279999E+02  0.45917E-04
 0.44330002E+02  0.63882E-04
 0.44380001E+02  0.83784E-04
 0.44430000E+02  0.83596E-04
 0.44480000E+02  0.24927E-04
 0.44529999E+02 -0.33260E-04
 0.44580002E+02 -0.47437E-04
 0.44630001E+02 -0.49238E-04
 0.44680000E+02 -0.68606E-04
 0.44730000E+02 -0.96374E-04
 0.44779999E+02 -0.12166E-03
 0.44830002E+02 -0.14748E-03
 0.44880001E+02 -0.15849E-03
 0.44930000E+02 -0.14764E-03
 0.44980000E+02 -0.10753E-03
 0.45029999E+02 -0.61586E-04
 0.45080002E+02 -0.38924E-04
 0.45130001E+02 -0.11882E-04
 0.45180000E+02  0.29268E-04
 0.45230000E+02  0.71721E-04
 0.45279999E+02  0.10480E-03
 0.45330002E+02  0.10949E-03
 0.45380001E+02  0.67791E-04
 0.45430000E+02  0.21938E-04
 0.45480000E+02  0.31356E-04
 0.45529999E+02  0.47862E-04
 0.45580002E+02  0.49526E-04
 0.45630001E+02  0.61120E-04
 0.45680000E+02  0.61065E-04
 0.45730000E+02  0.50832E-04
 0.45779999E+02  0.46159E-04
 0.45830002E+02  0.39759E-04
 0.45880001E+02  0.87613E-05
 0.45930000E+02 -0.30728E-04
 0.45980000E+02 -0.53369E-04
 0.46029999E+02 -0.82516E-04
 0.46080002E+02 -0.10021E-03
 0.46130001E+02 -0.76147E-04
 0.46180000E+02 -0.44516E-04
 0.46230000E+02 -0.95012E-05
 0.46279999E+02  0.40594E-04
 0.46330002E+02  0.71242E-04
 0.46380001E+02  0.66339E-04
 0.46430000E+02  0.56780E-04
 0.46480000E+02  0.60748E-04
 0.46529999E+02  0.51749E-04
 0.46580002E+02  0.25180E-04
 0.46630001E+02 -0.41681E-05
 0.46680000E+02 -0.26482E-04
 0.46730000E+02 -0.29010E-04
 0.46779999E+02 -0.24291E-04
 0.46830002E+02 -0.27288E-04
 0.46880001E+02 -0.31108E-04
 0.46930000E+02 -0.32534E-04
 0.46980000E+02 -0.41512E-04
 0.47029999E+02 -0.35718E-04
 0.47080002E+02 -0.31911E-05
 0.47130001E+02  0.77330E-05
 0.47180000E+02  0.13830E-05
 0.47230000E+02  0.14437E-04
 0.47279999E+02  0.26684E-04
 0.47330002E+02  0.18486E-04
 0.47380001E+02  0.20896E-05
 0.47430000E+02 -0.98815E-05
 0.47480000E+02 -0.22003E-04
 0.47529999E+02 -0.15801E-04
 0.47580002E+02 -0.87663E-05
 0.47630001E+02 -0.49941E-04
 0.47680000E+02 -0.95411E-04
 0.47730000E+02 -0.86639E-04
 0.47779999E+02 -0.37629E-04
 0.47830002E+02  0.30621E-05
 0.47880001E+02  0.28888E-04
 0.47930000E+02  0.56918E-04
 0.47980000E+02  0.76865E-04
 0.48029999E+02  0.90464E-04
 0.48080002E+02  0.95147E-04
 0.48130001E+02  0.81603E-04
 0.48180000E+02  0.52220E-04
 0.48230000E+02  0.19664E-04
 0.48279999E+02 -0.45969E-05
 0.48330002E+02 -0.31927E-04
 0.48380001E+02 -0.55962E-04
 0.48430000E+02 -0.69436E-04
 0.48480000E+02 -0.75263E-04
 0.48529999E+02 -0.65397E-04
 0.48580002E+02 -0.58325E-04
 0.48630001E+02 -0.49131E-04
 0.48680000E+02 -0.17266E-04
 0.48730000E+02  0.24672E-04
 0.48779999E+02  0.56288E-04
 0.48830002E+02  0.65900E-04
 0.48880001E+02  0.67854E-04
 0.48930000E+02  0.61919E-04
 0.48980000E+02  0.45099E-04
 0.49029999E+02  0.22514E-04
 0.49080002E+02 -0.16883E-04
 0.49130001E+02 -0.50812E-04
 0.49180000E+02 -0.53555E-04
 0.49230000E+02 -0.32777E-04
 0.49279999E+02  0.35986E-05
 0.49330002E+02  0.32849E-04
 0.49380001E+02  0.36137E-04
 0.49430000E+02  0.38011E-04
 0.49480000E+02  0.49258E-04
 0.49529999E+02  0.43009E-04
 0.49580002E+02  0.14152E-04
 0.49630001E+02 -0.17519E-04
 0.49680000E+02 -0.35548E-04
 0.49730000E+02 -0.34138E-04
 0.49779999E+02 -0.22742E-04
 0.49830002E+02 -0.14959E-04
 0.49880001E+02 -0.19421E-04
 0.49930000E+02 -0.30603E-04
 0.49980000E+02 -0.29023E-04
 0.50029999E+02 -0.15959E-04
 0.50080002E+02 -0.16515E-04
 0.50130001E+02 -0.19652E-04
 0.50180000E+02 -0.21501E-05
 0.50230000E+02  0.14799E-04
 0.50279999E+02  0.13890E-04
 0.50330002E+02  0.13803E-04
 0.50380001E+02  0.26457E-04
 0.50430000E+02  0.33610E-04
 0.50480000E+02  0.25412E-04
 0.50529999E+02 -0.47287E-05
 0.50580002E+02 -0.54996E-04
 0.50630001E+02 -0.80348E-04
 0.50680000E+02 -0.58926E-04
 0.50730000E+02 -0.18004E-04
 0.50779999E+02  0.23335E-04
 0.50830002E+02  0.58269E-04
 0.50880001E+02  0.73091E-04
 0.50930000E+02  0.65911E-04
 0.50980000E+02  0.53770E-04
 0.51029999E+02  0.31876E-04
 0.51080002E+02 -0.13484E-04
 0.51130001E+02 -0.60949E-04
 0.51180000E+02 -0.77792E-04
 0.51230000E+02 -0.67773E-04
 0.51279999E+02 -0.44656E-04
 0.51330002E+02 -0.65525E-05
 0.51380001E+02  0.21975E-04
 0.51430000E+02  0.33845E-04
 0.51480000E+02  0.42086E-04
 0.51529999E+02  0.34292E-04
 0.51580002E+02  0.12873E-04
 0.51630001E+02 -0.72180E-05
 0.51680000E+02 -0.13010E-04
 0.51730000E+02 -0.10516E-04
 0.51779999E+02 -0.23753E-04
 0.51830002E+02 -0.34650E-04
 0.51880001E+02 -0.12993E-04
 0.51930000E+02  0.25694E-04
 0.51980000E+02  0.50838E-04
 0.52029999E+02  0.55450E-04
 0.52080002E+02  0.45218E-04
 0.52130001E+02  0.17597E-04
 0.52180000E+02 -0.15376E-04
 0.52230000E+02 -0.41866E-04
 0.52279999E+02 -0.58164E-04
 0.52330002E+02 -0.55029E-04
 0.52380001E+02 -0.42083E-04
 0.52430000E+02 -0.29857E-04
 0.52480000E+02 -0.25507E-04
 0.52529999E+02 -0.29714E-04
 0.52580002E+02 -0.26355E-04
 0.52630001E+02 -0.70792E-05
 0.52680000E+02  0.24070E-04
 0.52730000E+02  0.57204E-04
 0.52779999E+02  0.93341E-04
 0.52830002E+02  0.12185E-03
 0.52880001E+02  0.11244E-03
 0.52930000E+02  0.77111E-04
 0.52980000E+02  0.44041E-04
 0.53029999E+02  0.63386E-05
 0.53080002E+02 -0.37271E-04
 0.53130001E+02 -0.65191E-04
 0.53180000E+02 -0.70899E-04
 0.53230000E+02 -0.64504E-04
 0.53279999E+02 -0.46150E-04
 0.53330002E+02 -0.24087E-04
 0.53380001E+02 -0.13078E-04
 0.53430000E+02 -0.17593E-04
 0.53480000E+02 -0.33967E-04
 0.53529999E+02 -0.43155E-04
 0.53580002E+02 -0.39968E-04
 0.53630001E+02 -0.26961E-04
 0.53680000E+02 -0.49578E-05
 0.53730000E+02  0.72043E-05
 0.53779999E+02  0.14213E-04
 0.53830002E+02  0.32257E-04
 0.53880001E+02  0.53399E-04
 0.53930000E+02  0.62870E-04
 0.53980000E+02  0.44972E-04
 0.54029999E+02  0.10185E-04
 0.54080002E+02 -0.14598E-04
 0.54130001E+02 -0.22418E-04
 0.54180000E+02 -0.24016E-04
 0.54230000E+02 -0.29560E-04
 0.54279999E+02 -0.29106E-04
 0.54330002E+02 -0.15398E-04
 0.54380001E+02  0.52945E-05
 0.54430000E+02  0.18930E-04
 0.54480000E+02  0.20638E-04
 0.54529999E+02  0.24100E-04
 0.54580002E+02  0.23778E-04
 0.54630001E+02  0.15881E-04
 0.54680000E+02  0.18611E-04
 0.54730000E+02  0.31288E-04
 0.54779999E+02  0.38109E-04
 0.54830002E+02  0.39238E-04
 0.54880001E+02  0.35228E-04
 0.54930000E+02  0.18232E-04
 0.54980000E+02 -0.11523E-04
 0.55029999E+02 -0.46211E-04
 0.55080002E+02 -0.69265E-04
 0.55130001E+02 -0.75758E-04
 0.55180000E+02 -0.75227E-04
 0.55230000E+02 -0.67035E-04
 0.55279999E+02 -0.50879E-04
 0.55330002E+02 -0.35488E-04
 0.55380001E+02 -0.18480E-04
 0.55430000E+02  0.26971E-05
 0.55480000E+02  0.12487E-04
 0.55529999E+02  0.73272E-05
 0.55580002E+02  0.50589E-05
 0.55630001E+02  0.20460E-04
 0.55680000E+02  0.39724E-04
 0.55730000E+02  0.54608E-04
 0.55779999E+02  0.76343E-04
 0.55830002E+02  0.89479E-04
 0.55880001E+02  0.79057E-04
 0.55930000E+02  0.53378E-04
 0.55980000E+02  0.26493E-04
 0.56029999E+02  0.10379E-04
 0.56080002E+02  0.14225E-05
 0.56130001E+02 -0.10933E-04
 0.56180000E+02 -0.21510E-04
 0.56230000E+02 -0.25280E-04
 0.56279999E+02 -0.29087E-04
 0.56330002E+02 -0.29903E-04
 0.56380001E+02 -0.24460E-04
 0.56430000E+02 -0.20663E-04
 0.56480000E+02 -0.21646E-04
 0.56529999E+02 -0.28547E-04
 0.56580002E+02 -0.39027E-04
 0.56630001E+02 -0.45242E-04
 0.56680000E+02 -0.47451E-04
 0.56730000E+02 -0.46639E-04
 0.56779999E+02 -0.37388E-04
 0.56830002E+02 -0.22363E-04
 0.56880001E+02 -0.72581E-05
 0.56930000E+02  0.14332E-04
 0.56980000E+02  0.40981E-04
 0.57029999E+02  0.57198E-04
 0.57080002E+02  0.57642E-04
 0.57130001E+02  0.48213E-04
 0.57180000E+02  0.29920E-04
 0.57230000E+02  0.59261E-05
 0.57279999E+02 -0.14127E-04
 0.57330002E+02 -0.29039E-04
 0.57380001E+02 -0.35275E-04
 0.57430000E+02 -0.28143E-04
 0.57480000E+02 -0.18678E-04
 0.57529999E+02 -0.91160E-05
 0.57580002E+02  0.71072E-05
 0.57630001E+02  0.18797E-04
 0.57680000E+02  0.24349E-04
 0.57730000E+02  0.31873E-04
 0.57779999E+02  0.34399E-04
 0.57830002E+02  0.35580E-04
 0.57880001E+02  0.47932E-04
 0.57930000E+02  0.60666E-04
 0.57980000E+02  0.54178E-04
 0.58029999E+02  0.36237E-04
 0.58080002E+02  0.14607E-04
 0.58130001E+02 -0.13045E-04
 0.58180000E+02 -0.33781E-04
 0.58230000E+02 -0.47146E-04
 0.58279999E+02 -0.51385E-04
 0.58330002E+02 -0.37485E-04
 0.58380001E+02 -0.21813E-04
 0.58430000E+02 -0.20975E-04
 0.58480000E+02 -0.29123E-04
 0.58529999E+02 -0.37272E-04
 0.58580002E+02 -0.44960E-04
 0.58630001E+02 -0.49506E-04
 0.58680000E+02 -0.49482E-04
 0.58730000E+02 -0.45018E-04
 0.58779999E+02 -0.33587E-04
 0.58830002E+02 -0.19055E-04
 0.58880001E+02 -0.57209E-05
 0.58930000E+02  0.13012E-04
 0.58980000E+02  0.34170E-04
 0.59029999E+02  0.44692E-04
 0.59080002E+02  0.44166E-04
 0.59130001E+02  0.34012E-04
 0.59180000E+02  0.22267E-04
 0.59230000E+02  0.18993E-04
 0.59279999E+02  0.20326E-04
 0.59330002E+02  0.20475E-04
 0.59380001E+02  0.25379E-04
 0.59430000E+02  0.35831E-04
 0.59480000E+02  0.38171E-04
 0.59529999E+02  0.36313E-04
 0.59580002E+02  0.34201E-04
 0.59630001E+02  0.24686E-04
 0.59680000E+02  0.12073E-04
 0.59730000E+02  0.17482E-05
 0.59779999E+02 -0.55689E-05
 0.59830002E+02 -0.16292E-04
 0.59880001E+02 -0.31403E-04
 0.59930000E+02 -0.43180E-04
 0.59980000E+02 -0.50691E-04
