-0.20000458E-01  0.27168E-06
 0.29999543E-01 -0.15480E-06
 0.79999544E-01  0.12127E-06
 0.12999955E+00 -0.31719E-07
 0.17999955E+00 -0.11655E-06
 0.22999954E+00  0.50488E-07
 0.27999955E+00 -0.30267E-07
 0.32999954E+00 -0.10310E-06
 0.37999955E+00 -0.13000E-06
 0.42999956E+00 -0.11054E-06
 0.47999954E+00  0.83035E-08
 0.52999955E+00  0.52821E-07
 0.57999957E+00 -0.34680E-07
 0.62999958E+00  0.21409E-07
 0.67999953E+00 -0.40629E-07
 0.72999954E+00 -0.90682E-07
 0.77999955E+00  0.44853E-07
 0.82999957E+00  0.11982E-06
 0.87999958E+00  0.13002E-06
 0.92999953E+00 -0.18313E-07
 0.97999954E+00  0.94131E-07
 0.10299996E+01 -0.23152E-07
 0.10799996E+01  0.74185E-07
 0.11299995E+01  0.22376E-06
 0.11799996E+01 -0.14870E-06
 0.12299995E+01 -0.21907E-07
 0.12799996E+01 -0.18804E-07
 0.13299996E+01 -0.50318E-07
 0.13799995E+01  0.50096E-07
 0.14299996E+01 -0.49171E-08
 0.14799995E+01 -0.18717E-07
 0.15299996E+01 -0.41581E-07
 0.15799996E+01 -0.76779E-07
 0.16299995E+01 -0.12382E-06
 0.16799996E+01  0.11927E-07
 0.17299995E+01  0.42725E-07
 0.17799996E+01  0.45119E-07
 0.18299996E+01  0.66108E-07
 0.18799995E+01 -0.74555E-07
 0.19299996E+01  0.17886E-07
 0.19799995E+01  0.11035E-06
 0.20299995E+01 -0.12529E-06
 0.20799997E+01 -0.63038E-07
 0.21299996E+01  0.16857E-06
 0.21799996E+01 -0.19858E-06
 0.22299995E+01 -0.50439E-07
 0.22799995E+01  0.27184E-06
 0.23299997E+01 -0.19704E-06
 0.23799996E+01 -0.83243E-07
 0.24299996E+01  0.20303E-07
 0.24799995E+01 -0.37072E-07
 0.25299995E+01  0.13840E-06
 0.25799997E+01 -0.61781E-07
 0.26299996E+01  0.12475E-06
 0.26799996E+01  0.19378E-06
 0.27299995E+01 -0.19172E-06
 0.27799995E+01  0.25659E-07
 0.28299997E+01  0.74285E-07
 0.28799996E+01  0.11171E-07
 0.29299996E+01  0.95530E-07
 0.29799995E+01 -0.12822E-07
 0.30299995E+01  0.19883E-06
 0.30799997E+01 -0.93611E-07
 0.31299996E+01 -0.89028E-07
 0.31799996E+01  0.65101E-07
 0.32299995E+01 -0.62906E-07
 0.32799995E+01  0.11550E-06
 0.33299997E+01 -0.82157E-07
 0.33799996E+01  0.11599E-06
 0.34299996E+01 -0.57104E-07
 0.34799995E+01 -0.13210E-06
 0.35299995E+01  0.33740E-07
 0.35799997E+01 -0.65139E-07
 0.36299996E+01  0.91542E-07
 0.36799996E+01 -0.67590E-07
 0.37299995E+01  0.14415E-06
 0.37799995E+01 -0.19916E-06
 0.38299997E+01 -0.19086E-06
 0.38799996E+01 -0.31745E-07
 0.39299996E+01 -0.15991E-06
 0.39799995E+01  0.29715E-06
 0.40299997E+01 -0.20948E-06
 0.40799994E+01 -0.12446E-06
 0.41299996E+01  0.65405E-07
 0.41799998E+01 -0.19329E-06
 0.42299995E+01  0.81665E-07
 0.42799997E+01  0.13328E-06
 0.43299994E+01  0.23569E-07
 0.43799996E+01 -0.22376E-06
 0.44299998E+01  0.23938E-07
 0.44799995E+01  0.21987E-06
 0.45299997E+01  0.87539E-07
 0.45799994E+01 -0.45347E-07
 0.46299996E+01 -0.81571E-07
 0.46799998E+01  0.10547E-06
 0.47299995E+01  0.14431E-07
 0.47799997E+01  0.47194E-07
 0.48299994E+01  0.46510E-07
 0.48799996E+01 -0.73850E-07
 0.49299998E+01 -0.10453E-06
 0.49799995E+01  0.29031E-07
 0.50299997E+01  0.34369E-07
 0.50799994E+01 -0.15502E-07
 0.51299996E+01  0.16464E-06
 0.51799998E+01 -0.15521E-06
 0.52299995E+01 -0.18634E-06
 0.52799997E+01  0.13613E-06
 0.53299994E+01 -0.32454E-07
 0.53799996E+01 -0.13001E-06
 0.54299998E+01  0.17756E-06
 0.54799995E+01  0.13296E-06
 0.55299997E+01  0.45466E-08
 0.55799994E+01  0.19308E-07
 0.56299996E+01 -0.12238E-06
 0.56799998E+01  0.24619E-06
 0.57299995E+01  0.76448E-07
 0.57799997E+01 -0.33785E-07
 0.58299994E+01  0.83252E-07
 0.58799996E+01 -0.12133E-06
 0.59299998E+01  0.12725E-06
 0.59799995E+01 -0.49818E-07
 0.60299997E+01  0.10681E-06
 0.60799994E+01  0.16884E-06
 0.61299996E+01  0.48242E-07
 0.61799998E+01  0.29089E-07
 0.62299995E+01 -0.20238E-06
 0.62799997E+01  0.14011E-06
 0.63299994E+01 -0.12381E-07
 0.63799996E+01 -0.26821E-07
 0.64299998E+01 -0.59393E-07
 0.64799995E+01 -0.17976E-06
 0.65299997E+01  0.17010E-06
 0.65799994E+01 -0.13406E-06
 0.66299996E+01 -0.21809E-06
 0.66799998E+01 -0.45570E-07
 0.67299995E+01  0.10853E-06
 0.67799997E+01  0.47040E-07
 0.68299994E+01 -0.19154E-06
 0.68799996E+01 -0.77299E-07
 0.69299998E+01 -0.69043E-07
 0.69799995E+01  0.16422E-06
 0.70299997E+01 -0.60656E-07
 0.70799994E+01 -0.21632E-06
 0.71299996E+01  0.12617E-06
 0.71799998E+01 -0.67374E-07
 0.72299995E+01 -0.72294E-07
 0.72799997E+01 -0.15360E-06
 0.73299994E+01  0.71365E-08
 0.73799996E+01  0.17610E-06
 0.74299998E+01 -0.22427E-06
 0.74799995E+01 -0.26621E-08
 0.75299997E+01  0.12297E-06
 0.75799994E+01 -0.81284E-07
 0.76299996E+01  0.81529E-07
 0.76799998E+01  0.12529E-06
 0.77299995E+01  0.40628E-07
 0.77799997E+01 -0.49941E-08
 0.78299994E+01 -0.47381E-07
 0.78799996E+01 -0.58425E-07
 0.79299998E+01  0.81233E-07
 0.79799995E+01  0.26972E-06
 0.80299997E+01  0.60570E-07
 0.80799999E+01 -0.91962E-07
 0.81300001E+01  0.20922E-07
 0.81799994E+01  0.46280E-07
 0.82299995E+01  0.17183E-06
 0.82799997E+01  0.90926E-07
 0.83299999E+01  0.36907E-07
 0.83800001E+01 -0.44471E-07
 0.84299994E+01 -0.67227E-07
 0.84799995E+01  0.22478E-06
 0.85299997E+01 -0.75109E-07
 0.85799999E+01  0.55710E-07
 0.86300001E+01  0.15821E-06
 0.86799994E+01 -0.22644E-06
 0.87299995E+01 -0.20844E-07
 0.87799997E+01 -0.58803E-07
 0.88299999E+01 -0.23913E-07
 0.88800001E+01  0.32615E-07
 0.89299994E+01 -0.37602E-07
 0.89799995E+01 -0.27490E-07
 0.90299997E+01 -0.11230E-06
 0.90799999E+01 -0.21197E-07
 0.91300001E+01 -0.57354E-07
 0.91799994E+01 -0.60418E-07
 0.92299995E+01 -0.20395E-06
 0.92799997E+01 -0.13201E-06
 0.93299999E+01  0.66786E-07
 0.93800001E+01 -0.92323E-08
 0.94299994E+01  0.74060E-07
 0.94799995E+01 -0.14944E-06
 0.95299997E+01 -0.67898E-07
 0.95799999E+01 -0.27258E-07
 0.96300001E+01 -0.90519E-07
 0.96799994E+01  0.13123E-06
 0.97299995E+01 -0.20394E-07
 0.97799997E+01  0.63053E-07
 0.98299999E+01  0.68932E-07
 0.98800001E+01  0.83478E-07
 0.99299994E+01  0.16470E-07
 0.99799995E+01 -0.13566E-06
 0.10030000E+02  0.49036E-07
 0.10080000E+02  0.70841E-07
 0.10130000E+02  0.23869E-06
 0.10179999E+02  0.49038E-07
 0.10230000E+02 -0.57834E-07
 0.10280000E+02  0.48170E-07
 0.10330000E+02 -0.15908E-06
 0.10380000E+02  0.16762E-06
 0.10429999E+02  0.14922E-06
 0.10480000E+02 -0.10336E-06
 0.10530000E+02  0.40174E-07
 0.10580000E+02  0.92394E-08
 0.10630000E+02  0.15339E-06
 0.10679999E+02  0.62815E-07
 0.10730000E+02 -0.81091E-07
 0.10780000E+02  0.14826E-06
 0.10830000E+02 -0.11394E-07
 0.10880000E+02 -0.46459E-08
 0.10929999E+02  0.91571E-07
 0.10980000E+02 -0.52228E-07
 0.11030000E+02  0.21705E-06
 0.11080000E+02  0.31719E-07
 0.11130000E+02 -0.20428E-06
 0.11179999E+02 -0.45192E-07
 0.11230000E+02 -0.12375E-06
 0.11280000E+02 -0.50372E-08
 0.11330000E+02 -0.52638E-07
 0.11380000E+02 -0.10162E-06
 0.11429999E+02 -0.15033E-06
 0.11480000E+02 -0.17467E-06
 0.11530000E+02 -0.73594E-07
 0.11580000E+02 -0.14809E-06
 0.11630000E+02 -0.84947E-08
 0.11679999E+02 -0.48794E-07
 0.11730000E+02 -0.48040E-07
 0.11780000E+02 -0.20620E-07
 0.11830000E+02  0.93658E-08
 0.11880000E+02  0.11896E-06
 0.11929999E+02 -0.15732E-06
 0.11980000E+02 -0.68418E-07
 0.12030000E+02  0.23920E-06
 0.12080000E+02  0.96173E-07
 0.12130000E+02  0.50727E-08
 0.12179999E+02  0.46110E-07
 0.12230000E+02  0.11607E-06
 0.12280000E+02  0.13173E-06
 0.12330000E+02 -0.74131E-07
 0.12380000E+02  0.19038E-07
 0.12429999E+02  0.22751E-07
 0.12480000E+02  0.12561E-07
 0.12530000E+02  0.74250E-07
 0.12580000E+02 -0.10741E-06
 0.12630000E+02  0.15435E-06
 0.12679999E+02  0.13556E-06
 0.12730000E+02 -0.30627E-07
 0.12780000E+02  0.11473E-06
 0.12830000E+02 -0.45868E-08
 0.12880000E+02  0.12244E-08
 0.12929999E+02 -0.17827E-07
 0.12980000E+02 -0.73178E-07
 0.13030000E+02  0.12321E-06
 0.13080000E+02 -0.21760E-07
 0.13130000E+02 -0.14203E-06
 0.13179999E+02 -0.17167E-07
 0.13230000E+02 -0.29211E-07
 0.13280000E+02  0.19923E-07
 0.13330000E+02 -0.21437E-06
 0.13380000E+02 -0.16478E-06
 0.13429999E+02  0.71654E-07
 0.13480000E+02  0.56386E-07
 0.13530000E+02  0.38084E-07
 0.13580000E+02 -0.23176E-06
 0.13630000E+02  0.58237E-07
 0.13679999E+02 -0.21867E-07
 0.13730000E+02 -0.83421E-07
 0.13780000E+02  0.10622E-06
 0.13830000E+02 -0.21080E-06
 0.13880000E+02  0.22949E-06
 0.13929999E+02 -0.59637E-07
 0.13980000E+02 -0.20288E-06
 0.14030000E+02  0.16680E-06
 0.14080000E+02 -0.82207E-07
 0.14130000E+02  0.26368E-08
 0.14179999E+02  0.23815E-07
 0.14230000E+02  0.14212E-06
 0.14280000E+02 -0.81896E-07
 0.14330000E+02 -0.20440E-07
 0.14380000E+02  0.15670E-06
 0.14429999E+02 -0.17798E-06
 0.14480000E+02  0.13202E-07
 0.14530000E+02  0.87407E-07
 0.14580000E+02  0.28900E-07
 0.14630000E+02  0.18500E-07
 0.14679999E+02 -0.11541E-07
 0.14730000E+02  0.95854E-07
 0.14780000E+02  0.12520E-06
 0.14830000E+02 -0.55036E-07
 0.14880000E+02 -0.93793E-07
 0.14929999E+02  0.12086E-06
 0.14980000E+02  0.12189E-06
 0.15030000E+02  0.15573E-06
 0.15080000E+02  0.32025E-07
 0.15130000E+02 -0.45508E-07
 0.15179999E+02  0.66386E-07
 0.15230000E+02  0.36924E-07
 0.15280000E+02  0.72757E-07
 0.15330000E+02 -0.93536E-07
 0.15380000E+02  0.27760E-07
 0.15429999E+02  0.16221E-06
 0.15480000E+02 -0.92852E-07
 0.15530000E+02 -0.71915E-07
 0.15580000E+02 -0.17208E-06
 0.15630000E+02 -0.62541E-07
 0.15679999E+02  0.25468E-07
 0.15730000E+02 -0.78496E-07
 0.15780000E+02  0.23474E-07
 0.15830000E+02 -0.12509E-06
 0.15880000E+02 -0.16550E-07
 0.15929999E+02 -0.44285E-07
 0.15980000E+02  0.87910E-07
 0.16030001E+02  0.58199E-07
 0.16080000E+02 -0.14220E-06
 0.16129999E+02  0.16884E-06
 0.16180000E+02 -0.14062E-06
 0.16230000E+02  0.14968E-06
 0.16280001E+02  0.63611E-07
 0.16330000E+02 -0.16700E-06
 0.16379999E+02  0.26353E-06
 0.16430000E+02 -0.10622E-06
 0.16480000E+02 -0.10285E-06
 0.16530001E+02 -0.13978E-06
 0.16580000E+02 -0.61510E-07
 0.16629999E+02  0.86734E-07
 0.16680000E+02  0.14889E-07
 0.16730000E+02 -0.11634E-06
 0.16780001E+02 -0.17843E-06
 0.16830000E+02 -0.19288E-07
 0.16879999E+02  0.15091E-07
 0.16930000E+02  0.78901E-07
 0.16980000E+02 -0.21239E-06
 0.17030001E+02  0.12398E-06
 0.17080000E+02  0.96578E-07
 0.17129999E+02 -0.17903E-06
 0.17180000E+02 -0.32640E-07
 0.17230000E+02 -0.13587E-06
 0.17280001E+02 -0.31613E-07
 0.17330000E+02 -0.19900E-07
 0.17379999E+02  0.28763E-06
 0.17430000E+02  0.40788E-07
 0.17480000E+02 -0.18685E-06
 0.17530001E+02  0.14093E-06
 0.17580000E+02  0.26695E-07
 0.17629999E+02  0.15660E-06
 0.17680000E+02  0.19391E-06
 0.17730000E+02 -0.95766E-07
 0.17780001E+02  0.15786E-06
 0.17830000E+02  0.23622E-06
 0.17879999E+02  0.13341E-06
 0.17930000E+02 -0.14066E-07
 0.17980000E+02 -0.19745E-06
 0.18030001E+02  0.21568E-06
 0.18080000E+02 -0.73978E-08
 0.18129999E+02  0.15650E-07
 0.18180000E+02 -0.58402E-08
 0.18230000E+02 -0.17951E-06
 0.18280001E+02  0.86414E-07
 0.18330000E+02 -0.15623E-06
 0.18379999E+02  0.26974E-07
 0.18430000E+02 -0.73034E-08
 0.18480000E+02 -0.12618E-06
 0.18530001E+02 -0.12067E-06
 0.18580000E+02  0.56093E-07
 0.18629999E+02  0.14904E-06
 0.18680000E+02 -0.21116E-06
 0.18730000E+02 -0.98148E-07
 0.18780001E+02  0.39914E-07
 0.18830000E+02  0.49256E-07
 0.18879999E+02  0.72379E-07
 0.18930000E+02 -0.53094E-07
 0.18980000E+02 -0.11378E-06
 0.19030001E+02  0.31906E-07
 0.19080000E+02 -0.13704E-06
 0.19129999E+02  0.10302E-06
 0.19180000E+02  0.33851E-07
 0.19230000E+02 -0.10156E-06
 0.19280001E+02  0.24264E-07
 0.19330000E+02 -0.18466E-06
 0.19379999E+02  0.37538E-06
 0.19430000E+02 -0.75860E-07
 0.19480000E+02 -0.77858E-07
 0.19530001E+02  0.16665E-06
 0.19580000E+02 -0.15825E-06
 0.19629999E+02  0.26482E-06
 0.19680000E+02 -0.16234E-06
 0.19730000E+02 -0.23768E-07
 0.19780001E+02  0.98845E-07
 0.19830000E+02  0.24709E-07
 0.19879999E+02  0.16099E-06
 0.19930000E+02 -0.49824E-07
 0.19980000E+02  0.84764E-07
 0.20030001E+02 -0.12699E-06
 0.20080000E+02  0.10830E-06
 0.20129999E+02  0.22109E-07
 0.20180000E+02 -0.23111E-06
 0.20230000E+02 -0.12461E-07
 0.20280001E+02 -0.39938E-07
 0.20330000E+02  0.11475E-06
 0.20379999E+02 -0.23645E-07
 0.20430000E+02 -0.59577E-07
 0.20480000E+02 -0.16816E-06
 0.20530001E+02 -0.11248E-06
 0.20580000E+02  0.95004E-07
 0.20629999E+02 -0.11100E-06
 0.20680000E+02 -0.77439E-07
 0.20730000E+02 -0.65608E-07
 0.20780001E+02  0.15689E-07
 0.20830000E+02 -0.20173E-07
 0.20879999E+02  0.73042E-07
 0.20930000E+02  0.12363E-07
 0.20980000E+02 -0.18591E-06
 0.21030001E+02  0.79069E-07
 0.21080000E+02  0.46499E-07
 0.21129999E+02  0.70815E-07
 0.21180000E+02 -0.34668E-07
 0.21230000E+02  0.12567E-06
 0.21280001E+02  0.25263E-06
 0.21330000E+02 -0.49509E-08
 0.21379999E+02  0.14299E-06
 0.21430000E+02  0.14323E-06
 0.21480000E+02  0.19354E-06
 0.21530001E+02  0.44347E-07
 0.21580000E+02  0.34224E-07
 0.21629999E+02  0.10257E-06
 0.21680000E+02 -0.14226E-07
 0.21730000E+02  0.14664E-07
 0.21780001E+02 -0.18762E-06
 0.21830000E+02 -0.63550E-07
 0.21879999E+02  0.40709E-06
 0.21930000E+02  0.18580E-05
 0.21980000E+02  0.54949E-05
 0.22030001E+02  0.11862E-04
 0.22080000E+02  0.22384E-04
 0.22129999E+02  0.36368E-04
 0.22180000E+02  0.48655E-04
 0.22230000E+02  0.54372E-04
 0.22280001E+02  0.55334E-04
 0.22330000E+02  0.49024E-04
 0.22379999E+02  0.17444E-04
 0.22430000E+02 -0.38890E-04
 0.22480000E+02 -0.10287E-03
 0.22530001E+02 -0.15417E-03
 0.22580000E+02 -0.17426E-03
 0.22629999E+02 -0.17243E-03
 0.22680000E+02 -0.13404E-03
 0.22730000E+02 -0.54789E-04
 0.22780001E+02  0.51545E-04
 0.22830000E+02  0.14413E-03
 0.22879999E+02  0.15398E-03
 0.22930000E+02  0.13152E-03
 0.22980000E+02  0.79673E-04
 0.23030001E+02 -0.55388E-05
 0.23080000E+02 -0.26891E-04
 0.23129999E+02 -0.23666E-05
 0.23180000E+02  0.12078E-04
 0.23230000E+02  0.91940E-05
 0.23280001E+02  0.23455E-04
 0.23330000E+02  0.29091E-04
 0.23379999E+02 -0.11406E-04
 0.23430000E+02 -0.55760E-04
 0.23480000E+02 -0.61466E-04
 0.23530001E+02 -0.43070E-04
 0.23580000E+02 -0.45141E-04
 0.23629999E+02  0.31162E-04
 0.23680000E+02  0.12110E-03
 0.23730000E+02  0.92112E-04
 0.23780001E+02  0.56394E-04
 0.23830000E+02  0.52195E-04
 0.23879999E+02  0.28686E-04
 0.23930000E+02 -0.31043E-04
 0.23980000E+02 -0.73307E-04
 0.24030001E+02 -0.91669E-04
 0.24080000E+02 -0.69578E-04
 0.24129999E+02 -0.44537E-05
 0.24180000E+02 -0.12211E-04
 0.24230000E+02 -0.29427E-04
 0.24280001E+02 -0.19969E-04
 0.24330000E+02  0.77542E-05
 0.24379999E+02  0.64994E-04
 0.24430000E+02  0.51159E-04
 0.24480000E+02  0.27517E-04
 0.24530001E+02  0.85969E-05
 0.24580000E+02 -0.10334E-04
 0.24629999E+02  0.21026E-04
 0.24680000E+02  0.69256E-05
 0.24730000E+02 -0.14575E-04
 0.24780001E+02  0.64151E-05
 0.24830000E+02  0.27074E-04
 0.24879999E+02  0.26186E-04
 0.24930000E+02 -0.29550E-04
 0.24980000E+02 -0.89710E-04
 0.25030001E+02 -0.88304E-04
 0.25080000E+02 -0.50557E-04
 0.25129999E+02 -0.78070E-05
 0.25180000E+02  0.11258E-04
 0.25230000E+02 -0.93921E-05
 0.25280001E+02  0.66350E-05
 0.25330000E+02  0.39564E-04
 0.25379999E+02  0.74823E-04
 0.25430000E+02  0.88525E-04
 0.25480000E+02 -0.77847E-05
 0.25530001E+02 -0.58159E-04
 0.25580000E+02  0.43916E-05
 0.25629999E+02  0.50152E-04
 0.25680000E+02  0.18385E-04
 0.25730000E+02 -0.26686E-04
 0.25780001E+02  0.84470E-05
 0.25830000E+02  0.43980E-04
 0.25879999E+02 -0.20152E-05
 0.25930000E+02 -0.73057E-04
 0.25980000E+02 -0.11078E-03
 0.26030001E+02 -0.87626E-04
 0.26080000E+02 -0.19775E-04
 0.26129999E+02 -0.95642E-06
 0.26180000E+02 -0.31651E-04
 0.26230000E+02 -0.21927E-04
 0.26280001E+02  0.50690E-04
 0.26330000E+02  0.10779E-03
 0.26379999E+02  0.91674E-04
 0.26430000E+02  0.40613E-04
 0.26480000E+02  0.15153E-04
 0.26530001E+02  0.52830E-04
 0.26580000E+02  0.95942E-04
 0.26629999E+02  0.10414E-03
 0.26680000E+02  0.66737E-04
 0.26730000E+02 -0.13389E-04
 0.26780001E+02 -0.64148E-04
 0.26830000E+02 -0.87791E-04
 0.26879999E+02 -0.13380E-03
 0.26930000E+02 -0.15313E-03
 0.26980000E+02 -0.10869E-03
 0.27030001E+02 -0.44350E-04
 0.27080000E+02 -0.18418E-05
 0.27129999E+02  0.10474E-04
 0.27180000E+02  0.63809E-04
 0.27230000E+02  0.12237E-03
 0.27280001E+02  0.98829E-04
 0.27330000E+02  0.37365E-04
 0.27379999E+02 -0.35197E-04
 0.27430000E+02 -0.57132E-04
 0.27480000E+02 -0.19035E-05
 0.27530001E+02  0.30686E-04
 0.27580000E+02  0.14902E-05
 0.27629999E+02 -0.47306E-04
 0.27680000E+02 -0.62933E-04
 0.27730000E+02 -0.32832E-04
 0.27780001E+02 -0.46812E-04
 0.27830000E+02 -0.85733E-04
 0.27879999E+02 -0.50584E-04
 0.27930000E+02  0.36959E-04
 0.27980000E+02  0.10719E-03
 0.28030001E+02  0.80901E-04
 0.28080000E+02  0.50902E-04
 0.28129999E+02  0.75025E-04
 0.28180000E+02  0.91265E-04
 0.28230000E+02  0.63516E-04
 0.28280001E+02 -0.25493E-04
 0.28330000E+02 -0.74222E-04
 0.28379999E+02 -0.83057E-04
 0.28430000E+02 -0.48331E-04
 0.28480000E+02 -0.22613E-04
 0.28530001E+02 -0.94295E-04
 0.28580000E+02 -0.88776E-04
 0.28629999E+02 -0.18785E-05
 0.28680000E+02  0.64966E-04
 0.28730000E+02  0.11142E-03
 0.28780001E+02  0.74921E-04
 0.28830000E+02  0.24822E-04
 0.28879999E+02  0.13126E-04
 0.28930000E+02 -0.19631E-04
 0.28980000E+02 -0.16578E-05
 0.29030001E+02  0.62756E-04
 0.29080000E+02  0.54548E-04
 0.29129999E+02  0.28567E-04
 0.29180000E+02  0.12293E-04
 0.29230000E+02 -0.34743E-04
 0.29280001E+02 -0.56934E-04
 0.29330000E+02 -0.87226E-04
 0.29379999E+02 -0.13380E-03
 0.29430000E+02 -0.10835E-03
 0.29480000E+02 -0.15865E-04
 0.29530001E+02  0.39414E-04
 0.29580000E+02  0.28355E-04
 0.29629999E+02  0.22583E-04
 0.29680000E+02  0.46133E-04
 0.29730000E+02  0.91653E-04
 0.29780001E+02  0.93689E-04
 0.29830000E+02  0.61018E-04
 0.29879999E+02  0.38786E-04
 0.29930000E+02 -0.24758E-04
 0.29980000E+02 -0.93921E-04
 0.30030001E+02 -0.12011E-03
 0.30080000E+02 -0.74164E-04
 0.30129999E+02  0.75214E-05
 0.30180000E+02  0.34852E-04
 0.30230000E+02  0.45339E-04
 0.30280001E+02  0.34922E-04
 0.30330000E+02  0.11715E-04
 0.30379999E+02  0.26349E-04
 0.30430000E+02  0.10401E-04
 0.30480000E+02 -0.19450E-04
 0.30530001E+02 -0.24875E-04
 0.30580000E+02 -0.28733E-04
 0.30629999E+02 -0.90697E-05
 0.30680000E+02  0.42706E-05
 0.30730000E+02 -0.76529E-05
 0.30780001E+02 -0.31933E-05
 0.30830000E+02 -0.22554E-05
 0.30879999E+02 -0.27267E-04
 0.30930000E+02 -0.21311E-04
 0.30980000E+02 -0.16518E-05
 0.31030001E+02  0.27338E-04
 0.31080000E+02  0.95082E-04
 0.31129999E+02  0.11058E-03
 0.31180000E+02  0.72811E-04
 0.31230000E+02  0.30822E-04
 0.31280001E+02 -0.29946E-04
 0.31330000E+02 -0.87628E-04
 0.31379999E+02 -0.11696E-03
 0.31430000E+02 -0.93636E-04
 0.31480000E+02 -0.21816E-04
 0.31530001E+02  0.19223E-04
 0.31580000E+02  0.13425E-04
 0.31629999E+02  0.67565E-05
 0.31680000E+02 -0.23026E-04
 0.31730000E+02 -0.52145E-04
 0.31780001E+02 -0.25589E-04
 0.31830000E+02  0.26118E-04
 0.31879999E+02  0.55234E-04
 0.31930000E+02  0.82823E-04
 0.31980000E+02  0.72815E-04
 0.32029999E+02 -0.26197E-07
 0.32080002E+02 -0.45208E-04
 0.32130001E+02 -0.57327E-04
 0.32180000E+02 -0.61167E-04
 0.32230000E+02 -0.25695E-04
 0.32279999E+02  0.56772E-04
 0.32330002E+02  0.11524E-03
 0.32380001E+02  0.10791E-03
 0.32430000E+02  0.53721E-04
 0.32480000E+02 -0.90926E-05
 0.32529999E+02 -0.65782E-04
 0.32580002E+02 -0.10800E-03
 0.32630001E+02 -0.10200E-03
 0.32680000E+02 -0.94471E-04
 0.32730000E+02 -0.68167E-04
 0.32779999E+02  0.74741E-06
 0.32830002E+02  0.66486E-04
 0.32880001E+02  0.64817E-04
 0.32930000E+02  0.23160E-04
 0.32980000E+02  0.43841E-04
 0.33029999E+02  0.53460E-04
 0.33080002E+02  0.32693E-04
 0.33130001E+02  0.34173E-04
 0.33180000E+02  0.33226E-04
 0.33230000E+02  0.20194E-04
 0.33279999E+02 -0.18197E-04
 0.33330002E+02 -0.61289E-04
 0.33380001E+02 -0.50793E-04
 0.33430000E+02 -0.10010E-04
 0.33480000E+02 -0.22504E-04
 0.33529999E+02 -0.53631E-04
 0.33580002E+02 -0.23578E-04
 0.33630001E+02  0.19672E-04
 0.33680000E+02  0.15434E-04
 0.33730000E+02 -0.85701E-05
 0.33779999E+02 -0.43544E-05
 0.33830002E+02  0.16366E-04
 0.33880001E+02  0.10131E-04
 0.33930000E+02  0.81733E-05
 0.33980000E+02  0.30688E-04
 0.34029999E+02  0.64287E-04
 0.34080002E+02  0.87384E-04
 0.34130001E+02  0.51180E-04
 0.34180000E+02 -0.16916E-04
 0.34230000E+02 -0.53007E-04
 0.34279999E+02 -0.33733E-04
 0.34330002E+02 -0.10188E-04
 0.34380001E+02 -0.39180E-04
 0.34430000E+02 -0.69073E-04
 0.34480000E+02 -0.54442E-04
 0.34529999E+02 -0.17340E-04
 0.34580002E+02  0.29406E-04
 0.34630001E+02  0.50414E-04
 0.34680000E+02  0.18872E-04
 0.34730000E+02 -0.38266E-04
 0.34779999E+02 -0.81678E-04
 0.34830002E+02 -0.78579E-04
 0.34880001E+02 -0.42828E-04
 0.34930000E+02  0.12212E-04
 0.34980000E+02  0.80034E-04
 0.35029999E+02  0.10806E-03
 0.35080002E+02  0.65611E-04
 0.35130001E+02  0.15657E-04
 0.35180000E+02  0.82393E-05
 0.35230000E+02  0.15193E-04
 0.35279999E+02  0.15616E-04
 0.35330002E+02  0.33474E-05
 0.35380001E+02  0.45351E-05
 0.35430000E+02  0.17283E-04
 0.35480000E+02  0.23384E-04
 0.35529999E+02  0.36363E-04
 0.35580002E+02  0.19698E-04
 0.35630001E+02 -0.40979E-04
 0.35680000E+02 -0.10606E-03
 0.35730000E+02 -0.11840E-03
 0.35779999E+02 -0.52223E-04
 0.35830002E+02  0.24191E-04
 0.35880001E+02  0.61472E-04
 0.35930000E+02  0.81311E-04
 0.35980000E+02  0.73027E-04
 0.36029999E+02  0.35965E-04
 0.36080002E+02 -0.99694E-05
 0.36130001E+02 -0.57445E-04
 0.36180000E+02 -0.70710E-04
 0.36230000E+02 -0.74852E-04
 0.36279999E+02 -0.61222E-04
 0.36330002E+02 -0.79170E-05
 0.36380001E+02  0.45584E-05
 0.36430000E+02 -0.26289E-04
 0.36480000E+02 -0.35969E-04
 0.36529999E+02  0.35222E-05
 0.36580002E+02  0.47600E-04
 0.36630001E+02  0.52634E-04
 0.36680000E+02  0.38131E-04
 0.36730000E+02  0.28516E-04
 0.36779999E+02  0.24663E-04
 0.36830002E+02  0.27152E-04
 0.36880001E+02  0.46096E-04
 0.36930000E+02  0.46629E-04
 0.36980000E+02  0.18917E-04
 0.37029999E+02 -0.24679E-04
 0.37080002E+02 -0.55492E-04
 0.37130001E+02 -0.45628E-04
 0.37180000E+02 -0.31555E-04
 0.37230000E+02 -0.11503E-04
 0.37279999E+02  0.40989E-05
 0.37330002E+02 -0.13674E-04
 0.37380001E+02 -0.36730E-04
 0.37430000E+02 -0.43285E-04
 0.37480000E+02 -0.11952E-04
 0.37529999E+02  0.27817E-04
 0.37580002E+02  0.15465E-04
 0.37630001E+02 -0.23550E-04
 0.37680000E+02 -0.18879E-04
 0.37730000E+02  0.52232E-04
 0.37779999E+02  0.12189E-03
 0.37830002E+02  0.15998E-03
 0.37880001E+02  0.14970E-03
 0.37930000E+02  0.64913E-04
 0.37980000E+02 -0.35396E-05
 0.38029999E+02 -0.51448E-04
 0.38080002E+02 -0.10273E-03
 0.38130001E+02 -0.13701E-03
 0.38180000E+02 -0.16514E-03
 0.38230000E+02 -0.13087E-03
 0.38279999E+02 -0.82330E-04
 0.38330002E+02 -0.55339E-04
 0.38380001E+02 -0.19443E-04
 0.38430000E+02 -0.22540E-04
 0.38480000E+02 -0.34076E-04
 0.38529999E+02 -0.14271E-04
 0.38580002E+02  0.30176E-04
 0.38630001E+02  0.68775E-04
 0.38680000E+02  0.86865E-04
 0.38730000E+02  0.12772E-03
 0.38779999E+02  0.19196E-03
 0.38830002E+02  0.22637E-03
 0.38880001E+02  0.18603E-03
 0.38930000E+02  0.99547E-04
 0.38980000E+02  0.53540E-05
 0.39029999E+02 -0.86885E-04
 0.39080002E+02 -0.16068E-03
 0.39130001E+02 -0.18845E-03
 0.39180000E+02 -0.17654E-03
 0.39230000E+02 -0.14230E-03
 0.39279999E+02 -0.55969E-04
 0.39330002E+02  0.27128E-04
 0.39380001E+02  0.40556E-04
 0.39430000E+02  0.38330E-05
 0.39480000E+02 -0.48799E-04
 0.39529999E+02 -0.81469E-04
 0.39580002E+02 -0.80323E-04
 0.39630001E+02 -0.24801E-04
 0.39680000E+02  0.72601E-04
 0.39730000E+02  0.15067E-03
 0.39779999E+02  0.20151E-03
 0.39830002E+02  0.22811E-03
 0.39880001E+02  0.20436E-03
 0.39930000E+02  0.12163E-03
 0.39980000E+02 -0.31261E-04
 0.40029999E+02 -0.18899E-03
 0.40080002E+02 -0.27654E-03
 0.40130001E+02 -0.28811E-03
 0.40180000E+02 -0.19841E-03
 0.40230000E+02 -0.35544E-04
 0.40279999E+02  0.98437E-04
 0.40330002E+02  0.10743E-03
 0.40380001E+02  0.42252E-04
 0.40430000E+02  0.38471E-05
 0.40480000E+02  0.23216E-04
 0.40529999E+02  0.62950E-04
 0.40580002E+02  0.20724E-04
 0.40630001E+02 -0.89719E-04
 0.40680000E+02 -0.17686E-03
 0.40730000E+02 -0.12251E-03
 0.40779999E+02  0.33317E-04
 0.40830002E+02  0.13451E-03
 0.40880001E+02  0.18768E-03
 0.40930000E+02  0.17467E-03
 0.40980000E+02  0.13400E-03
 0.41029999E+02  0.14129E-03
 0.41080002E+02  0.13585E-03
 0.41130001E+02  0.12957E-03
 0.41180000E+02  0.11314E-03
 0.41230000E+02  0.24047E-04
 0.41279999E+02 -0.14424E-03
 0.41330002E+02 -0.34587E-03
 0.41380001E+02 -0.42534E-03
 0.41430000E+02 -0.30592E-03
 0.41480000E+02 -0.81078E-04
 0.41529999E+02  0.62449E-04
 0.41580002E+02  0.94841E-04
 0.41630001E+02  0.12079E-03
 0.41680000E+02  0.10141E-03
 0.41730000E+02  0.39362E-04
 0.41779999E+02 -0.53414E-04
 0.41830002E+02 -0.16873E-03
 0.41880001E+02 -0.20080E-03
 0.41930000E+02 -0.89431E-04
 0.41980000E+02  0.11587E-03
 0.42029999E+02  0.27144E-03
 0.42080002E+02  0.30378E-03
 0.42130001E+02  0.26827E-03
 0.42180000E+02  0.21795E-03
 0.42230000E+02  0.13702E-03
 0.42279999E+02  0.35383E-05
 0.42330002E+02 -0.14806E-03
 0.42380001E+02 -0.26407E-03
 0.42430000E+02 -0.34651E-03
 0.42480000E+02 -0.36810E-03
 0.42529999E+02 -0.26590E-03
 0.42580002E+02 -0.11318E-03
 0.42630001E+02  0.34327E-04
 0.42680000E+02  0.15422E-03
 0.42730000E+02  0.16654E-03
 0.42779999E+02  0.15912E-03
 0.42830002E+02  0.24525E-03
 0.42880001E+02  0.33816E-03
 0.42930000E+02  0.32826E-03
 0.42980000E+02  0.18548E-03
 0.43029999E+02 -0.89451E-05
 0.43080002E+02 -0.14192E-03
 0.43130001E+02 -0.20917E-03
 0.43180000E+02 -0.23173E-03
 0.43230000E+02 -0.18792E-03
 0.43279999E+02 -0.13825E-03
 0.43330002E+02 -0.14617E-03
 0.43380001E+02 -0.13401E-03
 0.43430000E+02 -0.71196E-04
 0.43480000E+02  0.41492E-04
 0.43529999E+02  0.13647E-03
 0.43580002E+02  0.17997E-03
 0.43630001E+02  0.22862E-03
 0.43680000E+02  0.21277E-03
 0.43730000E+02  0.13479E-03
 0.43779999E+02  0.97759E-05
 0.43830002E+02 -0.10562E-03
 0.43880001E+02 -0.17106E-03
 0.43930000E+02 -0.21030E-03
 0.43980000E+02 -0.17153E-03
 0.44029999E+02 -0.10471E-03
 0.44080002E+02 -0.35049E-05
 0.44130001E+02  0.10998E-03
 0.44180000E+02  0.17322E-03
 0.44230000E+02  0.16293E-03
 0.44279999E+02  0.91887E-04
 0.44330002E+02  0.89309E-04
 0.44380001E+02  0.50485E-04
 0.44430000E+02 -0.15913E-03
 0.44480000E+02 -0.33838E-03
 0.44529999E+02 -0.28076E-03
 0.44580002E+02 -0.75481E-04
 0.44630001E+02  0.41839E-04
 0.44680000E+02  0.11269E-04
 0.44730000E+02 -0.87094E-04
 0.44779999E+02 -0.13691E-03
 0.44830002E+02  0.78974E-05
 0.44880001E+02  0.26531E-03
 0.44930000E+02  0.41497E-03
 0.44980000E+02  0.35525E-03
 0.45029999E+02  0.11997E-03
 0.45080002E+02 -0.89164E-04
 0.45130001E+02 -0.16623E-03
 0.45180000E+02 -0.13455E-03
 0.45230000E+02 -0.14972E-04
 0.45279999E+02  0.83850E-04
 0.45330002E+02  0.10904E-03
 0.45380001E+02  0.92991E-04
 0.45430000E+02  0.39356E-04
 0.45480000E+02 -0.47542E-04
 0.45529999E+02 -0.11116E-03
 0.45580002E+02 -0.14033E-03
 0.45630001E+02 -0.16668E-03
 0.45680000E+02 -0.13911E-03
 0.45730000E+02 -0.62038E-04
 0.45779999E+02 -0.38788E-05
 0.45830002E+02 -0.25017E-04
 0.45880001E+02 -0.75700E-04
 0.45930000E+02 -0.65865E-04
 0.45980000E+02 -0.45952E-04
 0.46029999E+02 -0.14522E-04
 0.46080002E+02  0.37629E-04
 0.46130001E+02  0.63279E-04
 0.46180000E+02  0.81798E-04
 0.46230000E+02  0.12457E-03
 0.46279999E+02  0.14644E-03
 0.46330002E+02  0.12508E-03
 0.46380001E+02  0.98017E-04
 0.46430000E+02  0.77795E-04
 0.46480000E+02  0.23949E-04
 0.46529999E+02 -0.93791E-04
 0.46580002E+02 -0.17582E-03
 0.46630001E+02 -0.17053E-03
 0.46680000E+02 -0.92236E-04
 0.46730000E+02  0.52920E-05
 0.46779999E+02  0.52720E-04
 0.46830002E+02  0.10245E-03
 0.46880001E+02  0.15694E-03
 0.46930000E+02  0.18476E-03
 0.46980000E+02  0.14708E-03
 0.47029999E+02  0.53263E-04
 0.47080002E+02  0.57965E-05
 0.47130001E+02 -0.17076E-04
 0.47180000E+02 -0.64560E-04
 0.47230000E+02 -0.15101E-03
 0.47279999E+02 -0.24140E-03
 0.47330002E+02 -0.22008E-03
 0.47380001E+02 -0.99304E-04
 0.47430000E+02  0.21399E-04
 0.47480000E+02  0.65418E-04
 0.47529999E+02 -0.16437E-04
 0.47580002E+02 -0.11683E-03
 0.47630001E+02 -0.11042E-03
 0.47680000E+02 -0.54293E-04
 0.47730000E+02  0.43468E-04
 0.47779999E+02  0.18942E-03
 0.47830002E+02  0.26226E-03
 0.47880001E+02  0.22175E-03
 0.47930000E+02  0.11672E-03
 0.47980000E+02  0.40832E-04
 0.48029999E+02  0.33276E-04
 0.48080002E+02 -0.31064E-05
 0.48130001E+02 -0.10925E-03
 0.48180000E+02 -0.23316E-03
 0.48230000E+02 -0.29448E-03
 0.48279999E+02 -0.26574E-03
 0.48330002E+02 -0.20710E-03
 0.48380001E+02 -0.13337E-03
 0.48430000E+02 -0.65645E-05
 0.48480000E+02  0.13085E-03
 0.48529999E+02  0.21222E-03
 0.48580002E+02  0.28014E-03
 0.48630001E+02  0.31660E-03
 0.48680000E+02  0.29899E-03
 0.48730000E+02  0.26621E-03
 0.48779999E+02  0.20177E-03
 0.48830002E+02  0.12481E-03
 0.48880001E+02  0.79047E-05
 0.48930000E+02 -0.12620E-03
 0.48980000E+02 -0.18982E-03
 0.49029999E+02 -0.20251E-03
 0.49080002E+02 -0.16398E-03
 0.49130001E+02 -0.11018E-03
 0.49180000E+02 -0.13251E-03
 0.49230000E+02 -0.19646E-03
 0.49279999E+02 -0.23932E-03
 0.49330002E+02 -0.20432E-03
 0.49380001E+02 -0.67866E-04
 0.49430000E+02  0.32260E-04
 0.49480000E+02  0.62752E-04
 0.49529999E+02  0.84740E-04
 0.49580002E+02  0.92215E-04
 0.49630001E+02  0.10898E-03
 0.49680000E+02  0.90378E-04
 0.49730000E+02  0.17103E-04
 0.49779999E+02 -0.26614E-04
 0.49830002E+02 -0.36480E-04
 0.49880001E+02 -0.51913E-04
 0.49930000E+02 -0.58630E-04
 0.49980000E+02 -0.31738E-04
 0.50029999E+02  0.48419E-04
 0.50080002E+02  0.13946E-03
 0.50130001E+02  0.16853E-03
 0.50180000E+02  0.15542E-03
 0.50230000E+02  0.13855E-03
 0.50279999E+02  0.12086E-03
 0.50330002E+02  0.45432E-04
 0.50380001E+02 -0.10549E-03
 0.50430000E+02 -0.21271E-03
 0.50480000E+02 -0.21459E-03
 0.50529999E+02 -0.14316E-03
 0.50580002E+02 -0.40974E-04
 0.50630001E+02  0.44355E-04
 0.50680000E+02  0.77889E-04
 0.50730000E+02  0.99676E-04
 0.50779999E+02  0.12528E-03
 0.50830002E+02  0.84671E-04
 0.50880001E+02  0.35645E-05
 0.50930000E+02 -0.71468E-04
 0.50980000E+02 -0.91095E-04
 0.51029999E+02 -0.20365E-04
 0.51080002E+02  0.35351E-04
 0.51130001E+02  0.61311E-04
 0.51180000E+02  0.75791E-04
 0.51230000E+02  0.17097E-04
 0.51279999E+02 -0.46723E-04
 0.51330002E+02 -0.68918E-04
 0.51380001E+02 -0.83834E-04
 0.51430000E+02 -0.10723E-03
 0.51480000E+02 -0.12752E-03
 0.51529999E+02 -0.74929E-04
 0.51580002E+02  0.12409E-04
 0.51630001E+02  0.70347E-04
 0.51680000E+02  0.13344E-03
 0.51730000E+02  0.20122E-03
 0.51779999E+02  0.21969E-03
 0.51830002E+02  0.15704E-03
 0.51880001E+02  0.48042E-04
 0.51930000E+02 -0.55059E-04
 0.51980000E+02 -0.11339E-03
 0.52029999E+02 -0.15297E-03
 0.52080002E+02 -0.19625E-03
 0.52130001E+02 -0.21875E-03
 0.52180000E+02 -0.20311E-03
 0.52230000E+02 -0.13487E-03
 0.52279999E+02 -0.37772E-04
 0.52330002E+02  0.63062E-04
 0.52380001E+02  0.12528E-03
 0.52430000E+02  0.13959E-03
 0.52480000E+02  0.13075E-03
 0.52529999E+02  0.12506E-03
 0.52580002E+02  0.12091E-03
 0.52630001E+02  0.55696E-04
 0.52680000E+02 -0.35108E-04
 0.52730000E+02 -0.91110E-04
 0.52779999E+02 -0.98883E-04
 0.52830002E+02 -0.63574E-04
 0.52880001E+02 -0.22361E-04
 0.52930000E+02  0.14711E-04
 0.52980000E+02  0.53607E-04
 0.53029999E+02  0.10903E-03
 0.53080002E+02  0.14629E-03
 0.53130001E+02  0.10832E-03
 0.53180000E+02  0.28571E-04
 0.53230000E+02 -0.14760E-04
 0.53279999E+02  0.12043E-04
 0.53330002E+02  0.61963E-04
 0.53380001E+02  0.60429E-04
 0.53430000E+02 -0.16021E-04
 0.53480000E+02 -0.11256E-03
 0.53529999E+02 -0.18083E-03
 0.53580002E+02 -0.22565E-03
 0.53630001E+02 -0.22891E-03
 0.53680000E+02 -0.18534E-03
 0.53730000E+02 -0.11276E-03
 0.53779999E+02 -0.38247E-04
 0.53830002E+02  0.66256E-05
 0.53880001E+02  0.48565E-04
 0.53930000E+02  0.10977E-03
 0.53980000E+02  0.17195E-03
 0.54029999E+02  0.23010E-03
 0.54080002E+02  0.26712E-03
 0.54130001E+02  0.26331E-03
 0.54180000E+02  0.19888E-03
 0.54230000E+02  0.58748E-04
 0.54279999E+02 -0.89627E-04
 0.54330002E+02 -0.17533E-03
 0.54380001E+02 -0.18886E-03
 0.54430000E+02 -0.15080E-03
 0.54480000E+02 -0.63237E-04
 0.54529999E+02  0.45698E-04
 0.54580002E+02  0.89257E-04
 0.54630001E+02  0.83683E-04
 0.54680000E+02  0.41876E-04
 0.54730000E+02 -0.40905E-04
 0.54779999E+02 -0.11616E-03
 0.54830002E+02 -0.19744E-03
 0.54880001E+02 -0.25865E-03
 0.54930000E+02 -0.25248E-03
 0.54980000E+02 -0.17670E-03
 0.55029999E+02 -0.46902E-04
 0.55080002E+02  0.97242E-04
 0.55130001E+02  0.21026E-03
 0.55180000E+02  0.25382E-03
 0.55230000E+02  0.23278E-03
 0.55279999E+02  0.16065E-03
 0.55330002E+02  0.65423E-04
 0.55380001E+02 -0.24538E-04
 0.55430000E+02 -0.86894E-04
 0.55480000E+02 -0.88433E-04
 0.55529999E+02 -0.61750E-04
 0.55580002E+02 -0.24688E-04
 0.55630001E+02  0.20869E-04
 0.55680000E+02  0.61508E-04
 0.55730000E+02  0.77060E-04
 0.55779999E+02  0.35664E-04
 0.55830002E+02 -0.32048E-05
 0.55880001E+02 -0.71319E-05
 0.55930000E+02 -0.28753E-05
 0.55980000E+02 -0.75375E-05
 0.56029999E+02 -0.48100E-05
 0.56080002E+02  0.12937E-04
 0.56130001E+02  0.56960E-05
 0.56180000E+02  0.10782E-04
 0.56230000E+02  0.33278E-04
 0.56279999E+02  0.39371E-04
 0.56330002E+02  0.21334E-04
 0.56380001E+02 -0.28004E-04
 0.56430000E+02 -0.50779E-04
 0.56480000E+02 -0.38804E-04
 0.56529999E+02 -0.27716E-04
 0.56580002E+02 -0.28159E-04
 0.56630001E+02 -0.48112E-04
 0.56680000E+02 -0.56338E-04
 0.56730000E+02 -0.29385E-04
 0.56779999E+02  0.12693E-04
 0.56830002E+02  0.33228E-04
 0.56880001E+02  0.37821E-04
 0.56930000E+02  0.55449E-04
 0.56980000E+02  0.79780E-04
 0.57029999E+02  0.77284E-04
 0.57080002E+02  0.13340E-04
 0.57130001E+02 -0.80276E-04
 0.57180000E+02 -0.14006E-03
 0.57230000E+02 -0.16255E-03
 0.57279999E+02 -0.16343E-03
 0.57330002E+02 -0.12229E-03
 0.57380001E+02 -0.46340E-04
 0.57430000E+02  0.38589E-04
 0.57480000E+02  0.11521E-03
 0.57529999E+02  0.12991E-03
 0.57580002E+02  0.85548E-04
 0.57630001E+02  0.36317E-04
 0.57680000E+02 -0.40812E-07
 0.57730000E+02 -0.75285E-05
 0.57779999E+02  0.11441E-04
 0.57830002E+02  0.30885E-04
 0.57880001E+02  0.44501E-04
 0.57930000E+02  0.65660E-04
 0.57980000E+02  0.97534E-04
 0.58029999E+02  0.12801E-03
 0.58080002E+02  0.10427E-03
 0.58130001E+02  0.11093E-04
 0.58180000E+02 -0.53085E-04
 0.58230000E+02 -0.82783E-04
 0.58279999E+02 -0.12973E-03
 0.58330002E+02 -0.16608E-03
 0.58380001E+02 -0.16441E-03
 0.58430000E+02 -0.95778E-04
 0.58480000E+02  0.11243E-04
 0.58529999E+02  0.84174E-04
 0.58580002E+02  0.11765E-03
 0.58630001E+02  0.12403E-03
 0.58680000E+02  0.80463E-04
 0.58730000E+02  0.47870E-05
 0.58779999E+02 -0.57412E-04
 0.58830002E+02 -0.90582E-04
 0.58880001E+02 -0.10473E-03
 0.58930000E+02 -0.10605E-03
 0.58980000E+02 -0.65444E-04
 0.59029999E+02 -0.18178E-05
 0.59080002E+02  0.33025E-04
 0.59130001E+02  0.44628E-04
 0.59180000E+02  0.55176E-04
 0.59230000E+02  0.58765E-04
 0.59279999E+02  0.54973E-04
 0.59330002E+02  0.55548E-04
 0.59380001E+02  0.72782E-04
 0.59430000E+02  0.11751E-03
 0.59480000E+02  0.14850E-03
 0.59529999E+02  0.11931E-03
 0.59580002E+02  0.49163E-04
 0.59630001E+02 -0.26997E-04
 0.59680000E+02 -0.91166E-04
 0.59730000E+02 -0.13349E-03
 0.59779999E+02 -0.16342E-03
 0.59830002E+02 -0.18165E-03
 0.59880001E+02 -0.16465E-03
 0.59930000E+02 -0.11535E-03
 0.59980000E+02 -0.67616E-04
 0.60029999E+02 -0.37064E-04
 0.60080002E+02 -0.10404E-04
 0.60130001E+02  0.21427E-04
 0.60180000E+02  0.70972E-04
 0.60230000E+02  0.13140E-03
 0.60279999E+02  0.15747E-03
 0.60330002E+02  0.15935E-03
 0.60380001E+02  0.16416E-03
 0.60430000E+02  0.14414E-03
 0.60480000E+02  0.91825E-04
 0.60529999E+02  0.16638E-04
 0.60580002E+02 -0.74653E-04
 0.60630001E+02 -0.14333E-03
 0.60680000E+02 -0.16440E-03
 0.60730000E+02 -0.15142E-03
 0.60779999E+02 -0.10933E-03
 0.60830002E+02 -0.52896E-04
 0.60880001E+02 -0.90771E-05
 0.60930000E+02  0.24979E-04
 0.60980000E+02  0.51177E-04
 0.61029999E+02  0.49384E-04
 0.61080002E+02  0.26828E-04
 0.61130001E+02  0.76927E-05
 0.61180000E+02 -0.51479E-05
 0.61230000E+02  0.39762E-05
 0.61279999E+02  0.37299E-04
 0.61330002E+02  0.62655E-04
 0.61380001E+02  0.68462E-04
 0.61430000E+02  0.52417E-04
 0.61480000E+02  0.96092E-05
 0.61529999E+02 -0.43731E-04
 0.61580002E+02 -0.84179E-04
 0.61630001E+02 -0.91798E-04
 0.61680000E+02 -0.58845E-04
 0.61730000E+02  0.55498E-06
 0.61779999E+02  0.56994E-04
 0.61830002E+02  0.89820E-04
 0.61880001E+02  0.96624E-04
 0.61930000E+02  0.64943E-04
 0.61980000E+02  0.40673E-05
 0.62029999E+02 -0.45040E-04
 0.62080002E+02 -0.72933E-04
 0.62130001E+02 -0.83942E-04
 0.62180000E+02 -0.71041E-04
 0.62230000E+02 -0.50183E-04
 0.62279999E+02 -0.42794E-04
 0.62330002E+02 -0.45960E-04
 0.62380001E+02 -0.40709E-04
 0.62430000E+02 -0.18195E-04
 0.62480000E+02  0.51267E-05
 0.62529999E+02  0.29629E-04
 0.62580002E+02  0.66340E-04
 0.62630001E+02  0.99392E-04
 0.62680000E+02  0.10922E-03
 0.62730000E+02  0.95625E-04
 0.62779999E+02  0.59621E-04
 0.62830002E+02 -0.60870E-06
 0.62880001E+02 -0.55839E-04
 0.62930000E+02 -0.87061E-04
 0.62980000E+02 -0.93246E-04
 0.63029999E+02 -0.61812E-04
 0.63080002E+02 -0.20221E-04
 0.63130001E+02  0.61317E-05
 0.63180000E+02  0.24180E-04
 0.63230000E+02  0.36164E-04
 0.63279999E+02  0.49415E-04
 0.63330002E+02  0.48803E-04
 0.63380001E+02  0.31210E-04
 0.63430000E+02  0.13942E-04
 0.63480000E+02 -0.15978E-04
 0.63529999E+02 -0.44536E-04
 0.63580002E+02 -0.53075E-04
 0.63630001E+02 -0.58788E-04
 0.63680000E+02 -0.61982E-04
 0.63730000E+02 -0.47475E-04
 0.63779999E+02 -0.10151E-04
 0.63830002E+02  0.38501E-04
 0.63880001E+02  0.82526E-04
 0.63930000E+02  0.10917E-03
 0.63980000E+02  0.11042E-03
 0.64029999E+02  0.87609E-04
 0.64080002E+02  0.55801E-04
 0.64129997E+02  0.24349E-04
 0.64180000E+02 -0.14732E-04
 0.64230003E+02 -0.57103E-04
 0.64279999E+02 -0.98621E-04
 0.64330002E+02 -0.13688E-03
 0.64379997E+02 -0.15059E-03
 0.64430000E+02 -0.11620E-03
 0.64480003E+02 -0.39041E-04
 0.64529999E+02  0.36820E-04
 0.64580002E+02  0.78130E-04
 0.64629997E+02  0.93497E-04
 0.64680000E+02  0.96568E-04
 0.64730003E+02  0.87894E-04
 0.64779999E+02  0.69363E-04
 0.64830002E+02  0.40704E-04
 0.64879997E+02 -0.22295E-05
 0.64930000E+02 -0.46559E-04
 0.64980003E+02 -0.68974E-04
 0.65029999E+02 -0.67209E-04
 0.65080002E+02 -0.54984E-04
 0.65129997E+02 -0.39773E-04
 0.65180000E+02 -0.87716E-05
 0.65230003E+02  0.39788E-04
 0.65279999E+02  0.67608E-04
 0.65330002E+02  0.51058E-04
 0.65379997E+02  0.95538E-05
 0.65430000E+02 -0.20381E-04
 0.65480003E+02 -0.20020E-04
 0.65529999E+02 -0.10496E-04
 0.65580002E+02 -0.15647E-04
 0.65629997E+02 -0.29338E-04
 0.65680000E+02 -0.42291E-04
 0.65730003E+02 -0.53451E-04
 0.65779999E+02 -0.61080E-04
 0.65830002E+02 -0.65055E-04
 0.65879997E+02 -0.49676E-04
 0.65930000E+02 -0.94747E-05
 0.65980003E+02  0.34213E-04
 0.66029999E+02  0.70509E-04
 0.66080002E+02  0.10241E-03
 0.66129997E+02  0.11750E-03
 0.66180000E+02  0.92033E-04
 0.66230003E+02  0.39543E-04
 0.66279999E+02 -0.55654E-05
 0.66330002E+02 -0.26737E-04
 0.66379997E+02 -0.28086E-04
 0.66430000E+02 -0.17856E-04
 0.66480003E+02  0.49795E-05
 0.66529999E+02  0.20618E-04
 0.66580002E+02  0.15576E-04
 0.66629997E+02  0.52391E-05
 0.66680000E+02 -0.73181E-05
 0.66730003E+02 -0.25711E-04
 0.66779999E+02 -0.44829E-04
 0.66830002E+02 -0.54573E-04
 0.66879997E+02 -0.46602E-04
 0.66930000E+02 -0.24818E-04
 0.66980003E+02  0.38056E-05
 0.67029999E+02  0.27744E-04
 0.67080002E+02  0.32694E-04
 0.67129997E+02  0.27422E-04
 0.67180000E+02  0.27080E-04
 0.67230003E+02  0.28375E-04
 0.67279999E+02  0.26042E-04
 0.67330002E+02  0.18305E-04
 0.67379997E+02  0.73965E-05
 0.67430000E+02  0.48938E-05
 0.67480003E+02  0.13611E-04
 0.67529999E+02  0.21185E-04
 0.67580002E+02  0.12443E-04
 0.67629997E+02 -0.19491E-04
 0.67680000E+02 -0.63270E-04
 0.67730003E+02 -0.98344E-04
 0.67779999E+02 -0.10992E-03
 0.67830002E+02 -0.10236E-03
 0.67879997E+02 -0.81291E-04
 0.67930000E+02 -0.42910E-04
 0.67980003E+02  0.49191E-05
 0.68029999E+02  0.46161E-04
 0.68080002E+02  0.67979E-04
 0.68129997E+02  0.75991E-04
 0.68180000E+02  0.83768E-04
 0.68230003E+02  0.94142E-04
 0.68279999E+02  0.10470E-03
 0.68330002E+02  0.10786E-03
 0.68379997E+02  0.90243E-04
 0.68430000E+02  0.47453E-04
 0.68480003E+02 -0.11046E-04
 0.68529999E+02 -0.73081E-04
 0.68580002E+02 -0.12506E-03
 0.68629997E+02 -0.15406E-03
 0.68680000E+02 -0.14864E-03
 0.68730003E+02 -0.11361E-03
 0.68779999E+02 -0.64095E-04
 0.68830002E+02 -0.13008E-04
 0.68879997E+02  0.22699E-04
 0.68930000E+02  0.38653E-04
 0.68980003E+02  0.40386E-04
 0.69029999E+02  0.33165E-04
 0.69080002E+02  0.25409E-04
 0.69129997E+02  0.21062E-04
 0.69180000E+02  0.22787E-04
 0.69230003E+02  0.36653E-04
 0.69279999E+02  0.59072E-04
 0.69330002E+02  0.77609E-04
 0.69379997E+02  0.84800E-04
 0.69430000E+02  0.81516E-04
 0.69480003E+02  0.68644E-04
 0.69529999E+02  0.41321E-04
 0.69580002E+02 -0.22574E-05
 0.69629997E+02 -0.47509E-04
 0.69680000E+02 -0.70342E-04
 0.69730003E+02 -0.66039E-04
 0.69779999E+02 -0.51799E-04
 0.69830002E+02 -0.41738E-04
 0.69879997E+02 -0.32101E-04
 0.69930000E+02 -0.20104E-04
 0.69980003E+02 -0.12188E-04
 0.70029999E+02 -0.68813E-05
 0.70080002E+02 -0.79927E-05
 0.70129997E+02 -0.14934E-04
 0.70180000E+02 -0.14219E-04
 0.70230003E+02 -0.78567E-05
 0.70279999E+02 -0.15657E-05
 0.70330002E+02  0.68534E-05
 0.70379997E+02  0.14770E-04
 0.70430000E+02  0.20812E-04
 0.70480003E+02  0.30208E-04
 0.70529999E+02  0.40727E-04
 0.70580002E+02  0.38022E-04
 0.70629997E+02  0.17173E-04
 0.70680000E+02 -0.10976E-04
 0.70730003E+02 -0.36563E-04
 0.70779999E+02 -0.57161E-04
 0.70830002E+02 -0.72090E-04
 0.70879997E+02 -0.74090E-04
 0.70930000E+02 -0.57690E-04
 0.70980003E+02 -0.28941E-04
 0.71029999E+02  0.15518E-05
 0.71080002E+02  0.25848E-04
 0.71129997E+02  0.42088E-04
 0.71180000E+02  0.52602E-04
 0.71230003E+02  0.59416E-04
 0.71279999E+02  0.54791E-04
 0.71330002E+02  0.33201E-04
 0.71379997E+02  0.72360E-05
 0.71430000E+02 -0.10730E-04
 0.71480003E+02 -0.10510E-04
 0.71529999E+02  0.75218E-05
 0.71580002E+02  0.23230E-04
 0.71629997E+02  0.32649E-04
 0.71680000E+02  0.43329E-04
 0.71730003E+02  0.48201E-04
 0.71779999E+02  0.39921E-04
 0.71830002E+02  0.19285E-04
 0.71879997E+02 -0.73716E-05
 0.71930000E+02 -0.28615E-04
 0.71980003E+02 -0.40314E-04
 0.72029999E+02 -0.58728E-04
 0.72080002E+02 -0.88506E-04
 0.72129997E+02 -0.10613E-03
 0.72180000E+02 -0.94715E-04
 0.72230003E+02 -0.55620E-04
 0.72279999E+02 -0.95876E-05
 0.72330002E+02  0.30051E-04
 0.72379997E+02  0.61217E-04
 0.72430000E+02  0.72552E-04
 0.72480003E+02  0.70729E-04
 0.72529999E+02  0.61615E-04
 0.72580002E+02  0.42457E-04
 0.72629997E+02  0.18304E-04
 0.72680000E+02 -0.63230E-05
 0.72730003E+02 -0.24176E-04
 0.72779999E+02 -0.39511E-04
 0.72830002E+02 -0.53536E-04
 0.72879997E+02 -0.56908E-04
 0.72930000E+02 -0.46586E-04
 0.72980003E+02 -0.23189E-04
 0.73029999E+02  0.52698E-05
 0.73080002E+02  0.33498E-04
 0.73129997E+02  0.52610E-04
 0.73180000E+02  0.51705E-04
 0.73230003E+02  0.41888E-04
 0.73279999E+02  0.32178E-04
 0.73330002E+02  0.20742E-04
 0.73379997E+02  0.99439E-05
 0.73430000E+02 -0.45443E-05
 0.73480003E+02 -0.19755E-04
 0.73529999E+02 -0.19139E-04
 0.73580002E+02 -0.55729E-05
 0.73629997E+02  0.52842E-05
 0.73680000E+02  0.81671E-05
 0.73730003E+02  0.47220E-06
 0.73779999E+02 -0.16173E-04
 0.73830002E+02 -0.33486E-04
 0.73879997E+02 -0.38981E-04
 0.73930000E+02 -0.26673E-04
 0.73980003E+02 -0.96555E-05
 0.74029999E+02  0.57032E-06
 0.74080002E+02  0.92446E-05
 0.74129997E+02  0.19765E-04
 0.74180000E+02  0.21170E-04
 0.74230003E+02  0.92761E-05
 0.74279999E+02 -0.10149E-05
 0.74330002E+02 -0.34531E-05
 0.74379997E+02 -0.30245E-05
 0.74430000E+02 -0.12271E-05
 0.74480003E+02  0.62354E-06
 0.74529999E+02  0.41887E-05
 0.74580002E+02  0.10818E-04
 0.74629997E+02  0.16897E-04
 0.74680000E+02  0.14029E-04
 0.74730003E+02  0.55447E-05
 0.74779999E+02 -0.67907E-06
 0.74830002E+02 -0.96312E-05
 0.74879997E+02 -0.21521E-04
 0.74930000E+02 -0.25611E-04
 0.74980003E+02 -0.14919E-04
 0.75029999E+02 -0.14409E-05
 0.75080002E+02  0.83546E-05
 0.75129997E+02  0.15099E-04
 0.75180000E+02  0.69644E-05
 0.75230003E+02 -0.99956E-05
 0.75279999E+02 -0.18124E-04
 0.75330002E+02 -0.21642E-04
 0.75379997E+02 -0.26230E-04
 0.75430000E+02 -0.20628E-04
 0.75480003E+02 -0.32463E-05
 0.75529999E+02  0.14531E-04
 0.75580002E+02  0.25261E-04
 0.75629997E+02  0.26924E-04
 0.75680000E+02  0.28913E-04
 0.75730003E+02  0.38063E-04
 0.75779999E+02  0.46576E-04
 0.75830002E+02  0.50339E-04
 0.75879997E+02  0.47979E-04
 0.75930000E+02  0.33156E-04
 0.75980003E+02  0.78931E-05
 0.76029999E+02 -0.17194E-04
 0.76080002E+02 -0.36675E-04
 0.76129997E+02 -0.50564E-04
 0.76180000E+02 -0.56274E-04
 0.76230003E+02 -0.51282E-04
 0.76279999E+02 -0.39003E-04
 0.76330002E+02 -0.24102E-04
 0.76379997E+02 -0.14744E-04
 0.76430000E+02 -0.17489E-04
 0.76480003E+02 -0.20886E-04
 0.76529999E+02 -0.19162E-04
 0.76580002E+02 -0.17942E-04
 0.76629997E+02 -0.12197E-04
 0.76680000E+02 -0.20630E-05
 0.76730003E+02  0.84727E-05
 0.76779999E+02  0.17271E-04
 0.76830002E+02  0.19964E-04
 0.76879997E+02  0.24527E-04
 0.76930000E+02  0.36062E-04
 0.76980003E+02  0.49041E-04
 0.77029999E+02  0.61033E-04
 0.77080002E+02  0.65342E-04
 0.77129997E+02  0.56867E-04
 0.77180000E+02  0.36791E-04
 0.77230003E+02  0.92111E-05
 0.77279999E+02 -0.18777E-04
 0.77330002E+02 -0.40304E-04
 0.77379997E+02 -0.48048E-04
 0.77430000E+02 -0.43781E-04
 0.77480003E+02 -0.40695E-04
 0.77529999E+02 -0.44205E-04
 0.77580002E+02 -0.47567E-04
 0.77629997E+02 -0.47872E-04
 0.77680000E+02 -0.49086E-04
 0.77730003E+02 -0.49268E-04
 0.77779999E+02 -0.42269E-04
 0.77830002E+02 -0.29897E-04
 0.77879997E+02 -0.12096E-04
 0.77930000E+02  0.13799E-04
 0.77980003E+02  0.47987E-04
 0.78029999E+02  0.86346E-04
 0.78080002E+02  0.11060E-03
 0.78129997E+02  0.10940E-03
 0.78180000E+02  0.89764E-04
 0.78230003E+02  0.61610E-04
 0.78279999E+02  0.31868E-04
 0.78330002E+02  0.26206E-05
 0.78379997E+02 -0.23656E-04
 0.78430000E+02 -0.38963E-04
 0.78480003E+02 -0.40078E-04
 0.78529999E+02 -0.34312E-04
 0.78580002E+02 -0.26973E-04
 0.78629997E+02 -0.18455E-04
 0.78680000E+02 -0.14788E-04
 0.78730003E+02 -0.18400E-04
 0.78779999E+02 -0.19509E-04
 0.78830002E+02 -0.17366E-04
 0.78879997E+02 -0.17425E-04
 0.78930000E+02 -0.18409E-04
 0.78980003E+02 -0.16012E-04
 0.79029999E+02 -0.92225E-05
 0.79080002E+02 -0.46772E-05
 0.79129997E+02 -0.39134E-05
 0.79180000E+02 -0.36682E-05
 0.79230003E+02 -0.18829E-05
 0.79279999E+02 -0.36034E-05
 0.79330002E+02 -0.10079E-04
 0.79379997E+02 -0.13270E-04
 0.79430000E+02 -0.13858E-04
 0.79480003E+02 -0.12408E-04
 0.79529999E+02 -0.98217E-05
 0.79580002E+02 -0.60190E-05
 0.79629997E+02  0.38176E-05
 0.79680000E+02  0.16043E-04
 0.79730003E+02  0.26090E-04
 0.79779999E+02  0.33376E-04
 0.79830002E+02  0.39173E-04
 0.79879997E+02  0.43166E-04
 0.79930000E+02  0.41944E-04
 0.79980003E+02  0.35335E-04
 0.80029999E+02  0.21801E-04
 0.80080002E+02  0.33101E-05
 0.80129997E+02 -0.13877E-04
 0.80180000E+02 -0.29013E-04
 0.80230003E+02 -0.38574E-04
 0.80279999E+02 -0.39331E-04
 0.80330002E+02 -0.36244E-04
 0.80379997E+02 -0.29185E-04
 0.80430000E+02 -0.15107E-04
 0.80480003E+02  0.21197E-05
 0.80529999E+02  0.15514E-04
 0.80580002E+02  0.20201E-04
 0.80629997E+02  0.20468E-04
 0.80680000E+02  0.19554E-04
 0.80730003E+02  0.17647E-04
 0.80779999E+02  0.19099E-04
 0.80830002E+02  0.21924E-04
 0.80879997E+02  0.20948E-04
 0.80930000E+02  0.16157E-04
 0.80980003E+02  0.83204E-05
 0.81029999E+02 -0.26292E-05
 0.81080002E+02 -0.13739E-04
 0.81129997E+02 -0.20446E-04
 0.81180000E+02 -0.19633E-04
 0.81230003E+02 -0.13043E-04
 0.81279999E+02 -0.73876E-05
 0.81330002E+02 -0.68687E-05
 0.81379997E+02 -0.11150E-04
 0.81430000E+02 -0.18795E-04
 0.81480003E+02 -0.26278E-04
 0.81529999E+02 -0.29105E-04
 0.81580002E+02 -0.24898E-04
 0.81629997E+02 -0.14765E-04
 0.81680000E+02 -0.68150E-05
 0.81730003E+02 -0.36951E-05
 0.81779999E+02 -0.64573E-06
 0.81830002E+02  0.13344E-05
 0.81879997E+02  0.40518E-05
 0.81930000E+02  0.12442E-04
 0.81980003E+02  0.22211E-04
 0.82029999E+02  0.27726E-04
 0.82080002E+02  0.31249E-04
 0.82129997E+02  0.33852E-04
 0.82180000E+02  0.37222E-04
 0.82230003E+02  0.43227E-04
 0.82279999E+02  0.45390E-04
 0.82330002E+02  0.37413E-04
 0.82379997E+02  0.19897E-04
 0.82430000E+02 -0.23322E-05
 0.82480003E+02 -0.26067E-04
 0.82529999E+02 -0.48028E-04
 0.82580002E+02 -0.66047E-04
 0.82629997E+02 -0.77282E-04
 0.82680000E+02 -0.74611E-04
 0.82730003E+02 -0.58780E-04
 0.82779999E+02 -0.36574E-04
 0.82830002E+02 -0.13778E-04
 0.82879997E+02  0.49931E-05
 0.82930000E+02  0.18284E-04
 0.82980003E+02  0.29028E-04
 0.83029999E+02  0.40623E-04
 0.83080002E+02  0.50096E-04
 0.83129997E+02  0.52980E-04
 0.83180000E+02  0.45438E-04
 0.83230003E+02  0.26552E-04
 0.83279999E+02  0.47826E-05
 0.83330002E+02 -0.12432E-04
 0.83379997E+02 -0.24929E-04
 0.83430000E+02 -0.34516E-04
 0.83480003E+02 -0.39136E-04
 0.83529999E+02 -0.32766E-04
 0.83580002E+02 -0.21181E-04
 0.83629997E+02 -0.13603E-04
 0.83680000E+02 -0.42412E-05
 0.83730003E+02  0.94174E-05
 0.83779999E+02  0.20931E-04
 0.83830002E+02  0.27075E-04
 0.83879997E+02  0.31954E-04
 0.83930000E+02  0.37866E-04
 0.83980003E+02  0.39966E-04
 0.84029999E+02  0.39087E-04
 0.84080002E+02  0.33986E-04
 0.84129997E+02  0.25941E-04
 0.84180000E+02  0.17296E-04
 0.84230003E+02  0.75157E-06
 0.84279999E+02 -0.22864E-04
 0.84330002E+02 -0.45261E-04
 0.84379997E+02 -0.56995E-04
 0.84430000E+02 -0.52133E-04
 0.84480003E+02 -0.34894E-04
 0.84529999E+02 -0.13595E-04
 0.84580002E+02  0.68095E-05
 0.84629997E+02  0.20992E-04
 0.84680000E+02  0.23570E-04
 0.84730003E+02  0.18568E-04
 0.84779999E+02  0.12203E-04
 0.84830002E+02  0.46745E-05
 0.84879997E+02 -0.58149E-05
 0.84930000E+02 -0.19308E-04
 0.84980003E+02 -0.31169E-04
 0.85029999E+02 -0.35278E-04
 0.85080002E+02 -0.29858E-04
 0.85129997E+02 -0.18609E-04
 0.85180000E+02 -0.53231E-05
 0.85230003E+02  0.10936E-04
 0.85279999E+02  0.25802E-04
 0.85330002E+02  0.29853E-04
 0.85379997E+02  0.20009E-04
 0.85430000E+02  0.13664E-05
 0.85480003E+02 -0.14755E-04
 0.85529999E+02 -0.20735E-04
 0.85580002E+02 -0.15675E-04
 0.85629997E+02 -0.97106E-06
 0.85680000E+02  0.17884E-04
 0.85730003E+02  0.31880E-04
 0.85779999E+02  0.35390E-04
 0.85830002E+02  0.32533E-04
 0.85879997E+02  0.26419E-04
 0.85930000E+02  0.15687E-04
 0.85980003E+02  0.49167E-05
 0.86029999E+02 -0.26541E-05
 0.86080002E+02 -0.47682E-05
 0.86129997E+02 -0.80473E-06
 0.86180000E+02  0.23012E-05
 0.86230003E+02  0.53441E-07
 0.86279999E+02 -0.85303E-05
 0.86330002E+02 -0.20361E-04
 0.86379997E+02 -0.29272E-04
 0.86430000E+02 -0.32385E-04
 0.86480003E+02 -0.30536E-04
 0.86529999E+02 -0.24353E-04
 0.86580002E+02 -0.13726E-04
 0.86629997E+02 -0.20209E-05
 0.86680000E+02  0.91741E-05
 0.86730003E+02  0.19143E-04
 0.86779999E+02  0.23027E-04
 0.86830002E+02  0.17717E-04
 0.86879997E+02  0.52475E-05
 0.86930000E+02 -0.12650E-04
 0.86980003E+02 -0.31074E-04
 0.87029999E+02 -0.40953E-04
 0.87080002E+02 -0.40681E-04
 0.87129997E+02 -0.34585E-04
 0.87180000E+02 -0.25394E-04
 0.87230003E+02 -0.10577E-04
 0.87279999E+02  0.75148E-05
 0.87330002E+02  0.24074E-04
 0.87379997E+02  0.40472E-04
 0.87430000E+02  0.51827E-04
 0.87480003E+02  0.54547E-04
 0.87529999E+02  0.50646E-04
 0.87580002E+02  0.42343E-04
 0.87629997E+02  0.32918E-04
 0.87680000E+02  0.23953E-04
 0.87730003E+02  0.18091E-04
 0.87779999E+02  0.14996E-04
 0.87830002E+02  0.92810E-05
 0.87879997E+02 -0.27810E-06
 0.87930000E+02 -0.97845E-05
 0.87980003E+02 -0.15835E-04
 0.88029999E+02 -0.18422E-04
 0.88080002E+02 -0.20494E-04
 0.88129997E+02 -0.23596E-04
 0.88180000E+02 -0.24447E-04
 0.88230003E+02 -0.19578E-04
 0.88279999E+02 -0.13688E-04
 0.88330002E+02 -0.12267E-04
 0.88379997E+02 -0.14277E-04
 0.88430000E+02 -0.14222E-04
 0.88480003E+02 -0.89670E-05
 0.88529999E+02 -0.31420E-05
 0.88580002E+02  0.28895E-05
 0.88629997E+02  0.89819E-05
 0.88680000E+02  0.11894E-04
 0.88730003E+02  0.12355E-04
 0.88779999E+02  0.10778E-04
 0.88830002E+02  0.88985E-05
 0.88879997E+02  0.21695E-05
 0.88930000E+02 -0.10739E-04
 0.88980003E+02 -0.20765E-04
 0.89029999E+02 -0.26801E-04
 0.89080002E+02 -0.26890E-04
 0.89129997E+02 -0.19190E-04
 0.89180000E+02 -0.99987E-05
 0.89230003E+02 -0.35372E-05
 0.89279999E+02 -0.23619E-06
 0.89330002E+02  0.26861E-05
 0.89379997E+02  0.38659E-05
 0.89430000E+02  0.21924E-05
 0.89480003E+02  0.20177E-05
 0.89529999E+02  0.61757E-05
 0.89580002E+02  0.13410E-04
 0.89629997E+02  0.16218E-04
 0.89680000E+02  0.13684E-04
 0.89730003E+02  0.99865E-05
 0.89779999E+02  0.67224E-05
 0.89830002E+02  0.64075E-05
 0.89879997E+02  0.74758E-05
 0.89930000E+02  0.93019E-05
 0.89980003E+02  0.12077E-04
 0.90029999E+02  0.13312E-04
 0.90080002E+02  0.11744E-04
 0.90129997E+02  0.40399E-05
 0.90180000E+02 -0.11418E-04
 0.90230003E+02 -0.28649E-04
 0.90279999E+02 -0.39939E-04
 0.90330002E+02 -0.39852E-04
 0.90379997E+02 -0.30673E-04
 0.90430000E+02 -0.16570E-04
 0.90480003E+02  0.33184E-05
 0.90529999E+02  0.24975E-04
 0.90580002E+02  0.41545E-04
 0.90629997E+02  0.46538E-04
 0.90680000E+02  0.37994E-04
 0.90730003E+02  0.21488E-04
 0.90779999E+02  0.42137E-05
 0.90830002E+02 -0.91532E-05
 0.90879997E+02 -0.17360E-04
 0.90930000E+02 -0.17884E-04
 0.90980003E+02 -0.12472E-04
 0.91029999E+02 -0.59975E-05
 0.91080002E+02  0.51306E-06
 0.91129997E+02  0.44226E-05
 0.91180000E+02  0.24986E-05
 0.91230003E+02 -0.46247E-05
 0.91279999E+02 -0.12973E-04
 0.91330002E+02 -0.19595E-04
 0.91379997E+02 -0.23568E-04
 0.91430000E+02 -0.21821E-04
 0.91480003E+02 -0.11458E-04
 0.91529999E+02  0.40564E-05
 0.91580002E+02  0.18115E-04
 0.91629997E+02  0.24741E-04
 0.91680000E+02  0.22124E-04
 0.91730003E+02  0.15683E-04
 0.91779999E+02  0.71695E-05
 0.91830002E+02 -0.96968E-06
 0.91879997E+02 -0.24286E-05
 0.91930000E+02  0.25283E-05
 0.91980003E+02  0.89962E-05
 0.92029999E+02  0.11425E-04
 0.92080002E+02  0.10478E-04
 0.92129997E+02  0.90114E-05
 0.92180000E+02  0.69336E-05
 0.92230003E+02  0.44502E-05
 0.92279999E+02  0.78276E-06
 0.92330002E+02 -0.31948E-05
 0.92379997E+02 -0.39457E-05
 0.92430000E+02 -0.16426E-05
 0.92480003E+02 -0.75734E-06
 0.92529999E+02 -0.17115E-05
 0.92580002E+02 -0.20885E-05
 0.92629997E+02 -0.16326E-05
 0.92680000E+02 -0.13514E-05
 0.92730003E+02 -0.46171E-06
 0.92779999E+02  0.10468E-05
 0.92830002E+02 -0.11168E-05
 0.92879997E+02 -0.98885E-05
 0.92930000E+02 -0.23159E-04
 0.92980003E+02 -0.33692E-04
 0.93029999E+02 -0.37425E-04
 0.93080002E+02 -0.36647E-04
 0.93129997E+02 -0.30170E-04
 0.93180000E+02 -0.17277E-04
 0.93230003E+02 -0.24185E-05
 0.93279999E+02  0.11741E-04
 0.93330002E+02  0.23453E-04
 0.93379997E+02  0.30073E-04
 0.93430000E+02  0.27991E-04
 0.93480003E+02  0.18532E-04
 0.93529999E+02  0.95369E-05
 0.93580002E+02  0.62305E-05
 0.93629997E+02  0.11219E-04
 0.93680000E+02  0.18736E-04
 0.93730003E+02  0.21760E-04
 0.93779999E+02  0.22105E-04
 0.93830002E+02  0.19196E-04
 0.93879997E+02  0.11438E-04
 0.93930000E+02 -0.19684E-05
 0.93980003E+02 -0.21060E-04
 0.94029999E+02 -0.39319E-04
 0.94080002E+02 -0.48485E-04
 0.94129997E+02 -0.46031E-04
 0.94180000E+02 -0.35693E-04
 0.94230003E+02 -0.22862E-04
 0.94279999E+02 -0.98162E-05
 0.94330002E+02  0.47156E-05
 0.94379997E+02  0.19203E-04
 0.94430000E+02  0.30091E-04
 0.94480003E+02  0.35141E-04
 0.94529999E+02  0.33487E-04
 0.94580002E+02  0.29817E-04
 0.94629997E+02  0.26897E-04
 0.94680000E+02  0.23023E-04
 0.94730003E+02  0.17667E-04
 0.94779999E+02  0.99867E-05
 0.94830002E+02  0.23087E-05
 0.94879997E+02 -0.18123E-05
 0.94930000E+02 -0.28677E-05
 0.94980003E+02 -0.32840E-05
 0.95029999E+02 -0.45111E-05
 0.95080002E+02 -0.80249E-05
 0.95129997E+02 -0.13589E-04
 0.95180000E+02 -0.19235E-04
 0.95230003E+02 -0.24256E-04
 0.95279999E+02 -0.27138E-04
 0.95330002E+02 -0.27704E-04
 0.95379997E+02 -0.24019E-04
 0.95430000E+02 -0.15351E-04
 0.95480003E+02 -0.58353E-05
 0.95529999E+02  0.36172E-05
 0.95580002E+02  0.10745E-04
 0.95629997E+02  0.12279E-04
 0.95680000E+02  0.10757E-04
 0.95730003E+02  0.95272E-05
 0.95779999E+02  0.98710E-05
 0.95830002E+02  0.13820E-04
 0.95879997E+02  0.21412E-04
 0.95930000E+02  0.27931E-04
 0.95980003E+02  0.28398E-04
 0.96029999E+02  0.22706E-04
 0.96080002E+02  0.13836E-04
 0.96129997E+02  0.35443E-05
 0.96180000E+02 -0.51291E-05
 0.96230003E+02 -0.11749E-04
 0.96279999E+02 -0.18257E-04
 0.96330002E+02 -0.22787E-04
 0.96379997E+02 -0.23320E-04
 0.96430000E+02 -0.19141E-04
 0.96480003E+02 -0.12476E-04
 0.96529999E+02 -0.57516E-05
 0.96580002E+02 -0.67929E-06
 0.96629997E+02  0.12024E-05
 0.96680000E+02  0.18275E-05
 0.96730003E+02  0.10360E-05
 0.96779999E+02 -0.17600E-05
 0.96830002E+02 -0.36721E-05
 0.96879997E+02 -0.29831E-05
 0.96930000E+02 -0.18576E-05
 0.96980003E+02 -0.25459E-05
 0.97029999E+02 -0.51176E-05
 0.97080002E+02 -0.98852E-05
 0.97129997E+02 -0.15430E-04
 0.97180000E+02 -0.19631E-04
 0.97230003E+02 -0.20612E-04
 0.97279999E+02 -0.17065E-04
 0.97330002E+02 -0.91738E-05
 0.97379997E+02  0.31270E-05
 0.97430000E+02  0.17343E-04
 0.97480003E+02  0.27865E-04
 0.97529999E+02  0.31891E-04
 0.97580002E+02  0.32982E-04
 0.97629997E+02  0.33238E-04
 0.97680000E+02  0.30907E-04
 0.97730003E+02  0.24980E-04
 0.97779999E+02  0.14696E-04
 0.97830002E+02  0.18658E-05
 0.97879997E+02 -0.92399E-05
 0.97930000E+02 -0.12368E-04
 0.97980003E+02 -0.82618E-05
 0.98029999E+02 -0.38862E-05
 0.98080002E+02 -0.15042E-05
 0.98129997E+02 -0.28582E-05
 0.98180000E+02 -0.69514E-05
 0.98230003E+02 -0.11822E-04
 0.98279999E+02 -0.14285E-04
 0.98330002E+02 -0.12647E-04
 0.98379997E+02 -0.11784E-04
 0.98430000E+02 -0.12723E-04
 0.98480003E+02 -0.13779E-04
 0.98529999E+02 -0.13155E-04
 0.98580002E+02 -0.10138E-04
 0.98629997E+02 -0.76496E-05
 0.98680000E+02 -0.84194E-05
 0.98730003E+02 -0.10057E-04
 0.98779999E+02 -0.69813E-05
 0.98830002E+02  0.54925E-06
 0.98879997E+02  0.94339E-05
 0.98930000E+02  0.15800E-04
 0.98980003E+02  0.14356E-04
 0.99029999E+02  0.73545E-05
 0.99080002E+02  0.77499E-06
 0.99129997E+02 -0.30324E-05
 0.99180000E+02 -0.45745E-05
 0.99230003E+02 -0.34505E-05
 0.99279999E+02  0.81154E-06
 0.99330002E+02  0.50849E-05
 0.99379997E+02  0.90194E-05
 0.99430000E+02  0.12735E-04
 0.99480003E+02  0.15024E-04
 0.99529999E+02  0.14676E-04
 0.99580002E+02  0.11389E-04
 0.99629997E+02  0.81764E-05
 0.99680000E+02  0.49257E-05
 0.99730003E+02  0.21797E-05
 0.99779999E+02  0.15804E-05
 0.99830002E+02  0.14929E-05
 0.99879997E+02  0.82141E-06
 0.99930000E+02 -0.10137E-05
 0.99980003E+02 -0.44696E-05
 0.10003000E+03 -0.92093E-05
 0.10008000E+03 -0.13073E-04
 0.10013000E+03 -0.14903E-04
 0.10018000E+03 -0.15828E-04
 0.10023000E+03 -0.15656E-04
 0.10028000E+03 -0.13791E-04
 0.10033000E+03 -0.11007E-04
 0.10038000E+03 -0.71625E-05
 0.10043000E+03 -0.10213E-05
 0.10048000E+03  0.66755E-05
 0.10053000E+03  0.13694E-04
 0.10058000E+03  0.18454E-04
 0.10063000E+03  0.20256E-04
 0.10068000E+03  0.18295E-04
 0.10073000E+03  0.13330E-04
 0.10078000E+03  0.70371E-05
 0.10083000E+03  0.20052E-05
 0.10088000E+03 -0.44148E-08
 0.10093000E+03 -0.20776E-05
 0.10098000E+03 -0.43266E-05
 0.10103000E+03 -0.46984E-05
 0.10108000E+03 -0.26909E-05
 0.10113000E+03  0.11917E-05
 0.10118000E+03  0.34190E-05
 0.10123000E+03  0.28448E-05
 0.10128000E+03  0.87823E-07
 0.10133000E+03 -0.48216E-05
 0.10138000E+03 -0.11324E-04
 0.10143000E+03 -0.17823E-04
 0.10148000E+03 -0.22161E-04
 0.10153000E+03 -0.23322E-04
 0.10158000E+03 -0.20822E-04
 0.10163000E+03 -0.14543E-04
 0.10168000E+03 -0.67619E-05
 0.10173000E+03 -0.16837E-05
 0.10178000E+03  0.61991E-06
 0.10183000E+03  0.24542E-05
 0.10188000E+03  0.61657E-05
 0.10193000E+03  0.12680E-04
 0.10198000E+03  0.19720E-04
 0.10203000E+03  0.25776E-04
 0.10208000E+03  0.28856E-04
 0.10213000E+03  0.30069E-04
 0.10218000E+03  0.31919E-04
 0.10223000E+03  0.33185E-04
 0.10228000E+03  0.29979E-04
 0.10233000E+03  0.19335E-04
 0.10238000E+03  0.38831E-05
 0.10243000E+03 -0.12483E-04
 0.10248000E+03 -0.26769E-04
 0.10253000E+03 -0.36602E-04
 0.10258000E+03 -0.39473E-04
 0.10263000E+03 -0.36804E-04
 0.10268000E+03 -0.32347E-04
 0.10273000E+03 -0.25376E-04
 0.10278000E+03 -0.16434E-04
 0.10283000E+03 -0.81198E-05
 0.10288000E+03 -0.19690E-05
 0.10293000E+03  0.19104E-05
 0.10298000E+03  0.43110E-05
 0.10303000E+03  0.65595E-05
 0.10308000E+03  0.93611E-05
 0.10313000E+03  0.11213E-04
 0.10318000E+03  0.12094E-04
 0.10323000E+03  0.13058E-04
 0.10328000E+03  0.13132E-04
 0.10333000E+03  0.13705E-04
 0.10338000E+03  0.14493E-04
 0.10343000E+03  0.13336E-04
 0.10348000E+03  0.11503E-04
 0.10353000E+03  0.89771E-05
 0.10358000E+03  0.72944E-05
 0.10363000E+03  0.65866E-05
 0.10368000E+03  0.52808E-05
 0.10373000E+03  0.36415E-05
 0.10378000E+03  0.19390E-06
 0.10383000E+03 -0.59453E-05
 0.10388000E+03 -0.13873E-04
 0.10393000E+03 -0.20598E-04
 0.10398000E+03 -0.25448E-04
 0.10403000E+03 -0.29008E-04
 0.10408000E+03 -0.28561E-04
 0.10413000E+03 -0.24812E-04
 0.10418000E+03 -0.18500E-04
 0.10423000E+03 -0.98779E-05
 0.10428000E+03 -0.56867E-06
 0.10433000E+03  0.10442E-04
 0.10438000E+03  0.20342E-04
 0.10443000E+03  0.25337E-04
 0.10448000E+03  0.24008E-04
 0.10453000E+03  0.18707E-04
 0.10458000E+03  0.11819E-04
 0.10463000E+03  0.33617E-05
 0.10468000E+03 -0.27429E-05
 0.10473000E+03 -0.68814E-05
 0.10478000E+03 -0.98275E-05
 0.10483000E+03 -0.10136E-04
 0.10488000E+03 -0.89490E-05
 0.10493000E+03 -0.44359E-05
 0.10498000E+03  0.27705E-05
 0.10503000E+03  0.87354E-05
 0.10508000E+03  0.10974E-04
 0.10513000E+03  0.75355E-05
 0.10518000E+03  0.60558E-06
 0.10523000E+03 -0.47152E-05
 0.10528000E+03 -0.65719E-05
 0.10533000E+03 -0.51092E-05
 0.10538000E+03 -0.37520E-05
 0.10543000E+03 -0.34423E-05
 0.10548000E+03  0.76312E-06
 0.10553000E+03  0.76150E-05
 0.10558000E+03  0.13987E-04
 0.10563000E+03  0.16471E-04
 0.10568000E+03  0.13846E-04
 0.10573000E+03  0.90973E-05
 0.10578000E+03  0.23069E-05
 0.10583000E+03 -0.38317E-05
 0.10588000E+03 -0.78521E-05
 0.10593000E+03 -0.94066E-05
 0.10598000E+03 -0.82943E-05
 0.10603000E+03 -0.56947E-05
 0.10608000E+03 -0.75089E-06
 0.10613000E+03  0.48739E-05
 0.10618000E+03  0.94252E-05
 0.10623000E+03  0.11396E-04
 0.10628000E+03  0.97443E-05
 0.10633000E+03  0.63149E-05
 0.10638000E+03  0.11278E-05
 0.10643000E+03 -0.36508E-05
 0.10648000E+03 -0.37445E-05
 0.10653000E+03 -0.16846E-05
 0.10658000E+03 -0.24495E-05
 0.10663000E+03 -0.72710E-05
 0.10668000E+03 -0.12909E-04
 0.10673000E+03 -0.15758E-04
 0.10678000E+03 -0.16141E-04
 0.10683000E+03 -0.15556E-04
 0.10688000E+03 -0.13494E-04
 0.10693000E+03 -0.80440E-05
 0.10698000E+03 -0.84579E-06
 0.10703000E+03  0.58338E-05
 0.10708000E+03  0.96490E-05
 0.10713000E+03  0.90338E-05
 0.10718000E+03  0.57103E-05
 0.10723000E+03  0.15830E-05
 0.10728000E+03  0.24276E-06
 0.10733000E+03  0.68393E-06
 0.10738000E+03  0.13886E-05
 0.10743000E+03  0.38068E-05
 0.10748000E+03  0.60773E-05
 0.10753000E+03  0.68610E-05
 0.10758000E+03  0.48254E-05
 0.10763000E+03  0.11965E-05
 0.10768000E+03 -0.99708E-06
 0.10773000E+03  0.47019E-06
 0.10778000E+03  0.46553E-05
 0.10783000E+03  0.75452E-05
 0.10788000E+03  0.89683E-05
 0.10793000E+03  0.83075E-05
 0.10798000E+03  0.75052E-05
 0.10803000E+03  0.75802E-05
 0.10808000E+03  0.59821E-05
 0.10813000E+03  0.34396E-05
 0.10818000E+03 -0.85187E-06
 0.10823000E+03 -0.48536E-05
 0.10828000E+03 -0.78089E-05
 0.10833000E+03 -0.10938E-04
 0.10838000E+03 -0.12452E-04
 0.10843000E+03 -0.13810E-04
 0.10848000E+03 -0.15105E-04
 0.10853000E+03 -0.15907E-04
 0.10858000E+03 -0.15433E-04
 0.10863000E+03 -0.11377E-04
 0.10868000E+03 -0.45234E-05
 0.10873000E+03  0.42679E-05
 0.10878000E+03  0.11736E-04
 0.10883000E+03  0.15335E-04
 0.10888000E+03  0.16627E-04
 0.10893000E+03  0.15080E-04
 0.10898000E+03  0.10503E-04
 0.10903000E+03  0.29646E-05
 0.10908000E+03 -0.69954E-05
 0.10913000E+03 -0.15408E-04
 0.10918000E+03 -0.18672E-04
 0.10923000E+03 -0.15697E-04
 0.10928000E+03 -0.81077E-05
 0.10933000E+03  0.14122E-05
 0.10938000E+03  0.94984E-05
 0.10943000E+03  0.13557E-04
 0.10948000E+03  0.13345E-04
 0.10953000E+03  0.10154E-04
 0.10958000E+03  0.67964E-05
 0.10963000E+03  0.45468E-05
 0.10968000E+03  0.36606E-05
 0.10973000E+03  0.33497E-05
 0.10978000E+03  0.30563E-05
 0.10983000E+03  0.22104E-05
 0.10988000E+03  0.58465E-06
 0.10993000E+03  0.57770E-06
 0.10998000E+03  0.85709E-06
 0.11003000E+03  0.24643E-06
 0.11008000E+03 -0.13078E-05
 0.11013000E+03 -0.45383E-05
 0.11018000E+03 -0.79228E-05
 0.11023000E+03 -0.10006E-04
 0.11028000E+03 -0.99188E-05
 0.11033000E+03 -0.92960E-05
 0.11038000E+03 -0.78013E-05
 0.11043000E+03 -0.43951E-05
 0.11048000E+03 -0.98295E-06
 0.11053000E+03  0.68678E-06
 0.11058000E+03 -0.46245E-06
 0.11063000E+03 -0.22641E-05
 0.11068000E+03 -0.23843E-05
 0.11073000E+03 -0.26002E-06
 0.11078000E+03  0.31211E-05
 0.11083000E+03  0.56221E-05
 0.11088000E+03  0.60882E-05
 0.11093000E+03  0.49828E-05
 0.11098000E+03  0.28419E-05
 0.11103000E+03 -0.28343E-06
 0.11108000E+03 -0.97711E-06
 0.11113000E+03  0.14290E-05
 0.11118000E+03  0.46495E-05
 0.11123000E+03  0.71595E-05
 0.11128000E+03  0.71457E-05
 0.11133000E+03  0.51806E-05
 0.11138000E+03  0.22328E-05
 0.11143000E+03  0.38523E-06
 0.11148000E+03 -0.11215E-05
 0.11153000E+03 -0.27760E-05
 0.11158000E+03 -0.34204E-05
 0.11163000E+03 -0.38561E-05
 0.11168000E+03 -0.28776E-05
 0.11173000E+03 -0.28926E-05
 0.11178000E+03 -0.36348E-05
 0.11183000E+03 -0.36918E-05
 0.11188000E+03 -0.34187E-05
 0.11193000E+03 -0.75943E-06
 0.11198000E+03  0.25398E-05
 0.11203000E+03  0.52205E-05
 0.11208000E+03  0.59669E-05
 0.11213000E+03  0.44376E-05
 0.11218000E+03  0.21894E-05
 0.11223000E+03 -0.54875E-06
 0.11228000E+03 -0.44480E-05
 0.11233000E+03 -0.91448E-05
 0.11238000E+03 -0.12898E-04
 0.11243000E+03 -0.14711E-04
 0.11248000E+03 -0.12351E-04
 0.11253000E+03 -0.63002E-05
 0.11258000E+03  0.10412E-05
 0.11263000E+03  0.74039E-05
 0.11268000E+03  0.11316E-04
 0.11273000E+03  0.13328E-04
 0.11278000E+03  0.13337E-04
 0.11283000E+03  0.11668E-04
 0.11288000E+03  0.91117E-05
 0.11293000E+03  0.68346E-05
 0.11298000E+03  0.40986E-05
 0.11303000E+03 -0.14714E-06
 0.11308000E+03 -0.38236E-05
 0.11313000E+03 -0.57351E-05
 0.11318000E+03 -0.59170E-05
 0.11323000E+03 -0.47856E-05
 0.11328000E+03 -0.24369E-05
 0.11333000E+03  0.85118E-06
 0.11338000E+03  0.43328E-05
 0.11343000E+03  0.81905E-05
 0.11348000E+03  0.10601E-04
 0.11353000E+03  0.10271E-04
 0.11358000E+03  0.63635E-05
 0.11363000E+03 -0.99184E-06
 0.11368000E+03 -0.80141E-05
 0.11373000E+03 -0.13014E-04
 0.11378000E+03 -0.15614E-04
 0.11383000E+03 -0.15200E-04
 0.11388000E+03 -0.13064E-04
 0.11393000E+03 -0.10945E-04
 0.11398000E+03 -0.99003E-05
 0.11403000E+03 -0.98548E-05
 0.11408000E+03 -0.95966E-05
 0.11413000E+03 -0.73960E-05
 0.11418000E+03 -0.20398E-05
 0.11423000E+03  0.60758E-05
 0.11428000E+03  0.16243E-04
 0.11433000E+03  0.27184E-04
 0.11438000E+03  0.34376E-04
 0.11443000E+03  0.34689E-04
 0.11448000E+03  0.29087E-04
 0.11453000E+03  0.18106E-04
 0.11458000E+03  0.51219E-05
 0.11463000E+03 -0.58841E-05
 0.11468000E+03 -0.15521E-04
 0.11473000E+03 -0.22728E-04
 0.11478000E+03 -0.26297E-04
 0.11483000E+03 -0.27493E-04
 0.11488000E+03 -0.26813E-04
 0.11493000E+03 -0.23536E-04
 0.11498000E+03 -0.17177E-04
 0.11503000E+03 -0.88508E-05
 0.11508000E+03 -0.86767E-06
 0.11513000E+03  0.48314E-05
 0.11518000E+03  0.93843E-05
 0.11523000E+03  0.13064E-04
 0.11528000E+03  0.14573E-04
 0.11533000E+03  0.14659E-04
 0.11538000E+03  0.13667E-04
 0.11543000E+03  0.11475E-04
 0.11548000E+03  0.79484E-05
 0.11553000E+03  0.31981E-05
 0.11558000E+03 -0.20492E-05
 0.11563000E+03 -0.56844E-05
 0.11568000E+03 -0.69481E-05
 0.11573000E+03 -0.68876E-05
 0.11578000E+03 -0.52252E-05
 0.11583000E+03 -0.25046E-05
 0.11588000E+03  0.45217E-06
 0.11593000E+03  0.32667E-05
 0.11598000E+03  0.63994E-05
 0.11603000E+03  0.97816E-05
 0.11608000E+03  0.11740E-04
 0.11613000E+03  0.11389E-04
 0.11618000E+03  0.98889E-05
 0.11623000E+03  0.80776E-05
 0.11628000E+03  0.53566E-05
 0.11633000E+03  0.13816E-05
 0.11638000E+03 -0.38520E-05
 0.11643000E+03 -0.92527E-05
 0.11648000E+03 -0.13938E-04
 0.11653000E+03 -0.15441E-04
 0.11658000E+03 -0.14644E-04
 0.11663000E+03 -0.12978E-04
 0.11668000E+03 -0.87459E-05
 0.11673000E+03 -0.45274E-05
 0.11678000E+03 -0.32935E-06
 0.11683000E+03  0.24432E-05
 0.11688000E+03  0.33635E-05
 0.11693000E+03  0.43344E-05
 0.11698000E+03  0.46814E-05
 0.11703000E+03  0.59407E-05
 0.11708000E+03  0.64518E-05
 0.11713000E+03  0.61161E-05
 0.11718000E+03  0.47824E-05
 0.11723000E+03  0.17837E-05
 0.11728000E+03 -0.45190E-06
 0.11733000E+03 -0.18271E-05
 0.11738000E+03 -0.25989E-05
 0.11743000E+03 -0.30650E-05
 0.11748000E+03 -0.26601E-05
 0.11753000E+03 -0.11479E-05
 0.11758000E+03  0.66865E-06
 0.11763000E+03  0.20000E-05
 0.11768000E+03  0.17880E-05
 0.11773000E+03  0.95063E-08
 0.11778000E+03 -0.21612E-05
 0.11783000E+03 -0.23795E-05
 0.11788000E+03 -0.23584E-06
 0.11793000E+03  0.24587E-05
 0.11798000E+03  0.45607E-05
 0.11803000E+03  0.59292E-05
 0.11808000E+03  0.58917E-05
 0.11813000E+03  0.37343E-05
 0.11818000E+03  0.33417E-06
 0.11823000E+03 -0.36265E-05
 0.11828000E+03 -0.73543E-05
 0.11833000E+03 -0.10167E-04
 0.11838000E+03 -0.12240E-04
 0.11843000E+03 -0.13091E-04
 0.11848000E+03 -0.12592E-04
 0.11853000E+03 -0.10562E-04
 0.11858000E+03 -0.67061E-05
 0.11863000E+03 -0.24496E-05
 0.11868000E+03  0.16377E-05
 0.11873000E+03  0.63375E-05
 0.11878000E+03  0.10324E-04
 0.11883000E+03  0.12482E-04
 0.11888000E+03  0.13631E-04
 0.11893000E+03  0.13689E-04
 0.11898000E+03  0.12531E-04
 0.11903000E+03  0.10136E-04
 0.11908000E+03  0.63565E-05
 0.11913000E+03  0.27898E-05
 0.11918000E+03  0.35846E-06
 0.11923000E+03 -0.14306E-05
 0.11928000E+03 -0.27878E-05
 0.11933000E+03 -0.40358E-05
 0.11938000E+03 -0.60054E-05
 0.11943000E+03 -0.83367E-05
 0.11948000E+03 -0.99301E-05
 0.11953000E+03 -0.10892E-04
 0.11958000E+03 -0.10861E-04
 0.11963000E+03 -0.10527E-04
 0.11968000E+03 -0.10510E-04
 0.11973000E+03 -0.10402E-04
 0.11978000E+03 -0.90562E-05
 0.11983000E+03 -0.56214E-05
 0.11988000E+03 -0.19709E-05
 0.11993000E+03  0.18198E-05
 0.11998000E+03  0.56805E-05
 0.12003000E+03  0.93673E-05
 0.12008000E+03  0.12622E-04
 0.12013000E+03  0.13261E-04
 0.12018000E+03  0.11349E-04
 0.12023000E+03  0.71018E-05
 0.12028000E+03  0.22231E-05
 0.12033000E+03 -0.11258E-05
 0.12038000E+03 -0.29229E-05
 0.12043000E+03 -0.28038E-05
 0.12048000E+03 -0.11935E-05
 0.12053000E+03  0.20730E-05
 0.12058000E+03  0.54574E-05
 0.12063000E+03  0.75039E-05
 0.12068000E+03  0.91411E-05
 0.12073000E+03  0.10166E-04
 0.12078000E+03  0.10693E-04
 0.12083000E+03  0.10022E-04
 0.12088000E+03  0.83560E-05
 0.12093000E+03  0.62925E-05
 0.12098000E+03  0.35369E-05
 0.12103000E+03  0.11783E-05
 0.12108000E+03 -0.14723E-05
 0.12113000E+03 -0.51068E-05
 0.12118000E+03 -0.97622E-05
 0.12123000E+03 -0.13790E-04
 0.12128000E+03 -0.13861E-04
 0.12133000E+03 -0.10832E-04
 0.12138000E+03 -0.70716E-05
 0.12143000E+03 -0.33696E-05
 0.12148000E+03  0.17068E-06
 0.12153000E+03  0.27470E-05
 0.12158000E+03  0.33701E-05
 0.12163000E+03  0.26941E-05
 0.12168000E+03  0.80866E-06
 0.12173000E+03 -0.17368E-05
 0.12178000E+03 -0.38287E-05
 0.12183000E+03 -0.54504E-05
 0.12188000E+03 -0.55274E-05
 0.12193000E+03 -0.39646E-05
 0.12198000E+03 -0.18663E-05
 0.12203000E+03  0.11669E-05
 0.12208000E+03  0.46041E-05
 0.12213000E+03  0.74819E-05
 0.12218000E+03  0.10040E-04
 0.12223000E+03  0.11676E-04
 0.12228000E+03  0.11773E-04
 0.12233000E+03  0.10014E-04
 0.12238000E+03  0.54807E-05
 0.12243000E+03 -0.43421E-06
 0.12248000E+03 -0.57693E-05
 0.12253000E+03 -0.10499E-04
 0.12258000E+03 -0.13443E-04
 0.12263000E+03 -0.14872E-04
 0.12268000E+03 -0.15183E-04
 0.12273000E+03 -0.13292E-04
 0.12278000E+03 -0.11036E-04
 0.12283000E+03 -0.81771E-05
 0.12288000E+03 -0.42933E-05
 0.12293000E+03 -0.14349E-05
 0.12298000E+03  0.74683E-06
 0.12303000E+03  0.19277E-05
 0.12308000E+03  0.28374E-05
 0.12313000E+03  0.50069E-05
 0.12318000E+03  0.77301E-05
 0.12323000E+03  0.10568E-04
 0.12328000E+03  0.11361E-04
 0.12333000E+03  0.96815E-05
 0.12338000E+03  0.69057E-05
 0.12343000E+03  0.39337E-05
 0.12348000E+03  0.27676E-05
 0.12353000E+03  0.23095E-05
 0.12358000E+03  0.19081E-05
 0.12363000E+03  0.21591E-05
 0.12368000E+03  0.24853E-05
 0.12373000E+03  0.29591E-05
 0.12378000E+03  0.22462E-05
 0.12383000E+03 -0.75212E-06
 0.12388000E+03 -0.48326E-05
 0.12393000E+03 -0.87759E-05
 0.12398000E+03 -0.11906E-04
 0.12403000E+03 -0.12535E-04
 0.12408000E+03 -0.10172E-04
 0.12413000E+03 -0.68989E-05
 0.12418000E+03 -0.37763E-05
 0.12423000E+03 -0.87812E-06
 0.12428000E+03  0.13770E-05
 0.12433000E+03  0.30040E-05
 0.12438000E+03  0.35973E-05
 0.12443000E+03  0.31771E-05
 0.12448000E+03  0.30590E-05
 0.12453000E+03  0.43410E-05
 0.12458000E+03  0.66962E-05
 0.12463000E+03  0.82159E-05
 0.12468000E+03  0.78306E-05
 0.12473000E+03  0.60910E-05
 0.12478000E+03  0.37730E-05
 0.12483000E+03  0.10143E-05
 0.12488000E+03 -0.17444E-05
 0.12493000E+03 -0.31886E-05
 0.12498000E+03 -0.30179E-05
 0.12503000E+03 -0.16120E-05
 0.12508000E+03 -0.25887E-06
 0.12513000E+03 -0.17305E-08
 0.12518000E+03 -0.56403E-06
 0.12523000E+03 -0.15510E-05
 0.12528000E+03 -0.27278E-05
 0.12533000E+03 -0.33610E-05
 0.12538000E+03 -0.28353E-05
 0.12543000E+03 -0.12268E-05
 0.12548000E+03  0.19968E-05
 0.12553000E+03  0.55347E-05
 0.12558000E+03  0.82541E-05
 0.12563000E+03  0.10349E-04
 0.12568000E+03  0.12216E-04
 0.12573000E+03  0.12657E-04
 0.12578000E+03  0.86811E-05
 0.12583000E+03  0.37746E-05
 0.12588000E+03  0.15550E-06
 0.12593000E+03 -0.38688E-05
 0.12598000E+03 -0.77381E-05
 0.12603000E+03 -0.10384E-04
 0.12608000E+03 -0.10320E-04
 0.12613000E+03 -0.10925E-04
 0.12618000E+03 -0.13229E-04
 0.12623000E+03 -0.15824E-04
 0.12628000E+03 -0.17974E-04
 0.12633000E+03 -0.16257E-04
 0.12638000E+03 -0.11232E-04
 0.12643000E+03 -0.42373E-05
 0.12648000E+03  0.14971E-05
 0.12653000E+03  0.39174E-05
 0.12658000E+03  0.59719E-05
 0.12663000E+03  0.66598E-05
 0.12668000E+03  0.55907E-05
 0.12673000E+03  0.51180E-05
 0.12678000E+03  0.50006E-05
 0.12683000E+03  0.41945E-05
 0.12688000E+03  0.26987E-05
 0.12693000E+03  0.59870E-06
 0.12698000E+03 -0.13485E-05
 0.12703000E+03 -0.16941E-05
 0.12708000E+03 -0.18030E-05
 0.12713000E+03 -0.95499E-06
 0.12718000E+03  0.63523E-07
 0.12723000E+03 -0.22694E-05
 0.12728000E+03 -0.25810E-05
 0.12733000E+03  0.21905E-05
 0.12738000E+03  0.75098E-05
 0.12743000E+03  0.95144E-05
 0.12748000E+03  0.95407E-05
 0.12753000E+03  0.12060E-04
 0.12758000E+03  0.15141E-04
 0.12763000E+03  0.13634E-04
 0.12768000E+03  0.98802E-05
 0.12773000E+03  0.86455E-05
 0.12778000E+03  0.48664E-05
 0.12783000E+03 -0.76372E-06
 0.12788000E+03 -0.31069E-05
 0.12793000E+03 -0.49931E-05
 0.12798000E+03 -0.55900E-05
 0.12803000E+03 -0.65269E-05
 0.12808000E+03 -0.83232E-05
 0.12813000E+03 -0.88654E-05
 0.12818001E+03 -0.11280E-04
 0.12823000E+03 -0.14145E-04
 0.12828000E+03 -0.15070E-04
 0.12833000E+03 -0.13590E-04
 0.12838000E+03 -0.11472E-04
 0.12843001E+03 -0.90083E-05
 0.12848000E+03 -0.33672E-05
 0.12853000E+03  0.31512E-05
 0.12858000E+03  0.83265E-05
 0.12863000E+03  0.10672E-04
 0.12868001E+03  0.11645E-04
 0.12873000E+03  0.13680E-04
 0.12878000E+03  0.14845E-04
 0.12883000E+03  0.15659E-04
 0.12888000E+03  0.15090E-04
 0.12893001E+03  0.12462E-04
 0.12898000E+03  0.11011E-04
 0.12903000E+03  0.82141E-05
 0.12908000E+03  0.28798E-05
 0.12913000E+03 -0.30048E-05
 0.12918001E+03 -0.86420E-05
 0.12923000E+03 -0.12894E-04
 0.12928000E+03 -0.17758E-04
 0.12933000E+03 -0.21776E-04
 0.12938000E+03 -0.21548E-04
 0.12943001E+03 -0.20344E-04
 0.12948000E+03 -0.19141E-04
 0.12953000E+03 -0.13781E-04
 0.12958000E+03 -0.77697E-05
 0.12963000E+03 -0.19443E-05
 0.12968001E+03  0.54006E-05
 0.12973000E+03  0.12665E-04
 0.12978000E+03  0.18182E-04
 0.12983000E+03  0.16858E-04
 0.12988000E+03  0.14409E-04
 0.12993001E+03  0.14892E-04
 0.12998000E+03  0.12456E-04
 0.13003000E+03  0.70695E-05
 0.13008000E+03  0.34013E-05
 0.13013000E+03  0.16186E-05
 0.13018001E+03 -0.15905E-05
 0.13023000E+03 -0.51555E-05
 0.13028000E+03 -0.77562E-05
 0.13033000E+03 -0.74722E-05
 0.13038000E+03 -0.47715E-05
 0.13043001E+03 -0.31360E-05
 0.13048000E+03 -0.43888E-05
 0.13053000E+03 -0.56848E-05
 0.13058000E+03 -0.35936E-05
 0.13063000E+03 -0.30245E-05
 0.13068001E+03 -0.43865E-05
 0.13073000E+03 -0.36185E-05
 0.13078000E+03 -0.16169E-05
 0.13083000E+03  0.15125E-05
 0.13088000E+03  0.43712E-05
 0.13093001E+03  0.48640E-05
 0.13098000E+03  0.36748E-05
 0.13103000E+03  0.14988E-05
 0.13108000E+03  0.25933E-06
 0.13113000E+03  0.14149E-06
 0.13118001E+03 -0.39762E-07
 0.13123000E+03 -0.34340E-06
 0.13128000E+03 -0.11874E-05
 0.13133000E+03 -0.15684E-05
 0.13138000E+03 -0.20787E-05
 0.13143001E+03 -0.19792E-05
 0.13148000E+03 -0.10829E-06
 0.13153000E+03  0.17628E-05
 0.13158000E+03  0.46320E-05
 0.13163000E+03  0.66468E-05
 0.13168001E+03  0.65774E-05
 0.13173000E+03  0.73900E-05
 0.13178000E+03  0.79513E-05
 0.13183000E+03  0.85798E-05
 0.13188000E+03  0.89477E-05
 0.13193001E+03  0.80396E-05
 0.13198000E+03  0.57505E-05
 0.13203000E+03  0.13817E-05
 0.13208000E+03 -0.13840E-05
 0.13213000E+03 -0.33577E-05
 0.13218001E+03 -0.68988E-05
 0.13223000E+03 -0.10198E-04
 0.13228000E+03 -0.12101E-04
 0.13233000E+03 -0.93432E-05
 0.13238000E+03 -0.33438E-05
 0.13243001E+03 -0.34989E-06
 0.13248000E+03  0.32158E-05
 0.13253000E+03  0.68518E-05
 0.13258000E+03  0.49978E-05
 0.13263000E+03  0.23576E-05
 0.13268001E+03  0.11163E-05
 0.13273000E+03  0.99525E-06
 0.13278000E+03  0.81282E-07
 0.13283000E+03 -0.13633E-05
 0.13288000E+03 -0.21043E-05
 0.13293001E+03 -0.30073E-05
 0.13298000E+03 -0.29613E-05
 0.13303000E+03 -0.55325E-05
 0.13308000E+03 -0.93608E-05
 0.13313000E+03 -0.11766E-04
 0.13318001E+03 -0.11487E-04
 0.13323000E+03 -0.10499E-04
 0.13328000E+03 -0.10258E-04
 0.13333000E+03 -0.59120E-05
 0.13338000E+03 -0.19731E-05
 0.13343001E+03  0.12974E-05
 0.13348000E+03  0.50061E-05
 0.13353000E+03  0.71082E-05
 0.13358000E+03  0.89624E-05
 0.13363000E+03  0.63062E-05
 0.13368001E+03  0.20075E-05
 0.13373000E+03 -0.11093E-05
 0.13378000E+03 -0.31863E-05
 0.13383000E+03 -0.16390E-05
 0.13388000E+03  0.69851E-06
 0.13393001E+03  0.43026E-05
 0.13398000E+03  0.71680E-05
 0.13403000E+03  0.81566E-05
 0.13408000E+03  0.10547E-04
 0.13413000E+03  0.10438E-04
 0.13418001E+03  0.75254E-05
 0.13423000E+03  0.37022E-05
 0.13428000E+03 -0.11815E-05
 0.13433000E+03 -0.47456E-05
 0.13438000E+03 -0.61222E-05
 0.13443001E+03 -0.59685E-05
 0.13448000E+03 -0.62703E-05
 0.13453000E+03 -0.74764E-05
 0.13458000E+03 -0.80218E-05
 0.13463000E+03 -0.88672E-05
 0.13468001E+03 -0.78053E-05
 0.13473000E+03 -0.39973E-05
 0.13478000E+03 -0.35743E-05
 0.13483000E+03 -0.37771E-05
 0.13488000E+03 -0.27012E-07
 0.13493001E+03  0.44839E-05
 0.13498000E+03  0.82587E-05
 0.13503000E+03  0.91603E-05
 0.13508000E+03  0.97972E-05
 0.13513000E+03  0.10842E-04
 0.13518001E+03  0.89271E-05
 0.13523000E+03  0.62830E-05
 0.13528000E+03  0.31048E-05
 0.13533000E+03  0.19785E-05
 0.13538000E+03  0.29399E-05
 0.13543001E+03  0.28946E-05
 0.13548000E+03  0.32286E-05
 0.13553000E+03  0.55040E-05
 0.13558000E+03  0.85783E-05
 0.13563000E+03  0.77954E-05
 0.13568001E+03  0.46485E-05
 0.13573000E+03  0.24466E-05
 0.13578000E+03  0.33139E-06
 0.13583000E+03 -0.19678E-05
 0.13588000E+03 -0.48918E-05
 0.13593001E+03 -0.78229E-05
 0.13598000E+03 -0.99469E-05
 0.13603000E+03 -0.10527E-04
 0.13608000E+03 -0.10476E-04
 0.13613000E+03 -0.10019E-04
 0.13618001E+03 -0.80751E-05
 0.13623000E+03 -0.72761E-05
 0.13628000E+03 -0.67501E-05
 0.13633000E+03 -0.44026E-05
 0.13638000E+03 -0.31709E-05
 0.13643001E+03 -0.32514E-05
 0.13648000E+03 -0.29225E-05
 0.13653000E+03 -0.21159E-05
 0.13658000E+03 -0.17043E-05
 0.13663000E+03 -0.25946E-05
 0.13668001E+03 -0.26572E-05
 0.13673000E+03 -0.12157E-05
 0.13678000E+03 -0.40250E-06
 0.13683000E+03 -0.62051E-06
 0.13688000E+03 -0.84099E-06
 0.13693001E+03  0.62461E-06
 0.13698000E+03  0.32134E-05
 0.13703000E+03  0.51408E-05
 0.13708000E+03  0.68907E-05
 0.13713000E+03  0.94783E-05
 0.13718001E+03  0.11108E-04
 0.13723000E+03  0.11599E-04
 0.13728000E+03  0.12003E-04
 0.13733000E+03  0.98016E-05
 0.13738000E+03  0.73853E-05
 0.13743001E+03  0.58630E-05
 0.13748000E+03  0.26976E-05
 0.13753000E+03 -0.15543E-05
 0.13758000E+03 -0.43633E-05
 0.13763000E+03 -0.30087E-05
 0.13768001E+03 -0.17905E-05
 0.13773000E+03 -0.28094E-05
 0.13778000E+03 -0.30383E-05
 0.13783000E+03 -0.12921E-05
 0.13788000E+03  0.88894E-06
 0.13793001E+03  0.17039E-05
 0.13798000E+03  0.12696E-05
 0.13803000E+03 -0.48489E-06
 0.13808000E+03 -0.19583E-05
 0.13813000E+03 -0.32967E-05
 0.13818001E+03 -0.31775E-05
 0.13823000E+03 -0.12424E-05
 0.13828000E+03 -0.15977E-05
 0.13833000E+03 -0.21966E-05
 0.13838000E+03 -0.72667E-06
 0.13843001E+03 -0.51699E-06
 0.13848000E+03 -0.16377E-05
 0.13853000E+03 -0.31882E-05
 0.13858000E+03 -0.45083E-05
 0.13863000E+03 -0.55927E-05
 0.13868001E+03 -0.75857E-05
 0.13873000E+03 -0.77226E-05
 0.13878000E+03 -0.66249E-05
 0.13883000E+03 -0.56291E-05
 0.13888000E+03 -0.46249E-05
 0.13893001E+03 -0.35847E-05
 0.13898000E+03 -0.12039E-05
 0.13903000E+03  0.74039E-06
 0.13908000E+03  0.24114E-05
 0.13913000E+03  0.34994E-05
 0.13918001E+03  0.24355E-05
 0.13923000E+03  0.18027E-05
 0.13928000E+03  0.36266E-05
 0.13933000E+03  0.56558E-05
 0.13938000E+03  0.57838E-05
 0.13943001E+03  0.50484E-05
 0.13948000E+03  0.40470E-05
 0.13953000E+03  0.36809E-05
 0.13958000E+03  0.34102E-05
 0.13963000E+03  0.27430E-05
 0.13968001E+03  0.23653E-05
 0.13973000E+03  0.16637E-05
 0.13978000E+03  0.24794E-05
 0.13983000E+03  0.24855E-05
 0.13988000E+03 -0.11094E-05
 0.13993001E+03 -0.43844E-05
 0.13998000E+03 -0.42226E-05
 0.14003000E+03 -0.26318E-05
 0.14008000E+03 -0.30051E-05
 0.14013000E+03 -0.30334E-05
 0.14018001E+03 -0.16194E-05
 0.14023000E+03 -0.83744E-06
 0.14028000E+03 -0.39878E-06
 0.14033000E+03  0.33676E-06
 0.14038000E+03  0.17300E-05
 0.14043001E+03  0.26673E-05
 0.14048000E+03  0.25734E-05
 0.14053000E+03  0.28500E-05
 0.14058000E+03  0.38820E-05
 0.14063000E+03  0.57320E-05
 0.14068001E+03  0.61680E-05
 0.14073000E+03  0.42650E-05
 0.14078000E+03  0.39434E-05
 0.14083000E+03  0.29504E-05
 0.14088000E+03  0.63375E-06
 0.14093001E+03 -0.15531E-05
 0.14098000E+03 -0.35650E-05
 0.14103000E+03 -0.33172E-05
 0.14108000E+03 -0.51645E-05
 0.14113000E+03 -0.72073E-05
 0.14118001E+03 -0.77120E-05
 0.14123000E+03 -0.78372E-05
 0.14128000E+03 -0.57846E-05
 0.14133000E+03 -0.52585E-05
 0.14138000E+03 -0.49514E-05
 0.14143001E+03 -0.51759E-05
 0.14148000E+03 -0.52746E-05
 0.14153000E+03 -0.34714E-05
 0.14158000E+03 -0.24725E-05
 0.14163000E+03  0.12304E-05
 0.14168001E+03  0.56546E-05
 0.14173000E+03  0.81199E-05
 0.14178000E+03  0.90029E-05
 0.14183000E+03  0.82985E-05
 0.14188000E+03  0.81214E-05
 0.14193001E+03  0.72441E-05
 0.14198000E+03  0.72335E-05
 0.14203000E+03  0.57686E-05
 0.14208000E+03  0.25970E-05
 0.14213000E+03  0.15182E-05
 0.14218001E+03  0.37803E-07
 0.14223000E+03 -0.18668E-05
 0.14228000E+03 -0.25823E-05
 0.14233000E+03 -0.13758E-05
 0.14238000E+03 -0.18408E-05
 0.14243001E+03 -0.46590E-05
 0.14248000E+03 -0.57711E-05
 0.14253000E+03 -0.51628E-05
 0.14258000E+03 -0.24541E-05
 0.14263000E+03 -0.31435E-06
 0.14268001E+03 -0.12282E-05
 0.14273000E+03 -0.19101E-05
 0.14278000E+03 -0.21016E-06
 0.14283000E+03  0.30854E-05
 0.14288000E+03  0.48127E-05
 0.14293001E+03  0.32591E-05
 0.14298000E+03  0.55298E-06
 0.14303000E+03 -0.15219E-05
 0.14308000E+03 -0.13552E-05
 0.14313000E+03 -0.34445E-06
 0.14318001E+03 -0.18510E-05
 0.14323000E+03 -0.45804E-05
 0.14328000E+03 -0.52002E-05
 0.14333000E+03 -0.38028E-05
 0.14338000E+03 -0.26552E-05
 0.14343001E+03 -0.25765E-05
 0.14348000E+03 -0.19765E-05
 0.14353000E+03 -0.11070E-05
 0.14358000E+03 -0.12172E-05
 0.14363000E+03  0.40984E-06
 0.14368001E+03  0.32766E-05
 0.14373000E+03  0.42997E-05
 0.14378000E+03  0.49069E-05
 0.14383000E+03  0.50569E-05
 0.14388000E+03  0.23114E-05
 0.14393001E+03 -0.46002E-06
 0.14398000E+03 -0.20059E-05
 0.14403000E+03 -0.31681E-05
 0.14408000E+03 -0.19472E-05
 0.14413000E+03 -0.12469E-05
 0.14418001E+03 -0.30822E-05
 0.14423000E+03 -0.36758E-05
 0.14428000E+03 -0.11431E-05
 0.14433000E+03  0.43877E-05
 0.14438000E+03  0.80985E-05
 0.14443001E+03  0.66395E-05
 0.14448000E+03  0.49639E-05
 0.14453000E+03  0.46268E-05
 0.14458000E+03  0.65847E-05
 0.14463000E+03  0.66187E-05
 0.14468001E+03  0.10913E-05
 0.14473000E+03 -0.25556E-05
 0.14478000E+03 -0.48871E-05
 0.14483000E+03 -0.80441E-05
 0.14488000E+03 -0.91457E-05
 0.14493001E+03 -0.90208E-05
 0.14498000E+03 -0.10192E-04
 0.14503000E+03 -0.11440E-04
 0.14508000E+03 -0.88494E-05
 0.14513000E+03 -0.52210E-05
 0.14518001E+03 -0.20153E-05
 0.14523000E+03  0.17355E-06
 0.14528000E+03  0.44254E-07
 0.14533000E+03  0.20137E-05
 0.14538000E+03  0.50329E-05
 0.14543001E+03  0.66759E-05
 0.14548000E+03  0.68238E-05
 0.14553000E+03  0.67814E-05
 0.14558000E+03  0.79889E-05
 0.14563000E+03  0.85365E-05
 0.14568001E+03  0.68332E-05
 0.14573000E+03  0.25594E-05
 0.14578000E+03  0.88205E-06
 0.14583000E+03  0.31044E-05
 0.14588000E+03  0.51441E-05
 0.14593001E+03  0.58079E-05
 0.14598000E+03  0.49995E-05
 0.14603000E+03  0.63144E-05
 0.14608000E+03  0.84839E-05
 0.14613000E+03  0.79003E-05
 0.14618001E+03  0.63438E-05
 0.14623000E+03  0.33203E-05
 0.14628000E+03  0.98955E-06
 0.14633000E+03 -0.26608E-06
 0.14638000E+03 -0.19389E-05
 0.14643001E+03 -0.17304E-05
 0.14648000E+03 -0.18181E-05
 0.14653000E+03 -0.38208E-05
 0.14658000E+03 -0.69080E-05
 0.14663000E+03 -0.95434E-05
 0.14668001E+03 -0.98669E-05
 0.14673000E+03 -0.82930E-05
 0.14678000E+03 -0.63572E-05
 0.14683000E+03 -0.54747E-05
 0.14688000E+03 -0.46392E-05
 0.14693001E+03 -0.32982E-05
 0.14698000E+03 -0.25635E-05
 0.14703000E+03 -0.29909E-05
 0.14708000E+03 -0.42423E-05
 0.14713000E+03 -0.59257E-05
 0.14718001E+03 -0.63625E-05
 0.14723000E+03 -0.44099E-05
 0.14728000E+03 -0.12539E-05
 0.14733000E+03  0.11057E-05
 0.14738000E+03  0.86340E-06
 0.14743001E+03 -0.46152E-06
 0.14748000E+03 -0.13176E-05
 0.14753000E+03  0.16906E-06
 0.14758000E+03  0.18172E-05
 0.14763000E+03  0.12401E-05
 0.14768001E+03  0.12112E-05
 0.14773000E+03  0.15761E-05
 0.14778000E+03  0.26798E-05
 0.14783000E+03  0.26913E-05
 0.14788000E+03  0.29162E-05
 0.14793001E+03  0.46255E-05
 0.14798000E+03  0.62127E-05
 0.14803000E+03  0.90892E-05
 0.14808000E+03  0.86433E-05
 0.14813000E+03  0.47862E-05
 0.14818001E+03  0.21094E-05
 0.14823000E+03  0.56056E-06
 0.14828000E+03 -0.59916E-06
 0.14833000E+03 -0.31279E-05
 0.14838000E+03 -0.70641E-05
 0.14843001E+03 -0.92133E-05
 0.14848000E+03 -0.94846E-05
 0.14853000E+03 -0.92795E-05
 0.14858000E+03 -0.78554E-05
 0.14863000E+03 -0.56760E-05
 0.14868001E+03 -0.30885E-05
 0.14873000E+03 -0.17511E-05
 0.14878000E+03 -0.17295E-05
 0.14883000E+03 -0.20001E-05
 0.14888000E+03 -0.19441E-05
 0.14893001E+03 -0.12781E-06
 0.14898000E+03  0.10768E-05
 0.14903000E+03  0.21528E-05
 0.14908000E+03  0.39750E-05
 0.14913000E+03  0.49629E-05
 0.14918001E+03  0.71140E-05
 0.14923000E+03  0.97413E-05
 0.14928000E+03  0.78470E-05
 0.14933000E+03  0.36859E-05
 0.14938000E+03  0.32306E-05
 0.14943001E+03  0.43252E-05
 0.14948000E+03  0.38442E-05
 0.14953000E+03  0.34485E-05
 0.14958000E+03  0.27402E-05
 0.14963000E+03  0.92267E-06
 0.14968001E+03  0.10990E-05
 0.14973000E+03  0.38607E-06
 0.14978000E+03 -0.30549E-06
 0.14983000E+03  0.99959E-06
 0.14988000E+03  0.13847E-06
 0.14993001E+03  0.11165E-05
 0.14998000E+03  0.24276E-05
