-0.20000458E-01  0.16287E-07
 0.29999543E-01  0.93144E-07
 0.79999544E-01 -0.26366E-07
 0.12999955E+00 -0.40739E-07
 0.17999955E+00  0.93093E-08
 0.22999954E+00 -0.11566E-06
 0.27999955E+00  0.27042E-07
 0.32999954E+00  0.58111E-07
 0.37999955E+00 -0.18266E-06
 0.42999956E+00  0.64761E-07
 0.47999954E+00  0.32569E-07
 0.52999955E+00 -0.77286E-07
 0.57999957E+00  0.11637E-06
 0.62999958E+00 -0.72057E-07
 0.67999953E+00 -0.10656E-06
 0.72999954E+00  0.60340E-07
 0.77999955E+00 -0.39888E-08
 0.82999957E+00  0.52074E-07
 0.87999958E+00 -0.15026E-07
 0.92999953E+00 -0.49152E-07
 0.97999954E+00  0.17458E-06
 0.10299996E+01 -0.11248E-06
 0.10799996E+01 -0.76681E-07
 0.11299995E+01  0.19972E-06
 0.11799996E+01 -0.76173E-07
 0.12299995E+01 -0.81101E-07
 0.12799996E+01  0.17079E-06
 0.13299996E+01  0.30326E-07
 0.13799995E+01 -0.55327E-07
 0.14299996E+01  0.38642E-07
 0.14799995E+01  0.51885E-07
 0.15299996E+01 -0.33219E-08
 0.15799996E+01 -0.12589E-06
 0.16299995E+01  0.76636E-07
 0.16799996E+01  0.12404E-07
 0.17299995E+01 -0.54974E-07
 0.17799996E+01  0.16975E-06
 0.18299996E+01 -0.51745E-07
 0.18799995E+01 -0.97225E-07
 0.19299996E+01  0.16700E-06
 0.19799995E+01  0.13943E-07
 0.20299995E+01 -0.10845E-06
 0.20799997E+01  0.62394E-07
 0.21299996E+01 -0.66597E-07
 0.21799996E+01 -0.43437E-07
 0.22299995E+01  0.99382E-07
 0.22799995E+01 -0.61169E-07
 0.23299997E+01 -0.10198E-06
 0.23799996E+01 -0.81874E-07
 0.24299996E+01  0.59787E-07
 0.24799995E+01  0.11579E-07
 0.25299995E+01 -0.13267E-06
 0.25799997E+01  0.57318E-07
 0.26299996E+01 -0.92350E-08
 0.26799996E+01 -0.49512E-07
 0.27299995E+01  0.77464E-07
 0.27799995E+01  0.93353E-07
 0.28299997E+01 -0.76515E-07
 0.28799996E+01 -0.88357E-08
 0.29299996E+01  0.16600E-06
 0.29799995E+01 -0.15984E-06
 0.30299995E+01 -0.20845E-07
 0.30799997E+01  0.92453E-07
 0.31299996E+01 -0.10230E-06
 0.31799996E+01  0.50580E-07
 0.32299995E+01 -0.94397E-07
 0.32799995E+01 -0.24096E-07
 0.33299997E+01  0.12014E-06
 0.33799996E+01 -0.14151E-06
 0.34299996E+01  0.13808E-08
 0.34799995E+01  0.10519E-06
 0.35299995E+01 -0.98536E-07
 0.35799997E+01  0.23299E-07
 0.36299996E+01  0.65846E-07
 0.36799996E+01 -0.16025E-07
 0.37299995E+01  0.12550E-06
 0.37799995E+01  0.10944E-07
 0.38299997E+01 -0.11274E-06
 0.38799996E+01  0.94459E-07
 0.39299996E+01  0.57399E-07
 0.39799995E+01 -0.11898E-06
 0.40299997E+01  0.56803E-07
 0.40799994E+01  0.10711E-06
 0.41299996E+01 -0.53446E-07
 0.41799998E+01 -0.69280E-07
 0.42299995E+01 -0.26619E-07
 0.42799997E+01  0.11831E-07
 0.43299994E+01  0.33667E-07
 0.43799996E+01 -0.43290E-07
 0.44299998E+01 -0.15066E-07
 0.44799995E+01  0.37342E-07
 0.45299997E+01 -0.35707E-07
 0.45799994E+01  0.53323E-07
 0.46299996E+01 -0.10845E-07
 0.46799998E+01 -0.11786E-07
 0.47299995E+01  0.60419E-08
 0.47799997E+01 -0.48370E-07
 0.48299994E+01  0.29067E-07
 0.48799996E+01  0.56240E-08
 0.49299998E+01  0.85055E-07
 0.49799995E+01 -0.52969E-07
 0.50299997E+01 -0.19005E-07
 0.50799994E+01  0.23681E-06
 0.51299996E+01 -0.15539E-06
 0.51799998E+01 -0.13779E-06
 0.52299995E+01  0.16828E-06
 0.52799997E+01 -0.41934E-07
 0.53299994E+01  0.11928E-06
 0.53799996E+01  0.21379E-07
 0.54299998E+01 -0.67896E-07
 0.54799995E+01  0.15173E-06
 0.55299997E+01 -0.47646E-07
 0.55799994E+01  0.25223E-07
 0.56299996E+01 -0.53088E-07
 0.56799998E+01 -0.11820E-06
 0.57299995E+01  0.10952E-06
 0.57799997E+01  0.16764E-07
 0.58299994E+01 -0.14295E-06
 0.58799996E+01  0.27763E-08
 0.59299998E+01  0.81859E-07
 0.59799995E+01 -0.71119E-07
 0.60299997E+01 -0.42810E-08
 0.60799994E+01 -0.11448E-06
 0.61299996E+01 -0.60850E-07
 0.61799998E+01  0.15620E-06
 0.62299995E+01 -0.16052E-06
 0.62799997E+01  0.54323E-07
 0.63299994E+01  0.14424E-06
 0.63799996E+01 -0.26241E-06
 0.64299998E+01  0.18123E-06
 0.64799995E+01  0.71531E-07
 0.65299997E+01 -0.33158E-06
 0.65799994E+01  0.11760E-06
 0.66299996E+01  0.75259E-07
 0.66799998E+01 -0.22729E-06
 0.67299995E+01  0.97328E-07
 0.67799997E+01  0.61658E-07
 0.68299994E+01 -0.53388E-07
 0.68799996E+01  0.43846E-07
 0.69299998E+01 -0.54887E-07
 0.69799995E+01  0.25663E-07
 0.70299997E+01 -0.64825E-07
 0.70799994E+01 -0.20653E-06
 0.71299996E+01  0.94265E-07
 0.71799998E+01  0.14223E-06
 0.72299995E+01 -0.21415E-06
 0.72799997E+01  0.19312E-06
 0.73299994E+01  0.14344E-06
 0.73799996E+01 -0.68136E-07
 0.74299998E+01  0.84734E-07
 0.74799995E+01 -0.16728E-06
 0.75299997E+01  0.42144E-07
 0.75799994E+01  0.36313E-07
 0.76299996E+01 -0.60683E-07
 0.76799998E+01  0.23023E-06
 0.77299995E+01  0.21754E-07
 0.77799997E+01 -0.42924E-07
 0.78299994E+01  0.28290E-06
 0.78799996E+01 -0.12057E-06
 0.79299998E+01 -0.44088E-07
 0.79799995E+01  0.15650E-06
 0.80299997E+01 -0.18016E-06
 0.80799999E+01  0.12088E-06
 0.81300001E+01  0.32512E-08
 0.81799994E+01 -0.10472E-06
 0.82299995E+01  0.10734E-06
 0.82799997E+01 -0.71264E-07
 0.83299999E+01  0.20988E-07
 0.83800001E+01 -0.16799E-06
 0.84299994E+01 -0.14518E-06
 0.84799995E+01  0.10550E-06
 0.85299997E+01 -0.15892E-06
 0.85799999E+01  0.67051E-07
 0.86300001E+01  0.99601E-07
 0.86799994E+01 -0.14147E-06
 0.87299995E+01  0.71224E-07
 0.87799997E+01  0.58497E-07
 0.88299999E+01 -0.51157E-07
 0.88800001E+01 -0.35153E-07
 0.89299994E+01  0.33096E-07
 0.89799995E+01  0.98355E-07
 0.90299997E+01  0.41761E-07
 0.90799999E+01  0.23341E-07
 0.91300001E+01 -0.37807E-07
 0.91799994E+01 -0.22573E-07
 0.92299995E+01  0.48959E-07
 0.92799997E+01 -0.38071E-08
 0.93299999E+01 -0.13642E-06
 0.93800001E+01  0.12836E-06
 0.94299994E+01 -0.52191E-08
 0.94799995E+01 -0.11982E-06
 0.95299997E+01  0.48781E-06
 0.95799999E+01 -0.39248E-06
 0.96300001E+01  0.25761E-06
 0.96799994E+01 -0.18685E-07
 0.97299995E+01  0.64762E-07
 0.97799997E+01  0.60849E-06
 0.98299999E+01 -0.85537E-06
 0.98800001E+01  0.95032E-06
 0.99299994E+01 -0.41657E-05
 0.99799995E+01 -0.11978E-04
 0.10030000E+02 -0.42541E-04
 0.10080000E+02 -0.84238E-04
 0.10130000E+02 -0.10549E-03
 0.10179999E+02 -0.51033E-04
 0.10230000E+02  0.93630E-04
 0.10280000E+02  0.15199E-03
 0.10330000E+02  0.13351E-03
 0.10380000E+02  0.62745E-04
 0.10429999E+02 -0.52933E-05
 0.10480000E+02  0.33311E-04
 0.10530000E+02  0.11113E-04
 0.10580000E+02 -0.30996E-04
 0.10630000E+02 -0.53507E-04
 0.10679999E+02 -0.60153E-04
 0.10730000E+02 -0.27146E-04
 0.10780000E+02 -0.16015E-04
 0.10830000E+02 -0.26944E-04
 0.10880000E+02 -0.72151E-04
 0.10929999E+02  0.21969E-05
 0.10980000E+02  0.81021E-04
 0.11030000E+02 -0.16421E-05
 0.11080000E+02 -0.47376E-04
 0.11130000E+02  0.13547E-04
 0.11179999E+02  0.94761E-04
 0.11230000E+02  0.46162E-04
 0.11280000E+02 -0.79615E-04
 0.11330000E+02 -0.14482E-03
 0.11380000E+02 -0.54199E-04
 0.11429999E+02  0.11874E-03
 0.11480000E+02  0.10117E-03
 0.11530000E+02  0.11910E-03
 0.11580000E+02  0.87520E-04
 0.11630000E+02 -0.61143E-04
 0.11679999E+02 -0.44302E-04
 0.11730000E+02 -0.91453E-04
 0.11780000E+02 -0.97324E-06
 0.11830000E+02  0.13074E-03
 0.11880000E+02 -0.37083E-05
 0.11929999E+02 -0.95231E-04
 0.11980000E+02 -0.11485E-03
 0.12030000E+02 -0.82367E-04
 0.12080000E+02  0.23555E-04
 0.12130000E+02 -0.15855E-04
 0.12179999E+02  0.14251E-04
 0.12230000E+02  0.15755E-03
 0.12280000E+02 -0.19426E-04
 0.12330000E+02 -0.31137E-04
 0.12380000E+02  0.81860E-04
 0.12429999E+02 -0.21917E-05
 0.12480000E+02  0.12967E-04
 0.12530000E+02 -0.86849E-04
 0.12580000E+02 -0.10769E-03
 0.12630000E+02 -0.47995E-04
 0.12679999E+02 -0.52338E-04
 0.12730000E+02  0.19891E-04
 0.12780000E+02 -0.38676E-04
 0.12830000E+02  0.31207E-04
 0.12880000E+02  0.13213E-03
 0.12929999E+02  0.37902E-04
 0.12980000E+02  0.15409E-03
 0.13030000E+02  0.10672E-03
 0.13080000E+02 -0.82262E-04
 0.13130000E+02 -0.60826E-05
 0.13179999E+02 -0.24086E-04
 0.13230000E+02 -0.51943E-04
 0.13280000E+02 -0.57400E-04
 0.13330000E+02 -0.59711E-04
 0.13380000E+02  0.24017E-04
 0.13429999E+02 -0.13054E-04
 0.13480000E+02 -0.59034E-04
 0.13530000E+02  0.11670E-05
 0.13580000E+02  0.64656E-04
 0.13630000E+02  0.18329E-04
 0.13679999E+02 -0.53593E-05
 0.13730000E+02  0.70553E-04
 0.13780000E+02  0.73266E-04
 0.13830000E+02 -0.12340E-04
 0.13880000E+02 -0.11724E-03
 0.13929999E+02 -0.10346E-03
 0.13980000E+02 -0.28716E-04
 0.14030000E+02 -0.11742E-04
 0.14080000E+02  0.60915E-05
 0.14130000E+02  0.21470E-04
 0.14179999E+02  0.93686E-04
 0.14230000E+02  0.13494E-03
 0.14280000E+02  0.10354E-03
 0.14330000E+02  0.30802E-04
 0.14380000E+02 -0.82435E-04
 0.14429999E+02 -0.85054E-04
 0.14480000E+02 -0.11848E-03
 0.14530000E+02 -0.10855E-03
 0.14580000E+02 -0.19047E-04
 0.14630000E+02 -0.23754E-04
 0.14679999E+02 -0.11262E-04
 0.14730000E+02 -0.26821E-04
 0.14780000E+02  0.41539E-04
 0.14830000E+02  0.12337E-03
 0.14880000E+02  0.82607E-04
 0.14929999E+02  0.74183E-04
 0.14980000E+02  0.59919E-04
 0.15030000E+02 -0.47397E-05
 0.15080000E+02 -0.11428E-03
 0.15130000E+02 -0.87573E-04
 0.15179999E+02  0.99125E-04
 0.15230000E+02  0.92147E-04
 0.15280000E+02 -0.27488E-04
 0.15330000E+02  0.62379E-05
 0.15380000E+02  0.22249E-04
 0.15429999E+02  0.24867E-04
 0.15480000E+02  0.95928E-07
 0.15530000E+02 -0.13253E-03
 0.15580000E+02 -0.50428E-04
 0.15630000E+02  0.77982E-04
 0.15679999E+02 -0.41750E-04
 0.15730000E+02 -0.57120E-04
 0.15780000E+02  0.39206E-05
 0.15830000E+02 -0.48921E-04
 0.15880000E+02 -0.10160E-03
 0.15929999E+02 -0.73210E-04
 0.15980000E+02  0.12966E-03
 0.16030001E+02  0.18102E-03
 0.16080000E+02  0.47461E-04
 0.16129999E+02 -0.57100E-05
 0.16180000E+02 -0.67057E-05
 0.16230000E+02  0.10809E-04
 0.16280001E+02 -0.38851E-04
 0.16330000E+02 -0.20740E-05
 0.16379999E+02 -0.34835E-04
 0.16430000E+02 -0.15425E-03
 0.16480000E+02 -0.78566E-04
 0.16530001E+02 -0.24236E-04
 0.16580000E+02 -0.39488E-04
 0.16629999E+02 -0.67730E-05
 0.16680000E+02  0.10726E-04
 0.16730000E+02 -0.65562E-04
 0.16780001E+02 -0.15841E-03
 0.16830000E+02 -0.13351E-03
 0.16879999E+02  0.55258E-04
 0.16930000E+02  0.32366E-03
 0.16980000E+02  0.43480E-03
 0.17030001E+02  0.19669E-03
 0.17080000E+02 -0.50289E-03
 0.17129999E+02 -0.10004E-02
 0.17180000E+02 -0.58917E-03
 0.17230000E+02  0.39100E-03
 0.17280001E+02  0.11056E-02
 0.17330000E+02  0.74857E-03
 0.17379999E+02  0.19046E-03
 0.17430000E+02  0.36770E-03
 0.17480000E+02  0.67540E-03
 0.17530001E+02  0.41331E-03
 0.17580000E+02 -0.13943E-03
 0.17629999E+02 -0.28487E-03
 0.17680000E+02 -0.42475E-03
 0.17730000E+02 -0.73394E-03
 0.17780001E+02 -0.10432E-02
 0.17830000E+02 -0.10616E-02
 0.17879999E+02 -0.67604E-03
 0.17930000E+02 -0.16032E-03
 0.17980000E+02  0.46785E-03
 0.18030001E+02  0.94405E-03
 0.18080000E+02  0.11263E-02
 0.18129999E+02  0.89862E-03
 0.18180000E+02  0.47414E-03
 0.18230000E+02  0.26527E-03
 0.18280001E+02 -0.41810E-04
 0.18330000E+02 -0.10771E-03
 0.18379999E+02  0.92403E-05
 0.18430000E+02 -0.41798E-03
 0.18480000E+02 -0.71923E-03
 0.18530001E+02 -0.64312E-03
 0.18580000E+02 -0.20702E-03
 0.18629999E+02  0.17078E-03
 0.18680000E+02  0.20490E-03
 0.18730000E+02  0.15977E-03
 0.18780001E+02  0.45434E-04
 0.18830000E+02  0.12455E-03
 0.18879999E+02 -0.69349E-04
 0.18930000E+02 -0.26609E-03
 0.18980000E+02 -0.41425E-03
 0.19030001E+02 -0.69726E-03
 0.19080000E+02 -0.70344E-03
 0.19129999E+02 -0.32334E-03
 0.19180000E+02  0.16544E-03
 0.19230000E+02  0.22064E-03
 0.19280001E+02  0.28790E-03
 0.19330000E+02  0.39155E-03
 0.19379999E+02  0.49079E-03
 0.19430000E+02  0.60844E-03
 0.19480000E+02  0.53765E-03
 0.19530001E+02  0.36679E-03
 0.19580000E+02 -0.13856E-03
 0.19629999E+02 -0.65436E-03
 0.19680000E+02 -0.87146E-03
 0.19730000E+02 -0.65969E-03
 0.19780001E+02 -0.25366E-03
 0.19830000E+02 -0.40768E-04
 0.19879999E+02  0.14781E-03
 0.19930000E+02  0.32074E-03
 0.19980000E+02  0.69158E-03
 0.20030001E+02  0.10906E-02
 0.20080000E+02  0.10394E-02
 0.20129999E+02  0.63750E-03
 0.20180000E+02  0.17498E-03
 0.20230000E+02 -0.42767E-04
 0.20280001E+02 -0.54363E-04
 0.20330000E+02 -0.11708E-03
 0.20379999E+02 -0.25860E-03
 0.20430000E+02 -0.40580E-03
 0.20480000E+02 -0.50702E-03
 0.20530001E+02 -0.64964E-03
 0.20580000E+02 -0.82149E-03
 0.20629999E+02 -0.68256E-03
 0.20680000E+02 -0.39685E-03
 0.20730000E+02 -0.33990E-03
 0.20780001E+02 -0.39877E-03
 0.20830000E+02 -0.41938E-03
 0.20879999E+02 -0.22057E-03
 0.20930000E+02  0.18841E-03
 0.20980000E+02  0.49191E-03
 0.21030001E+02  0.55083E-03
 0.21080000E+02  0.61194E-03
 0.21129999E+02  0.56461E-03
 0.21180000E+02  0.36380E-03
 0.21230000E+02  0.26050E-03
 0.21280001E+02  0.22203E-03
 0.21330000E+02  0.43158E-03
 0.21379999E+02  0.54859E-03
 0.21430000E+02  0.33412E-03
 0.21480000E+02  0.94298E-04
 0.21530001E+02 -0.11789E-03
 0.21580000E+02 -0.15942E-03
 0.21629999E+02 -0.11275E-03
 0.21680000E+02 -0.11125E-03
 0.21730000E+02 -0.13810E-03
 0.21780001E+02 -0.21507E-03
 0.21830000E+02 -0.26190E-03
 0.21879999E+02 -0.24984E-03
 0.21930000E+02 -0.18851E-03
 0.21980000E+02 -0.14876E-03
 0.22030001E+02 -0.19138E-03
 0.22080000E+02 -0.20033E-03
 0.22129999E+02 -0.19159E-03
 0.22180000E+02 -0.22125E-03
 0.22230000E+02 -0.29911E-03
 0.22280001E+02 -0.23207E-03
 0.22330000E+02  0.37750E-05
 0.22379999E+02  0.13173E-03
 0.22430000E+02  0.22382E-03
 0.22480000E+02  0.27051E-03
 0.22530001E+02  0.31594E-03
 0.22580000E+02  0.37223E-03
 0.22629999E+02  0.27836E-03
 0.22680000E+02  0.77789E-04
 0.22730000E+02  0.47659E-04
 0.22780001E+02  0.15025E-03
 0.22830000E+02  0.22228E-04
 0.22879999E+02 -0.10670E-03
 0.22930000E+02 -0.16306E-03
 0.22980000E+02 -0.19396E-03
 0.23030001E+02 -0.21985E-03
 0.23080000E+02 -0.29636E-03
 0.23129999E+02 -0.21549E-03
 0.23180000E+02 -0.10721E-03
 0.23230000E+02 -0.79957E-04
 0.23280001E+02 -0.14542E-03
 0.23330000E+02 -0.76701E-04
 0.23379999E+02  0.13318E-03
 0.23430000E+02  0.21029E-03
 0.23480000E+02  0.30295E-03
 0.23530001E+02  0.35324E-03
 0.23580000E+02  0.29380E-03
 0.23629999E+02  0.14227E-03
 0.23680000E+02 -0.10985E-04
 0.23730000E+02 -0.53864E-04
 0.23780001E+02 -0.15731E-03
 0.23830000E+02 -0.26763E-03
 0.23879999E+02 -0.27083E-03
 0.23930000E+02 -0.16577E-03
 0.23980000E+02 -0.10555E-04
 0.24030001E+02  0.13052E-04
 0.24080000E+02  0.23037E-04
 0.24129999E+02  0.14575E-03
 0.24180000E+02  0.25060E-03
 0.24230000E+02  0.23804E-03
 0.24280001E+02  0.12245E-03
 0.24330000E+02  0.56417E-04
 0.24379999E+02 -0.12798E-04
 0.24430000E+02 -0.14447E-03
 0.24480000E+02 -0.20169E-03
 0.24530001E+02 -0.16880E-03
 0.24580000E+02 -0.10811E-03
 0.24629999E+02 -0.20510E-04
 0.24680000E+02  0.12381E-03
 0.24730000E+02  0.16404E-03
 0.24780001E+02  0.84914E-04
 0.24830000E+02  0.33568E-04
 0.24879999E+02 -0.54435E-04
 0.24930000E+02 -0.14680E-03
 0.24980000E+02 -0.20423E-03
 0.25030001E+02 -0.27106E-03
 0.25080000E+02 -0.26341E-03
 0.25129999E+02 -0.20222E-03
 0.25180000E+02 -0.11455E-03
 0.25230000E+02  0.26322E-04
 0.25280001E+02  0.12654E-03
 0.25330000E+02  0.23078E-03
 0.25379999E+02  0.34603E-03
 0.25430000E+02  0.43168E-03
 0.25480000E+02  0.40690E-03
 0.25530001E+02  0.22779E-03
 0.25580000E+02  0.12633E-03
 0.25629999E+02  0.88417E-04
 0.25680000E+02  0.13860E-04
 0.25730000E+02 -0.20113E-04
 0.25780001E+02 -0.60119E-04
 0.25830000E+02 -0.15517E-03
 0.25879999E+02 -0.16426E-03
 0.25930000E+02 -0.91032E-04
 0.25980000E+02 -0.56657E-04
 0.26030001E+02 -0.23144E-04
 0.26080000E+02 -0.55030E-04
 0.26129999E+02 -0.16277E-03
 0.26180000E+02 -0.15726E-03
 0.26230000E+02 -0.53924E-04
 0.26280001E+02  0.16546E-04
 0.26330000E+02  0.17747E-04
 0.26379999E+02 -0.63945E-05
 0.26430000E+02  0.38420E-04
 0.26480000E+02  0.40770E-04
 0.26530001E+02 -0.49113E-04
 0.26580000E+02 -0.93671E-04
 0.26629999E+02 -0.11437E-03
 0.26680000E+02 -0.10256E-03
 0.26730000E+02 -0.18474E-04
 0.26780001E+02 -0.16584E-04
 0.26830000E+02 -0.52238E-04
 0.26879999E+02 -0.18281E-05
 0.26930000E+02  0.34715E-04
 0.26980000E+02  0.42079E-04
 0.27030001E+02  0.10178E-03
 0.27080000E+02  0.17243E-03
 0.27129999E+02  0.11831E-03
 0.27180000E+02  0.13661E-04
 0.27230000E+02  0.53246E-05
 0.27280001E+02  0.29719E-04
 0.27330000E+02  0.74526E-05
 0.27379999E+02 -0.59177E-04
 0.27430000E+02 -0.10248E-03
 0.27480000E+02 -0.69796E-04
 0.27530001E+02 -0.63219E-04
 0.27580000E+02 -0.26552E-04
 0.27629999E+02  0.49685E-04
 0.27680000E+02  0.41156E-04
 0.27730000E+02  0.35696E-04
 0.27780001E+02  0.26809E-04
 0.27830000E+02  0.15853E-04
 0.27879999E+02 -0.94860E-05
 0.27930000E+02 -0.54371E-04
 0.27980000E+02 -0.27120E-04
 0.28030001E+02 -0.25850E-04
 0.28080000E+02 -0.61638E-04
 0.28129999E+02 -0.24292E-04
 0.28180000E+02  0.65024E-04
 0.28230000E+02  0.90868E-04
 0.28280001E+02  0.73282E-04
 0.28330000E+02  0.99997E-04
 0.28379999E+02  0.12251E-03
 0.28430000E+02  0.13185E-03
 0.28480000E+02  0.99557E-04
 0.28530001E+02  0.36120E-05
 0.28580000E+02 -0.88536E-04
 0.28629999E+02 -0.17017E-03
 0.28680000E+02 -0.22346E-03
 0.28730000E+02 -0.22406E-03
 0.28780001E+02 -0.18577E-03
 0.28830000E+02 -0.10504E-03
 0.28879999E+02 -0.37917E-04
 0.28930000E+02  0.30926E-04
 0.28980000E+02  0.10697E-03
 0.29030001E+02  0.75925E-04
 0.29080000E+02  0.79214E-04
 0.29129999E+02  0.20786E-03
 0.29180000E+02  0.23143E-03
 0.29230000E+02  0.12622E-03
 0.29280001E+02  0.18916E-04
 0.29330000E+02 -0.47557E-04
 0.29379999E+02 -0.67404E-04
 0.29430000E+02 -0.87180E-04
 0.29480000E+02 -0.73783E-04
 0.29530001E+02 -0.21017E-04
 0.29580000E+02  0.46604E-04
 0.29629999E+02  0.12493E-03
 0.29680000E+02  0.13314E-03
 0.29730000E+02  0.85922E-04
 0.29780001E+02  0.59375E-04
 0.29830000E+02  0.69338E-05
 0.29879999E+02 -0.65946E-04
 0.29930000E+02 -0.91804E-04
 0.29980000E+02 -0.10169E-03
 0.30030001E+02 -0.82299E-04
 0.30080000E+02 -0.33391E-04
 0.30129999E+02 -0.27125E-04
 0.30180000E+02 -0.22700E-04
 0.30230000E+02  0.13841E-04
 0.30280001E+02 -0.25104E-04
 0.30330000E+02 -0.10114E-03
 0.30379999E+02 -0.13753E-03
 0.30430000E+02 -0.19478E-03
 0.30480000E+02 -0.19538E-03
 0.30530001E+02 -0.12484E-03
 0.30580000E+02 -0.91258E-04
 0.30629999E+02 -0.51207E-04
 0.30680000E+02  0.57795E-04
 0.30730000E+02  0.17436E-03
 0.30780001E+02  0.24004E-03
 0.30830000E+02  0.24774E-03
 0.30879999E+02  0.21558E-03
 0.30930000E+02  0.18323E-03
 0.30980000E+02  0.13017E-03
 0.31030001E+02  0.95385E-04
 0.31080000E+02  0.89894E-04
 0.31129999E+02  0.59871E-04
 0.31180000E+02  0.38015E-04
 0.31230000E+02 -0.20247E-04
 0.31280001E+02 -0.99985E-04
 0.31330000E+02 -0.12852E-03
 0.31379999E+02 -0.12496E-03
 0.31430000E+02 -0.85754E-04
 0.31480000E+02 -0.42579E-04
 0.31530001E+02 -0.68891E-04
 0.31580000E+02 -0.11812E-03
 0.31629999E+02 -0.10238E-03
 0.31680000E+02 -0.57823E-04
 0.31730000E+02  0.26687E-05
 0.31780001E+02  0.75289E-04
 0.31830000E+02  0.11240E-03
 0.31879999E+02  0.60324E-04
 0.31930000E+02 -0.69589E-04
 0.31980000E+02 -0.10841E-03
 0.32029999E+02 -0.72914E-04
 0.32080002E+02 -0.71283E-04
 0.32130001E+02 -0.82334E-04
 0.32180000E+02 -0.88501E-04
 0.32230000E+02 -0.54077E-04
 0.32279999E+02 -0.90673E-05
 0.32330002E+02  0.43484E-04
 0.32380001E+02  0.10077E-03
 0.32430000E+02  0.10535E-03
 0.32480000E+02  0.76911E-04
 0.32529999E+02  0.89264E-04
 0.32580002E+02  0.86364E-04
 0.32630001E+02  0.28529E-04
 0.32680000E+02  0.27048E-04
 0.32730000E+02  0.46167E-04
 0.32779999E+02  0.13845E-04
 0.32830002E+02 -0.50904E-04
 0.32880001E+02 -0.85905E-04
 0.32930000E+02 -0.87007E-04
 0.32980000E+02 -0.78445E-04
 0.33029999E+02 -0.34702E-04
 0.33080002E+02 -0.47366E-05
 0.33130001E+02 -0.12788E-04
 0.33180000E+02 -0.16299E-04
 0.33230000E+02  0.14957E-04
 0.33279999E+02  0.56650E-04
 0.33330002E+02  0.86734E-04
 0.33380001E+02  0.13131E-03
 0.33430000E+02  0.15441E-03
 0.33480000E+02  0.10155E-03
 0.33529999E+02  0.63062E-04
 0.33580002E+02  0.78593E-04
 0.33630001E+02  0.81172E-04
 0.33680000E+02  0.69521E-04
 0.33730000E+02  0.34416E-05
 0.33779999E+02 -0.92796E-04
 0.33830002E+02 -0.12179E-03
 0.33880001E+02 -0.66774E-04
 0.33930000E+02 -0.80567E-07
 0.33980000E+02 -0.48064E-06
 0.34029999E+02  0.12953E-05
 0.34080002E+02  0.36418E-04
 0.34130001E+02  0.27731E-04
 0.34180000E+02 -0.34595E-04
 0.34230000E+02 -0.12184E-03
 0.34279999E+02 -0.17979E-03
 0.34330002E+02 -0.18594E-03
 0.34380001E+02 -0.16517E-03
 0.34430000E+02 -0.12788E-03
 0.34480000E+02 -0.10159E-03
 0.34529999E+02 -0.90984E-04
 0.34580002E+02 -0.59347E-04
 0.34630001E+02 -0.12522E-04
 0.34680000E+02  0.18246E-04
 0.34730000E+02  0.70242E-04
 0.34779999E+02  0.11819E-03
 0.34830002E+02  0.14750E-03
 0.34880001E+02  0.17044E-03
 0.34930000E+02  0.13250E-03
 0.34980000E+02  0.91553E-04
 0.35029999E+02  0.28368E-04
 0.35080002E+02 -0.40050E-04
 0.35130001E+02 -0.28071E-04
 0.35180000E+02  0.18125E-04
 0.35230000E+02  0.62128E-04
 0.35279999E+02  0.39435E-04
 0.35330002E+02  0.13348E-04
 0.35380001E+02  0.83527E-05
 0.35430000E+02 -0.53087E-04
 0.35480000E+02 -0.10568E-03
 0.35529999E+02 -0.13101E-03
 0.35580002E+02 -0.11539E-03
 0.35630001E+02 -0.52994E-04
 0.35680000E+02  0.15595E-05
 0.35730000E+02  0.25707E-04
 0.35779999E+02  0.33629E-04
 0.35830002E+02  0.38139E-04
 0.35880001E+02  0.44118E-04
 0.35930000E+02  0.73112E-04
 0.35980000E+02  0.10716E-03
 0.36029999E+02  0.14816E-03
 0.36080002E+02  0.17214E-03
 0.36130001E+02  0.14542E-03
 0.36180000E+02  0.94956E-04
 0.36230000E+02  0.49956E-04
 0.36279999E+02  0.81921E-05
 0.36330002E+02 -0.63840E-04
 0.36380001E+02 -0.11220E-03
 0.36430000E+02 -0.13526E-03
 0.36480000E+02 -0.16380E-03
 0.36529999E+02 -0.16794E-03
 0.36580002E+02 -0.15679E-03
 0.36630001E+02 -0.10513E-03
 0.36680000E+02 -0.36364E-04
 0.36730000E+02  0.19341E-04
 0.36779999E+02  0.67471E-04
 0.36830002E+02  0.57546E-04
 0.36880001E+02  0.11333E-04
 0.36930000E+02  0.28267E-04
 0.36980000E+02  0.72315E-04
 0.37029999E+02  0.57540E-04
 0.37080002E+02  0.16321E-04
 0.37130001E+02 -0.38097E-05
 0.37180000E+02 -0.79575E-06
 0.37230000E+02 -0.41898E-05
 0.37279999E+02 -0.38908E-04
 0.37330002E+02 -0.90817E-04
 0.37380001E+02 -0.79396E-04
 0.37430000E+02 -0.24473E-04
 0.37480000E+02 -0.57952E-05
 0.37529999E+02  0.98590E-05
 0.37580002E+02  0.13392E-04
 0.37630001E+02  0.12287E-05
 0.37680000E+02  0.65110E-05
 0.37730000E+02  0.16926E-05
 0.37779999E+02  0.12740E-04
 0.37830002E+02  0.61258E-04
 0.37880001E+02  0.45519E-04
 0.37930000E+02 -0.49128E-05
 0.37980000E+02 -0.77547E-05
 0.38029999E+02  0.15947E-04
 0.38080002E+02  0.58710E-04
 0.38130001E+02  0.72628E-04
 0.38180000E+02  0.65285E-04
 0.38230000E+02  0.51485E-04
 0.38279999E+02  0.73363E-05
 0.38330002E+02 -0.23423E-04
 0.38380001E+02 -0.39352E-05
 0.38430000E+02  0.17299E-04
 0.38480000E+02  0.11733E-04
 0.38529999E+02  0.83674E-05
 0.38580002E+02 -0.10695E-05
 0.38630001E+02 -0.31926E-04
 0.38680000E+02 -0.77273E-04
 0.38730000E+02 -0.78947E-04
 0.38779999E+02 -0.49564E-04
 0.38830002E+02 -0.37820E-04
 0.38880001E+02 -0.31642E-04
 0.38930000E+02 -0.48019E-04
 0.38980000E+02 -0.33631E-04
 0.39029999E+02  0.25322E-04
 0.39080002E+02  0.35659E-04
 0.39130001E+02  0.11641E-04
 0.39180000E+02  0.94991E-05
 0.39230000E+02  0.25758E-04
 0.39279999E+02  0.54130E-04
 0.39330002E+02  0.82552E-04
 0.39380001E+02  0.10057E-03
 0.39430000E+02  0.10394E-03
 0.39480000E+02  0.68974E-04
 0.39529999E+02  0.24949E-04
 0.39580002E+02  0.74509E-05
 0.39630001E+02 -0.24845E-04
 0.39680000E+02 -0.68115E-04
 0.39730000E+02 -0.93671E-04
 0.39779999E+02 -0.11214E-03
 0.39830002E+02 -0.10993E-03
 0.39880001E+02 -0.79609E-04
 0.39930000E+02 -0.58529E-04
 0.39980000E+02 -0.50098E-04
 0.40029999E+02 -0.26566E-04
 0.40080002E+02 -0.32751E-05
 0.40130001E+02  0.18944E-04
 0.40180000E+02  0.42613E-04
 0.40230000E+02  0.51167E-04
 0.40279999E+02  0.52148E-04
 0.40330002E+02  0.42473E-04
 0.40380001E+02  0.46182E-04
 0.40430000E+02  0.76345E-04
 0.40480000E+02  0.70822E-04
 0.40529999E+02  0.11318E-04
 0.40580002E+02 -0.41725E-04
 0.40630001E+02 -0.52414E-04
 0.40680000E+02 -0.34449E-04
 0.40730000E+02 -0.17447E-04
 0.40779999E+02 -0.13546E-04
 0.40830002E+02  0.33178E-05
 0.40880001E+02  0.64998E-05
 0.40930000E+02 -0.18680E-04
 0.40980000E+02 -0.23489E-04
 0.41029999E+02 -0.21060E-04
 0.41080002E+02 -0.21244E-04
 0.41130001E+02 -0.35307E-04
 0.41180000E+02 -0.56617E-04
 0.41230000E+02 -0.33719E-04
 0.41279999E+02  0.10826E-04
 0.41330002E+02  0.24735E-04
 0.41380001E+02 -0.93176E-05
 0.41430000E+02 -0.22159E-04
 0.41480000E+02  0.10057E-04
 0.41529999E+02  0.31696E-04
 0.41580002E+02  0.43133E-04
 0.41630001E+02  0.32989E-04
 0.41680000E+02  0.35074E-04
 0.41730000E+02  0.61826E-04
 0.41779999E+02  0.67298E-04
 0.41830002E+02  0.56292E-04
 0.41880001E+02  0.36463E-04
 0.41930000E+02  0.23457E-04
 0.41980000E+02  0.12304E-05
 0.42029999E+02 -0.39780E-04
 0.42080002E+02 -0.61276E-04
 0.42130001E+02 -0.66339E-04
 0.42180000E+02 -0.78850E-04
 0.42230000E+02 -0.75702E-04
 0.42279999E+02 -0.27681E-04
 0.42330002E+02  0.32533E-04
 0.42380001E+02  0.67100E-04
 0.42430000E+02  0.73334E-04
 0.42480000E+02  0.66821E-04
 0.42529999E+02  0.44950E-04
 0.42580002E+02  0.10946E-04
 0.42630001E+02 -0.16315E-04
 0.42680000E+02 -0.49857E-04
 0.42730000E+02 -0.64219E-04
 0.42779999E+02 -0.40243E-04
 0.42830002E+02 -0.44033E-05
 0.42880001E+02  0.19008E-04
 0.42930000E+02  0.26393E-04
 0.42980000E+02  0.44225E-04
 0.43029999E+02  0.56802E-04
 0.43080002E+02  0.45238E-04
 0.43130001E+02  0.18110E-04
 0.43180000E+02 -0.54922E-05
 0.43230000E+02 -0.73718E-05
 0.43279999E+02 -0.26854E-05
 0.43330002E+02 -0.18307E-06
 0.43380001E+02 -0.14017E-04
 0.43430000E+02 -0.50395E-04
 0.43480000E+02 -0.73477E-04
 0.43529999E+02 -0.63458E-04
 0.43580002E+02 -0.42640E-04
 0.43630001E+02 -0.28605E-04
 0.43680000E+02 -0.53338E-05
 0.43730000E+02  0.18569E-04
 0.43779999E+02  0.16953E-04
 0.43830002E+02  0.14786E-04
 0.43880001E+02  0.12132E-04
 0.43930000E+02  0.86293E-05
 0.43980000E+02  0.14876E-04
 0.44029999E+02  0.26000E-05
 0.44080002E+02 -0.12507E-04
 0.44130001E+02 -0.13547E-04
 0.44180000E+02  0.18545E-05
 0.44230000E+02  0.21172E-04
 0.44279999E+02  0.22878E-04
 0.44330002E+02  0.18769E-04
 0.44380001E+02  0.10613E-04
 0.44430000E+02 -0.84168E-06
 0.44480000E+02 -0.91145E-05
 0.44529999E+02  0.38789E-05
 0.44580002E+02  0.19150E-04
 0.44630001E+02  0.71563E-05
 0.44680000E+02  0.21270E-06
 0.44730000E+02 -0.64818E-05
 0.44779999E+02 -0.30291E-04
 0.44830002E+02 -0.50962E-04
 0.44880001E+02 -0.66541E-04
 0.44930000E+02 -0.79595E-04
 0.44980000E+02 -0.63588E-04
 0.45029999E+02 -0.12251E-04
 0.45080002E+02  0.21985E-04
 0.45130001E+02  0.21691E-04
 0.45180000E+02  0.23053E-04
 0.45230000E+02  0.44514E-04
 0.45279999E+02  0.51487E-04
 0.45330002E+02  0.35236E-04
 0.45380001E+02  0.28962E-04
 0.45430000E+02  0.18030E-04
 0.45480000E+02  0.10701E-04
 0.45529999E+02  0.33473E-04
 0.45580002E+02  0.61209E-04
 0.45630001E+02  0.67408E-04
 0.45680000E+02  0.60375E-04
 0.45730000E+02  0.43864E-04
 0.45779999E+02  0.25323E-04
 0.45830002E+02  0.19451E-04
 0.45880001E+02  0.21126E-06
 0.45930000E+02 -0.32262E-04
 0.45980000E+02 -0.52646E-04
 0.46029999E+02 -0.67442E-04
 0.46080002E+02 -0.72506E-04
 0.46130001E+02 -0.62158E-04
 0.46180000E+02 -0.42232E-04
 0.46230000E+02 -0.13854E-04
 0.46279999E+02 -0.61134E-05
 0.46330002E+02 -0.11986E-04
 0.46380001E+02  0.51702E-05
 0.46430000E+02  0.31691E-04
 0.46480000E+02  0.38222E-04
 0.46529999E+02  0.76463E-05
 0.46580002E+02 -0.15776E-04
 0.46630001E+02 -0.64027E-05
 0.46680000E+02 -0.11912E-04
 0.46730000E+02 -0.36287E-04
 0.46779999E+02 -0.47246E-04
 0.46830002E+02 -0.48819E-04
 0.46880001E+02 -0.43406E-04
 0.46930000E+02 -0.18642E-04
 0.46980000E+02  0.50701E-05
 0.47029999E+02  0.62359E-05
 0.47080002E+02 -0.59835E-05
 0.47130001E+02  0.36313E-05
 0.47180000E+02  0.36694E-04
 0.47230000E+02  0.55129E-04
 0.47279999E+02  0.63887E-04
 0.47330002E+02  0.76836E-04
 0.47380001E+02  0.68826E-04
 0.47430000E+02  0.38396E-04
 0.47480000E+02  0.13276E-04
 0.47529999E+02 -0.28077E-05
 0.47580002E+02 -0.14736E-04
 0.47630001E+02 -0.37353E-04
 0.47680000E+02 -0.58090E-04
 0.47730000E+02 -0.54192E-04
 0.47779999E+02 -0.44228E-04
 0.47830002E+02 -0.26698E-04
 0.47880001E+02 -0.51079E-06
 0.47930000E+02  0.32030E-04
 0.47980000E+02  0.60125E-04
 0.48029999E+02  0.58765E-04
 0.48080002E+02  0.47391E-04
 0.48130001E+02  0.44374E-04
 0.48180000E+02  0.33175E-04
 0.48230000E+02  0.75964E-05
 0.48279999E+02 -0.13236E-04
 0.48330002E+02 -0.26877E-04
 0.48380001E+02 -0.39643E-04
 0.48430000E+02 -0.46915E-04
 0.48480000E+02 -0.43415E-04
 0.48529999E+02 -0.30524E-04
 0.48580002E+02 -0.27715E-04
 0.48630001E+02 -0.32792E-04
 0.48680000E+02 -0.26403E-04
 0.48730000E+02 -0.13124E-04
 0.48779999E+02 -0.10353E-04
 0.48830002E+02 -0.13128E-04
 0.48880001E+02 -0.16000E-05
 0.48930000E+02  0.13507E-04
 0.48980000E+02  0.23077E-04
 0.49029999E+02  0.42542E-04
 0.49080002E+02  0.53485E-04
 0.49130001E+02  0.46699E-04
 0.49180000E+02  0.37959E-04
 0.49230000E+02  0.19144E-04
 0.49279999E+02  0.36664E-05
 0.49330002E+02 -0.28802E-05
 0.49380001E+02 -0.71713E-05
 0.49430000E+02 -0.25098E-05
 0.49480000E+02 -0.74592E-05
 0.49529999E+02 -0.26104E-04
 0.49580002E+02 -0.43798E-04
 0.49630001E+02 -0.54536E-04
 0.49680000E+02 -0.50442E-04
 0.49730000E+02 -0.41744E-04
 0.49779999E+02 -0.21729E-04
 0.49830002E+02  0.16805E-04
 0.49880001E+02  0.40258E-04
 0.49930000E+02  0.39949E-04
 0.49980000E+02  0.28186E-04
 0.50029999E+02  0.20162E-04
 0.50080002E+02  0.15316E-04
 0.50130001E+02  0.47587E-05
 0.50180000E+02  0.15169E-07
 0.50230000E+02 -0.39384E-05
 0.50279999E+02 -0.11019E-04
 0.50330002E+02 -0.90496E-05
 0.50380001E+02 -0.16776E-05
 0.50430000E+02 -0.47142E-05
 0.50480000E+02 -0.74470E-05
 0.50529999E+02  0.19622E-07
 0.50580002E+02  0.71379E-05
 0.50630001E+02  0.12194E-04
 0.50680000E+02  0.97190E-05
 0.50730000E+02 -0.52411E-05
 0.50779999E+02 -0.18511E-04
 0.50830002E+02 -0.21674E-04
 0.50880001E+02 -0.21478E-04
 0.50930000E+02 -0.19001E-04
 0.50980000E+02 -0.20554E-04
 0.51029999E+02 -0.16391E-04
 0.51080002E+02 -0.20361E-05
 0.51130001E+02  0.17374E-06
 0.51180000E+02 -0.35250E-05
 0.51230000E+02 -0.23431E-05
 0.51279999E+02  0.46825E-05
 0.51330002E+02  0.20861E-04
 0.51380001E+02  0.33270E-04
 0.51430000E+02  0.34153E-04
 0.51480000E+02  0.27046E-04
 0.51529999E+02  0.10815E-04
 0.51580002E+02 -0.23456E-05
 0.51630001E+02 -0.16033E-05
 0.51680000E+02  0.72250E-05
 0.51730000E+02  0.19927E-04
 0.51779999E+02  0.23026E-04
 0.51830002E+02  0.18302E-04
 0.51880001E+02  0.28089E-04
 0.51930000E+02  0.44044E-04
 0.51980000E+02  0.49681E-04
 0.52029999E+02  0.47756E-04
 0.52080002E+02  0.36848E-04
 0.52130001E+02  0.17933E-04
 0.52180000E+02 -0.67847E-05
 0.52230000E+02 -0.39301E-04
 0.52279999E+02 -0.72600E-04
 0.52330002E+02 -0.97259E-04
 0.52380001E+02 -0.10188E-03
 0.52430000E+02 -0.83052E-04
 0.52480000E+02 -0.58911E-04
 0.52529999E+02 -0.39550E-04
 0.52580002E+02 -0.26360E-04
 0.52630001E+02 -0.20366E-04
 0.52680000E+02 -0.62537E-05
 0.52730000E+02  0.12567E-04
 0.52779999E+02  0.20637E-04
 0.52830002E+02  0.25468E-04
 0.52880001E+02  0.30147E-04
 0.52930000E+02  0.28461E-04
 0.52980000E+02  0.22215E-04
 0.53029999E+02  0.20578E-04
 0.53080002E+02  0.24255E-04
 0.53130001E+02  0.27095E-04
 0.53180000E+02  0.32566E-04
 0.53230000E+02  0.39349E-04
 0.53279999E+02  0.42550E-04
 0.53330002E+02  0.42719E-04
 0.53380001E+02  0.35502E-04
 0.53430000E+02  0.19907E-04
 0.53480000E+02  0.17408E-05
 0.53529999E+02 -0.13975E-04
 0.53580002E+02 -0.29180E-04
 0.53630001E+02 -0.33682E-04
 0.53680000E+02 -0.18235E-04
 0.53730000E+02 -0.24011E-05
 0.53779999E+02  0.10929E-04
 0.53830002E+02  0.20503E-04
 0.53880001E+02  0.17309E-04
 0.53930000E+02  0.12983E-04
 0.53980000E+02  0.68585E-05
 0.54029999E+02 -0.52986E-05
 0.54080002E+02 -0.23120E-04
 0.54130001E+02 -0.46462E-04
 0.54180000E+02 -0.65358E-04
 0.54230000E+02 -0.75017E-04
 0.54279999E+02 -0.69516E-04
 0.54330002E+02 -0.55266E-04
 0.54380001E+02 -0.44626E-04
 0.54430000E+02 -0.31697E-04
 0.54480000E+02 -0.13076E-04
 0.54529999E+02  0.11783E-04
 0.54580002E+02  0.30763E-04
 0.54630001E+02  0.45902E-04
 0.54680000E+02  0.66245E-04
 0.54730000E+02  0.69916E-04
 0.54779999E+02  0.59627E-04
 0.54830002E+02  0.46836E-04
 0.54880001E+02  0.30922E-04
 0.54930000E+02  0.18623E-04
 0.54980000E+02  0.58265E-05
 0.55029999E+02 -0.57725E-05
 0.55080002E+02 -0.10696E-04
 0.55130001E+02 -0.14727E-04
 0.55180000E+02 -0.19017E-04
 0.55230000E+02 -0.19564E-04
 0.55279999E+02 -0.24001E-04
 0.55330002E+02 -0.26245E-04
 0.55380001E+02 -0.10513E-04
 0.55430000E+02  0.89025E-05
 0.55480000E+02  0.16872E-04
 0.55529999E+02  0.11923E-04
 0.55580002E+02 -0.91508E-06
 0.55630001E+02 -0.66018E-05
 0.55680000E+02  0.17107E-05
 0.55730000E+02  0.23215E-04
 0.55779999E+02  0.46820E-04
 0.55830002E+02  0.57172E-04
 0.55880001E+02  0.52824E-04
 0.55930000E+02  0.32107E-04
 0.55980000E+02  0.11857E-05
 0.56029999E+02 -0.22399E-04
 0.56080002E+02 -0.32534E-04
 0.56130001E+02 -0.41682E-04
 0.56180000E+02 -0.51108E-04
 0.56230000E+02 -0.55547E-04
 0.56279999E+02 -0.57204E-04
 0.56330002E+02 -0.38184E-04
 0.56380001E+02 -0.63287E-05
 0.56430000E+02  0.73419E-05
 0.56480000E+02  0.45577E-05
 0.56529999E+02 -0.23364E-05
 0.56580002E+02 -0.21222E-05
 0.56630001E+02  0.54664E-05
 0.56680000E+02  0.63477E-05
 0.56730000E+02  0.18268E-05
 0.56779999E+02 -0.34109E-06
 0.56830002E+02 -0.56956E-05
 0.56880001E+02 -0.13548E-04
 0.56930000E+02 -0.11612E-04
 0.56980000E+02 -0.33201E-06
 0.57029999E+02  0.97844E-05
 0.57080002E+02  0.10605E-04
 0.57130001E+02  0.83549E-05
 0.57180000E+02  0.93548E-05
 0.57230000E+02  0.94043E-05
 0.57279999E+02  0.13586E-04
 0.57330002E+02  0.16786E-04
 0.57380001E+02  0.10833E-04
 0.57430000E+02  0.18075E-05
 0.57480000E+02 -0.65825E-05
 0.57529999E+02 -0.12401E-04
 0.57580002E+02 -0.13698E-04
 0.57630001E+02 -0.11933E-04
 0.57680000E+02 -0.12175E-04
 0.57730000E+02 -0.15377E-04
 0.57779999E+02 -0.15370E-04
 0.57830002E+02 -0.67910E-05
 0.57880001E+02  0.61335E-05
 0.57930000E+02  0.16406E-04
 0.57980000E+02  0.30939E-04
 0.58029999E+02  0.45788E-04
 0.58080002E+02  0.48872E-04
 0.58130001E+02  0.43035E-04
 0.58180000E+02  0.31817E-04
 0.58230000E+02  0.20641E-04
 0.58279999E+02  0.80992E-05
 0.58330002E+02 -0.83892E-05
 0.58380001E+02 -0.20397E-04
 0.58430000E+02 -0.24711E-04
 0.58480000E+02 -0.26789E-04
 0.58529999E+02 -0.28334E-04
 0.58580002E+02 -0.26120E-04
 0.58630001E+02 -0.22437E-04
 0.58680000E+02 -0.15822E-04
 0.58730000E+02 -0.15055E-05
 0.58779999E+02  0.17115E-04
 0.58830002E+02  0.29754E-04
 0.58880001E+02  0.33244E-04
 0.58930000E+02  0.30483E-04
 0.58980000E+02  0.20707E-04
 0.59029999E+02  0.13037E-04
 0.59080002E+02  0.76363E-05
 0.59130001E+02 -0.59277E-05
 0.59180000E+02 -0.23336E-04
 0.59230000E+02 -0.38943E-04
 0.59279999E+02 -0.48317E-04
 0.59330002E+02 -0.44308E-04
 0.59380001E+02 -0.32516E-04
 0.59430000E+02 -0.25065E-04
 0.59480000E+02 -0.25173E-04
 0.59529999E+02 -0.29335E-04
 0.59580002E+02 -0.27909E-04
 0.59630001E+02 -0.14709E-04
 0.59680000E+02  0.40986E-05
 0.59730000E+02  0.19839E-04
 0.59779999E+02  0.33523E-04
 0.59830002E+02  0.46451E-04
 0.59880001E+02  0.52371E-04
 0.59930000E+02  0.48705E-04
 0.59980000E+02  0.39912E-04
