-0.20000458E-01 -0.26247E-06
 0.29999543E-01  0.76868E-08
 0.79999544E-01 -0.21995E-06
 0.12999955E+00 -0.16030E-07
 0.17999955E+00  0.24178E-06
 0.22999954E+00  0.36754E-07
 0.27999955E+00  0.22142E-06
 0.32999954E+00  0.10917E-07
 0.37999955E+00  0.15635E-08
 0.42999956E+00  0.29903E-06
 0.47999954E+00 -0.98820E-07
 0.52999955E+00 -0.71100E-07
 0.57999957E+00  0.22415E-06
 0.62999958E+00 -0.21287E-06
 0.67999953E+00  0.93723E-07
 0.72999954E+00  0.86271E-07
 0.77999955E+00 -0.34641E-06
 0.82999957E+00  0.12132E-06
 0.87999958E+00 -0.34206E-06
 0.92999953E+00  0.45553E-07
 0.97999954E+00  0.27418E-06
 0.10299996E+01 -0.30828E-06
 0.10799996E+01  0.97963E-08
 0.11299995E+01  0.31569E-07
 0.11799996E+01  0.35038E-07
 0.12299995E+01  0.26174E-08
 0.12799996E+01 -0.17476E-06
 0.13299996E+01 -0.23409E-07
 0.13799995E+01 -0.16771E-07
 0.14299996E+01 -0.24131E-08
 0.14799995E+01  0.24095E-06
 0.15299996E+01 -0.12049E-06
 0.15799996E+01 -0.14407E-06
 0.16299995E+01  0.20692E-07
 0.16799996E+01 -0.37643E-07
 0.17299995E+01  0.60865E-07
 0.17799996E+01 -0.12754E-06
 0.18299996E+01 -0.35203E-07
 0.18799995E+01  0.29025E-06
 0.19299996E+01 -0.38414E-07
 0.19799995E+01 -0.32052E-06
 0.20299995E+01  0.46412E-06
 0.20799997E+01  0.15706E-07
 0.21299996E+01 -0.13309E-06
 0.21799996E+01  0.47411E-06
 0.22299995E+01 -0.22817E-06
 0.22799995E+01  0.28515E-06
 0.23299997E+01  0.69022E-07
 0.23799996E+01 -0.12607E-06
 0.24299996E+01  0.43377E-06
 0.24799995E+01 -0.31077E-06
 0.25299995E+01 -0.55460E-07
 0.25799997E+01  0.27269E-06
 0.26299996E+01 -0.87849E-07
 0.26799996E+01 -0.12183E-06
 0.27299995E+01  0.22188E-06
 0.27799995E+01 -0.28495E-06
 0.28299997E+01 -0.82986E-07
 0.28799996E+01  0.27046E-06
 0.29299996E+01 -0.47793E-06
 0.29799995E+01  0.10585E-06
 0.30299995E+01 -0.19552E-06
 0.30799997E+01 -0.95755E-07
 0.31299996E+01  0.19237E-06
 0.31799996E+01 -0.19335E-06
 0.32299995E+01  0.25307E-08
 0.32799995E+01 -0.11396E-06
 0.33299997E+01  0.28005E-06
 0.33799996E+01 -0.22028E-06
 0.34299996E+01 -0.15344E-06
 0.34799995E+01  0.22127E-06
 0.35299995E+01 -0.15103E-06
 0.35799997E+01 -0.47704E-09
 0.36299996E+01  0.67871E-07
 0.36799996E+01  0.12350E-07
 0.37299995E+01 -0.10722E-07
 0.37799995E+01  0.15519E-06
 0.38299997E+01 -0.53268E-07
 0.38799996E+01  0.75947E-07
 0.39299996E+01 -0.89599E-07
 0.39799995E+01 -0.12332E-06
 0.40299997E+01  0.23580E-06
 0.40799994E+01 -0.28430E-08
 0.41299996E+01 -0.82455E-07
 0.41799998E+01 -0.95456E-07
 0.42299995E+01  0.63827E-07
 0.42799997E+01 -0.14433E-06
 0.43299994E+01  0.40144E-07
 0.43799996E+01  0.24356E-06
 0.44299998E+01 -0.20100E-06
 0.44799995E+01 -0.84416E-07
 0.45299997E+01  0.20524E-06
 0.45799994E+01  0.80076E-07
 0.46299996E+01 -0.11923E-06
 0.46799998E+01 -0.14262E-07
 0.47299995E+01 -0.19006E-07
 0.47799997E+01  0.21583E-06
 0.48299994E+01  0.29989E-07
 0.48799996E+01  0.40891E-07
 0.49299998E+01  0.33228E-06
 0.49799995E+01 -0.32362E-06
 0.50299997E+01  0.26213E-06
 0.50799994E+01 -0.14244E-06
 0.51299996E+01 -0.16168E-06
 0.51799998E+01  0.65784E-06
 0.52299995E+01 -0.31416E-06
 0.52799997E+01  0.20099E-06
 0.53299994E+01 -0.22644E-06
 0.53799996E+01 -0.81305E-07
 0.54299998E+01  0.24551E-06
 0.54799995E+01 -0.54144E-06
 0.55299997E+01  0.73644E-07
 0.55799994E+01 -0.68576E-07
 0.56299996E+01  0.14534E-06
 0.56799998E+01 -0.25556E-06
 0.57299995E+01 -0.20805E-06
 0.57799997E+01  0.32616E-06
 0.58299994E+01 -0.22484E-06
 0.58799996E+01  0.34691E-07
 0.59299998E+01 -0.18099E-07
 0.59799995E+01 -0.20648E-06
 0.60299997E+01  0.17955E-07
 0.60799994E+01 -0.71520E-07
 0.61299996E+01 -0.26074E-07
 0.61799998E+01  0.30633E-07
 0.62299995E+01 -0.15350E-06
 0.62799997E+01  0.59045E-07
 0.63299994E+01  0.10945E-06
 0.63799996E+01 -0.12763E-06
 0.64299998E+01 -0.21549E-07
 0.64799995E+01  0.18390E-06
 0.65299997E+01 -0.39701E-07
 0.65799994E+01 -0.41852E-07
 0.66299996E+01  0.33057E-06
 0.66799998E+01  0.51469E-07
 0.67299995E+01 -0.60445E-07
 0.67799997E+01  0.70388E-07
 0.68299994E+01  0.12318E-06
 0.68799996E+01  0.32381E-06
 0.69299998E+01 -0.60459E-08
 0.69799995E+01 -0.17294E-06
 0.70299997E+01  0.13101E-06
 0.70799994E+01 -0.59793E-07
 0.71299996E+01  0.22384E-07
 0.71799998E+01  0.70107E-07
 0.72299995E+01 -0.11819E-06
 0.72799997E+01  0.13740E-06
 0.73299994E+01 -0.81746E-07
 0.73799996E+01 -0.73283E-07
 0.74299998E+01  0.70531E-07
 0.74799995E+01 -0.10352E-06
 0.75299997E+01 -0.31759E-07
 0.75799994E+01  0.47852E-07
 0.76299996E+01 -0.83588E-07
 0.76799998E+01 -0.74431E-07
 0.77299995E+01  0.15427E-06
 0.77799997E+01 -0.19170E-06
 0.78299994E+01 -0.66602E-08
 0.78799996E+01  0.19611E-06
 0.79299998E+01 -0.18737E-06
 0.79799995E+01 -0.66917E-07
 0.80299997E+01 -0.53524E-07
 0.80799999E+01  0.96242E-07
 0.81300001E+01  0.64796E-07
 0.81799994E+01 -0.15435E-06
 0.82299995E+01 -0.13128E-07
 0.82799997E+01 -0.14711E-06
 0.83299999E+01 -0.18819E-06
 0.83800001E+01  0.26214E-06
 0.84299994E+01 -0.52224E-07
 0.84799995E+01 -0.22856E-06
 0.85299997E+01  0.22541E-06
 0.85799999E+01 -0.20582E-06
 0.86300001E+01  0.10711E-06
 0.86799994E+01  0.18899E-06
 0.87299995E+01 -0.13536E-06
 0.87799997E+01  0.27825E-06
 0.88299999E+01 -0.12620E-06
 0.88800001E+01 -0.17355E-07
 0.89299994E+01  0.16765E-06
 0.89799995E+01 -0.27189E-06
 0.90299997E+01  0.11543E-06
 0.90799999E+01  0.29249E-06
 0.91300001E+01 -0.17529E-06
 0.91799994E+01 -0.72879E-07
 0.92299995E+01  0.18487E-06
 0.92799997E+01 -0.90814E-07
 0.93299999E+01  0.57188E-07
 0.93800001E+01 -0.12836E-07
 0.94299994E+01 -0.20791E-06
 0.94799995E+01  0.22839E-06
 0.95299997E+01 -0.32168E-07
 0.95799999E+01  0.84220E-07
 0.96300001E+01  0.60981E-07
 0.96799994E+01 -0.18284E-06
 0.97299995E+01  0.12749E-06
 0.97799997E+01 -0.78439E-07
 0.98299999E+01  0.20203E-07
 0.98800001E+01 -0.78904E-07
 0.99299994E+01  0.65206E-07
 0.99799995E+01  0.20492E-06
 0.10030000E+02 -0.51400E-07
 0.10080000E+02 -0.14481E-06
 0.10130000E+02 -0.26431E-06
 0.10179999E+02  0.15536E-06
 0.10230000E+02  0.10568E-07
 0.10280000E+02 -0.32613E-07
 0.10330000E+02  0.13768E-06
 0.10380000E+02 -0.18036E-06
 0.10429999E+02 -0.57757E-08
 0.10480000E+02  0.56923E-07
 0.10530000E+02 -0.43120E-07
 0.10580000E+02  0.89956E-07
 0.10630000E+02  0.81239E-08
 0.10679999E+02 -0.14374E-07
 0.10730000E+02  0.13111E-06
 0.10780000E+02 -0.58273E-07
 0.10830000E+02 -0.39594E-08
 0.10880000E+02  0.10082E-06
 0.10929999E+02 -0.72045E-07
 0.10980000E+02  0.70984E-08
 0.11030000E+02 -0.12455E-06
 0.11080000E+02 -0.46585E-07
 0.11130000E+02  0.22560E-06
 0.11179999E+02  0.43840E-07
 0.11230000E+02  0.17302E-08
 0.11280000E+02 -0.38944E-07
 0.11330000E+02 -0.51557E-07
 0.11380000E+02 -0.64656E-07
 0.11429999E+02 -0.12914E-06
 0.11480000E+02  0.55538E-07
 0.11530000E+02 -0.23858E-07
 0.11580000E+02 -0.87583E-07
 0.11630000E+02  0.73948E-07
 0.11679999E+02 -0.11567E-06
 0.11730000E+02 -0.16274E-06
 0.11780000E+02  0.15756E-06
 0.11830000E+02 -0.69848E-07
 0.11880000E+02 -0.42174E-07
 0.11929999E+02  0.32473E-06
 0.11980000E+02 -0.20010E-08
 0.12030000E+02 -0.16603E-06
 0.12080000E+02 -0.59759E-10
 0.12130000E+02  0.13663E-06
 0.12179999E+02  0.10390E-06
 0.12230000E+02 -0.59527E-07
 0.12280000E+02  0.10862E-06
 0.12330000E+02 -0.19461E-07
 0.12380000E+02 -0.55479E-07
 0.12429999E+02 -0.47463E-07
 0.12480000E+02 -0.27767E-07
 0.12530000E+02  0.13312E-06
 0.12580000E+02 -0.20490E-06
 0.12630000E+02  0.14306E-06
 0.12679999E+02 -0.31492E-06
 0.12730000E+02 -0.10628E-06
 0.12780000E+02  0.50559E-06
 0.12830000E+02 -0.41029E-06
 0.12880000E+02 -0.23316E-07
 0.12929999E+02 -0.28418E-08
 0.12980000E+02 -0.82191E-07
 0.13030000E+02  0.33076E-07
 0.13080000E+02 -0.23378E-07
 0.13130000E+02  0.23912E-06
 0.13179999E+02 -0.13138E-06
 0.13230000E+02 -0.83507E-07
 0.13280000E+02  0.10590E-06
 0.13330000E+02  0.21119E-07
 0.13380000E+02  0.36668E-07
 0.13429999E+02  0.39317E-07
 0.13480000E+02 -0.78327E-07
 0.13530000E+02  0.33874E-06
 0.13580000E+02  0.56183E-07
 0.13630000E+02 -0.84190E-07
 0.13679999E+02  0.45246E-06
 0.13730000E+02 -0.35818E-06
 0.13780000E+02  0.42366E-07
 0.13830000E+02  0.16216E-06
 0.13880000E+02 -0.37804E-06
 0.13929999E+02  0.37183E-06
 0.13980000E+02  0.94745E-07
 0.14030000E+02 -0.27997E-06
 0.14080000E+02 -0.14209E-06
 0.14130000E+02  0.11055E-06
 0.14179999E+02 -0.19607E-07
 0.14230000E+02 -0.90762E-07
 0.14280000E+02  0.19001E-06
 0.14330000E+02 -0.17240E-06
 0.14380000E+02 -0.12399E-06
 0.14429999E+02  0.12352E-06
 0.14480000E+02  0.90906E-07
 0.14530000E+02 -0.96077E-07
 0.14580000E+02 -0.27637E-07
 0.14630000E+02 -0.15343E-07
 0.14679999E+02 -0.94161E-07
 0.14730000E+02  0.93234E-07
 0.14780000E+02 -0.10085E-06
 0.14830000E+02  0.52049E-08
 0.14880000E+02  0.22270E-07
 0.14929999E+02 -0.98686E-07
 0.14980000E+02 -0.31856E-07
 0.15030000E+02  0.11576E-07
 0.15080000E+02  0.23108E-06
 0.15130000E+02  0.75280E-08
 0.15179999E+02 -0.17863E-06
 0.15230000E+02  0.79840E-08
 0.15280000E+02  0.82464E-07
 0.15330000E+02 -0.45499E-07
 0.15380000E+02 -0.82929E-07
 0.15429999E+02  0.90716E-07
 0.15480000E+02  0.19360E-06
 0.15530000E+02  0.63790E-07
 0.15580000E+02 -0.13799E-06
 0.15630000E+02 -0.86018E-07
 0.15679999E+02 -0.19116E-07
 0.15730000E+02  0.79838E-07
 0.15780000E+02 -0.66833E-07
 0.15830000E+02 -0.91868E-07
 0.15880000E+02  0.11989E-06
 0.15929999E+02 -0.16695E-06
 0.15980000E+02  0.89444E-07
 0.16030001E+02  0.60082E-07
 0.16080000E+02 -0.33799E-06
 0.16129999E+02  0.72472E-07
 0.16180000E+02 -0.87054E-08
 0.16230000E+02 -0.36195E-07
 0.16280001E+02 -0.16700E-07
 0.16330000E+02 -0.12700E-06
 0.16379999E+02  0.27880E-06
 0.16430000E+02 -0.10485E-06
 0.16480000E+02 -0.19009E-06
 0.16530001E+02  0.25594E-06
 0.16580000E+02  0.10883E-06
 0.16629999E+02 -0.68272E-07
 0.16680000E+02 -0.16021E-07
 0.16730000E+02  0.22091E-06
 0.16780001E+02  0.79774E-07
 0.16830000E+02  0.14439E-06
 0.16879999E+02 -0.21968E-06
 0.16930000E+02  0.63034E-07
 0.16980000E+02  0.25759E-06
 0.17030001E+02 -0.49419E-06
 0.17080000E+02  0.26419E-06
 0.17129999E+02  0.25945E-06
 0.17180000E+02 -0.61265E-07
 0.17230000E+02  0.59067E-07
 0.17280001E+02 -0.63471E-07
 0.17330000E+02 -0.18829E-06
 0.17379999E+02 -0.12271E-06
 0.17430000E+02  0.28851E-06
 0.17480000E+02 -0.25200E-07
 0.17530001E+02 -0.15793E-06
 0.17580000E+02  0.38217E-07
 0.17629999E+02 -0.60286E-07
 0.17680000E+02  0.60434E-07
 0.17730000E+02  0.19627E-06
 0.17780001E+02 -0.11356E-06
 0.17830000E+02 -0.11057E-06
 0.17879999E+02 -0.13916E-06
 0.17930000E+02  0.78891E-07
 0.17980000E+02  0.10019E-06
 0.18030001E+02 -0.14884E-06
 0.18080000E+02  0.11363E-07
 0.18129999E+02  0.22876E-07
 0.18180000E+02  0.17087E-06
 0.18230000E+02 -0.17369E-06
 0.18280001E+02 -0.15750E-06
 0.18330000E+02 -0.10322E-07
 0.18379999E+02 -0.16960E-07
 0.18430000E+02 -0.36567E-07
 0.18480000E+02  0.69583E-07
 0.18530001E+02  0.15197E-06
 0.18580000E+02 -0.37878E-06
 0.18629999E+02  0.87147E-07
 0.18680000E+02  0.16848E-06
 0.18730000E+02 -0.76983E-07
 0.18780001E+02 -0.53155E-07
 0.18830000E+02 -0.47132E-07
 0.18879999E+02  0.14992E-06
 0.18930000E+02 -0.15075E-06
 0.18980000E+02  0.74770E-07
 0.19030001E+02  0.21301E-06
 0.19080000E+02 -0.18456E-06
 0.19129999E+02 -0.15336E-06
 0.19180000E+02  0.20088E-06
 0.19230000E+02  0.38303E-07
 0.19280001E+02  0.82955E-07
 0.19330000E+02 -0.12386E-06
 0.19379999E+02 -0.15543E-06
 0.19430000E+02  0.31109E-06
 0.19480000E+02 -0.26022E-06
 0.19530001E+02  0.16022E-06
 0.19580000E+02  0.97495E-07
 0.19629999E+02 -0.12127E-06
 0.19680000E+02  0.16875E-06
 0.19730000E+02 -0.14543E-06
 0.19780001E+02  0.38812E-06
 0.19830000E+02 -0.62431E-07
 0.19879999E+02 -0.21507E-06
 0.19930000E+02 -0.14381E-07
 0.19980000E+02  0.29145E-07
 0.20030001E+02  0.26799E-06
 0.20080000E+02 -0.25330E-06
 0.20129999E+02 -0.62494E-08
 0.20180000E+02  0.78690E-07
 0.20230000E+02 -0.30324E-07
 0.20280001E+02 -0.99395E-07
 0.20330000E+02  0.15490E-07
 0.20379999E+02  0.39385E-07
 0.20430000E+02 -0.93325E-08
 0.20480000E+02  0.25183E-06
 0.20530001E+02 -0.18700E-06
 0.20580000E+02  0.85323E-07
 0.20629999E+02  0.10011E-07
 0.20680000E+02 -0.44266E-07
 0.20730000E+02  0.21733E-06
 0.20780001E+02 -0.26143E-06
 0.20830000E+02 -0.96661E-07
 0.20879999E+02  0.30703E-07
 0.20930000E+02  0.10634E-06
 0.20980000E+02 -0.33007E-08
 0.21030001E+02 -0.12468E-06
 0.21080000E+02 -0.51262E-07
 0.21129999E+02 -0.13136E-06
 0.21180000E+02 -0.66737E-07
 0.21230000E+02 -0.87174E-07
 0.21280001E+02 -0.57468E-07
 0.21330000E+02  0.75821E-08
 0.21379999E+02  0.39939E-07
 0.21430000E+02 -0.15101E-06
 0.21480000E+02 -0.35146E-08
 0.21530001E+02  0.72268E-07
 0.21580000E+02  0.27926E-07
 0.21629999E+02  0.47777E-07
 0.21680000E+02 -0.16058E-06
 0.21730000E+02  0.23357E-06
 0.21780001E+02  0.13137E-06
 0.21830000E+02  0.73572E-07
 0.21879999E+02  0.10301E-06
 0.21930000E+02 -0.33401E-06
 0.21980000E+02 -0.11569E-05
 0.22030001E+02 -0.34001E-05
 0.22080000E+02 -0.67433E-05
 0.22129999E+02 -0.12291E-04
 0.22180000E+02 -0.19038E-04
 0.22230000E+02 -0.24485E-04
 0.22280001E+02 -0.27150E-04
 0.22330000E+02 -0.29109E-04
 0.22379999E+02 -0.25670E-04
 0.22430000E+02 -0.70609E-05
 0.22480000E+02  0.23587E-04
 0.22530001E+02  0.55608E-04
 0.22580000E+02  0.76957E-04
 0.22629999E+02  0.85594E-04
 0.22680000E+02  0.83323E-04
 0.22730000E+02  0.67074E-04
 0.22780001E+02  0.20443E-04
 0.22830000E+02 -0.42074E-04
 0.22879999E+02 -0.73372E-04
 0.22930000E+02 -0.78898E-04
 0.22980000E+02 -0.68990E-04
 0.23030001E+02 -0.40433E-04
 0.23080000E+02 -0.12984E-05
 0.23129999E+02  0.91440E-05
 0.23180000E+02 -0.47841E-05
 0.23230000E+02  0.15777E-04
 0.23280001E+02  0.11946E-04
 0.23330000E+02 -0.19681E-05
 0.23379999E+02  0.34913E-05
 0.23430000E+02  0.12395E-05
 0.23480000E+02  0.33104E-04
 0.23530001E+02  0.27949E-04
 0.23580000E+02  0.12835E-04
 0.23629999E+02  0.13204E-04
 0.23680000E+02 -0.34099E-04
 0.23730000E+02 -0.44786E-04
 0.23780001E+02 -0.23618E-05
 0.23830000E+02 -0.79311E-06
 0.23879999E+02 -0.13113E-04
 0.23930000E+02  0.87461E-05
 0.23980000E+02 -0.17137E-04
 0.24030001E+02  0.53435E-05
 0.24080000E+02  0.38527E-04
 0.24129999E+02 -0.33749E-04
 0.24180000E+02 -0.33948E-04
 0.24230000E+02  0.21782E-04
 0.24280001E+02  0.59659E-04
 0.24330000E+02  0.53115E-04
 0.24379999E+02  0.15672E-04
 0.24430000E+02  0.25052E-04
 0.24480000E+02  0.19385E-04
 0.24530001E+02 -0.25144E-04
 0.24580000E+02 -0.78860E-04
 0.24629999E+02 -0.78044E-04
 0.24680000E+02 -0.52371E-04
 0.24730000E+02 -0.64776E-04
 0.24780001E+02 -0.12928E-04
 0.24830000E+02  0.33303E-04
 0.24879999E+02  0.83465E-05
 0.24930000E+02  0.28147E-04
 0.24980000E+02  0.63967E-04
 0.25030001E+02  0.75805E-04
 0.25080000E+02  0.47828E-04
 0.25129999E+02 -0.40591E-05
 0.25180000E+02 -0.98107E-05
 0.25230000E+02 -0.35473E-04
 0.25280001E+02 -0.66905E-04
 0.25330000E+02 -0.49945E-04
 0.25379999E+02 -0.61015E-04
 0.25430000E+02 -0.29178E-04
 0.25480000E+02  0.36471E-04
 0.25530001E+02  0.59123E-04
 0.25580000E+02  0.81197E-04
 0.25629999E+02  0.40771E-04
 0.25680000E+02  0.21504E-04
 0.25730000E+02  0.34429E-04
 0.25780001E+02 -0.11139E-04
 0.25830000E+02 -0.47558E-04
 0.25879999E+02 -0.63741E-04
 0.25930000E+02 -0.29576E-04
 0.25980000E+02  0.39119E-04
 0.26030001E+02  0.60274E-04
 0.26080000E+02  0.19300E-04
 0.26129999E+02 -0.13517E-05
 0.26180000E+02  0.27051E-04
 0.26230000E+02  0.33953E-04
 0.26280001E+02  0.47588E-05
 0.26330000E+02 -0.90926E-05
 0.26379999E+02  0.84753E-05
 0.26430000E+02  0.10719E-04
 0.26480000E+02 -0.17213E-04
 0.26530001E+02 -0.51740E-04
 0.26580000E+02 -0.80570E-04
 0.26629999E+02 -0.10102E-03
 0.26680000E+02 -0.63680E-04
 0.26730000E+02 -0.16921E-04
 0.26780001E+02 -0.70383E-05
 0.26830000E+02  0.28774E-05
 0.26879999E+02  0.39674E-04
 0.26930000E+02  0.84079E-04
 0.26980000E+02  0.69611E-04
 0.27030001E+02  0.28899E-04
 0.27080000E+02 -0.69103E-05
 0.27129999E+02 -0.28018E-04
 0.27180000E+02 -0.38418E-04
 0.27230000E+02 -0.28740E-04
 0.27280001E+02 -0.19900E-04
 0.27330000E+02  0.12562E-04
 0.27379999E+02  0.93143E-04
 0.27430000E+02  0.87878E-04
 0.27480000E+02  0.57802E-05
 0.27530001E+02 -0.60771E-04
 0.27580000E+02 -0.57037E-04
 0.27629999E+02 -0.59673E-05
 0.27680000E+02  0.33704E-05
 0.27730000E+02 -0.22956E-04
 0.27780001E+02 -0.24182E-04
 0.27830000E+02  0.31378E-04
 0.27879999E+02  0.10256E-03
 0.27930000E+02  0.10149E-03
 0.27980000E+02  0.31410E-04
 0.28030001E+02 -0.24267E-04
 0.28080000E+02 -0.51970E-04
 0.28129999E+02 -0.51141E-04
 0.28180000E+02 -0.84287E-04
 0.28230000E+02 -0.10767E-03
 0.28280001E+02 -0.48948E-04
 0.28330000E+02  0.22304E-05
 0.28379999E+02  0.23153E-04
 0.28430000E+02 -0.16279E-05
 0.28480000E+02  0.14912E-04
 0.28530001E+02  0.86176E-04
 0.28580000E+02  0.11497E-03
 0.28629999E+02  0.89984E-04
 0.28680000E+02  0.11318E-04
 0.28730000E+02 -0.25299E-04
 0.28780001E+02 -0.26114E-04
 0.28830000E+02 -0.41959E-04
 0.28879999E+02 -0.51486E-04
 0.28930000E+02 -0.47197E-04
 0.28980000E+02 -0.40865E-04
 0.29030001E+02 -0.68044E-04
 0.29080000E+02 -0.63363E-04
 0.29129999E+02 -0.46163E-04
 0.29180000E+02 -0.23566E-04
 0.29230000E+02  0.62386E-04
 0.29280001E+02  0.10706E-03
 0.29330000E+02  0.81526E-04
 0.29379999E+02  0.74696E-04
 0.29430000E+02  0.10605E-03
 0.29480000E+02  0.77725E-04
 0.29530001E+02 -0.76415E-05
 0.29580000E+02 -0.58944E-04
 0.29629999E+02 -0.51967E-04
 0.29680000E+02 -0.43209E-04
 0.29730000E+02 -0.71644E-04
 0.29780001E+02 -0.60879E-04
 0.29830000E+02 -0.32918E-04
 0.29879999E+02 -0.10800E-04
 0.29930000E+02 -0.17776E-04
 0.29980000E+02 -0.46560E-04
 0.30030001E+02 -0.11091E-04
 0.30080000E+02  0.38982E-04
 0.30129999E+02  0.34718E-04
 0.30180000E+02  0.20721E-04
 0.30230000E+02  0.48375E-04
 0.30280001E+02  0.56584E-04
 0.30330000E+02  0.10060E-04
 0.30379999E+02 -0.41139E-04
 0.30430000E+02 -0.37569E-04
 0.30480000E+02  0.91965E-05
 0.30530001E+02  0.62818E-04
 0.30580000E+02  0.73520E-04
 0.30629999E+02  0.10216E-04
 0.30680000E+02 -0.17532E-04
 0.30730000E+02  0.79033E-05
 0.30780001E+02 -0.19533E-04
 0.30830000E+02 -0.92475E-04
 0.30879999E+02 -0.91096E-04
 0.30930000E+02 -0.22456E-04
 0.30980000E+02  0.31802E-04
 0.31030001E+02  0.42663E-04
 0.31080000E+02  0.32851E-05
 0.31129999E+02 -0.28732E-04
 0.31180000E+02 -0.30839E-04
 0.31230000E+02 -0.47903E-04
 0.31280001E+02 -0.49092E-04
 0.31330000E+02  0.29277E-04
 0.31379999E+02  0.10865E-03
 0.31430000E+02  0.12221E-03
 0.31480000E+02  0.72685E-04
 0.31530001E+02  0.28180E-04
 0.31580000E+02  0.24455E-05
 0.31629999E+02 -0.57909E-04
 0.31680000E+02 -0.34378E-04
 0.31730000E+02  0.25040E-04
 0.31780001E+02 -0.49728E-05
 0.31830000E+02 -0.69159E-04
 0.31879999E+02 -0.10689E-03
 0.31930000E+02 -0.12098E-03
 0.31980000E+02 -0.12142E-03
 0.32029999E+02 -0.29581E-04
 0.32080002E+02  0.10098E-03
 0.32130001E+02  0.14937E-03
 0.32180000E+02  0.13928E-03
 0.32230000E+02  0.11829E-03
 0.32279999E+02  0.80567E-04
 0.32330002E+02  0.58445E-04
 0.32380001E+02  0.27110E-04
 0.32430000E+02 -0.38824E-04
 0.32480000E+02 -0.74042E-04
 0.32529999E+02 -0.86954E-04
 0.32580002E+02 -0.74217E-04
 0.32630001E+02 -0.97453E-04
 0.32680000E+02 -0.14592E-03
 0.32730000E+02 -0.11886E-03
 0.32779999E+02 -0.61763E-04
 0.32830002E+02 -0.10585E-04
 0.32880001E+02  0.71824E-04
 0.32930000E+02  0.15897E-03
 0.32980000E+02  0.16878E-03
 0.33029999E+02  0.11147E-03
 0.33080002E+02  0.58432E-04
 0.33130001E+02  0.17001E-04
 0.33180000E+02 -0.18416E-04
 0.33230000E+02 -0.27938E-04
 0.33279999E+02 -0.45648E-04
 0.33330002E+02 -0.44317E-04
 0.33380001E+02 -0.49985E-04
 0.33430000E+02 -0.91995E-04
 0.33480000E+02 -0.75404E-04
 0.33529999E+02 -0.10676E-04
 0.33580002E+02  0.28468E-04
 0.33630001E+02  0.26918E-04
 0.33680000E+02  0.28528E-04
 0.33730000E+02  0.22964E-04
 0.33779999E+02  0.11025E-04
 0.33830002E+02  0.32570E-04
 0.33880001E+02  0.31932E-04
 0.33930000E+02 -0.11907E-04
 0.33980000E+02  0.94493E-06
 0.34029999E+02  0.34810E-04
 0.34080002E+02  0.28768E-04
 0.34130001E+02  0.34832E-04
 0.34180000E+02  0.47659E-04
 0.34230000E+02  0.29158E-04
 0.34279999E+02 -0.82450E-04
 0.34330002E+02 -0.15926E-03
 0.34380001E+02 -0.11963E-03
 0.34430000E+02 -0.70853E-04
 0.34480000E+02 -0.14010E-04
 0.34529999E+02  0.37549E-04
 0.34580002E+02  0.52187E-04
 0.34630001E+02  0.39812E-04
 0.34680000E+02  0.58368E-04
 0.34730000E+02  0.87865E-04
 0.34779999E+02  0.92674E-04
 0.34830002E+02  0.92226E-04
 0.34880001E+02  0.39806E-04
 0.34930000E+02 -0.18671E-04
 0.34980000E+02 -0.61292E-04
 0.35029999E+02 -0.89641E-04
 0.35080002E+02 -0.75629E-04
 0.35130001E+02 -0.67286E-04
 0.35180000E+02 -0.37434E-04
 0.35230000E+02  0.19480E-04
 0.35279999E+02  0.49129E-04
 0.35330002E+02  0.40534E-04
 0.35380001E+02  0.20981E-04
 0.35430000E+02  0.37150E-05
 0.35480000E+02 -0.24424E-04
 0.35529999E+02 -0.22683E-04
 0.35580002E+02 -0.71329E-05
 0.35630001E+02 -0.13013E-04
 0.35680000E+02  0.63494E-05
 0.35730000E+02  0.21777E-04
 0.35779999E+02  0.74921E-05
 0.35830002E+02 -0.17747E-04
 0.35880001E+02 -0.35282E-04
 0.35930000E+02 -0.10073E-04
 0.35980000E+02  0.28783E-04
 0.36029999E+02  0.41861E-04
 0.36080002E+02  0.33540E-04
 0.36130001E+02  0.43267E-04
 0.36180000E+02  0.45540E-04
 0.36230000E+02  0.28560E-05
 0.36279999E+02 -0.71461E-04
 0.36330002E+02 -0.10932E-03
 0.36380001E+02 -0.79413E-04
 0.36430000E+02 -0.34633E-04
 0.36480000E+02  0.16057E-04
 0.36529999E+02  0.62987E-04
 0.36580002E+02  0.10995E-03
 0.36630001E+02  0.89851E-04
 0.36680000E+02  0.19346E-04
 0.36730000E+02  0.35442E-05
 0.36779999E+02  0.84069E-05
 0.36830002E+02 -0.25871E-04
 0.36880001E+02 -0.53368E-04
 0.36930000E+02 -0.27583E-04
 0.36980000E+02 -0.45980E-04
 0.37029999E+02 -0.53574E-04
 0.37080002E+02 -0.21039E-05
 0.37130001E+02  0.17343E-04
 0.37180000E+02  0.19481E-04
 0.37230000E+02 -0.42867E-05
 0.37279999E+02 -0.52292E-04
 0.37330002E+02 -0.79774E-04
 0.37380001E+02 -0.44584E-04
 0.37430000E+02  0.32824E-04
 0.37480000E+02  0.58354E-04
 0.37529999E+02  0.24262E-04
 0.37580002E+02  0.74121E-05
 0.37630001E+02  0.42041E-04
 0.37680000E+02  0.68666E-04
 0.37730000E+02  0.54338E-04
 0.37779999E+02  0.56818E-04
 0.37830002E+02  0.23069E-04
 0.37880001E+02 -0.24069E-04
 0.37930000E+02  0.73349E-05
 0.37980000E+02  0.26224E-04
 0.38029999E+02  0.48884E-04
 0.38080002E+02  0.43896E-04
 0.38130001E+02 -0.23943E-04
 0.38180000E+02 -0.63562E-04
 0.38230000E+02 -0.10245E-03
 0.38279999E+02 -0.87023E-04
 0.38330002E+02 -0.17464E-04
 0.38380001E+02 -0.85166E-06
 0.38430000E+02  0.20379E-04
 0.38480000E+02  0.75551E-04
 0.38529999E+02  0.90779E-04
 0.38580002E+02  0.81251E-04
 0.38630001E+02  0.60699E-04
 0.38680000E+02  0.58219E-05
 0.38730000E+02 -0.29679E-04
 0.38779999E+02 -0.19543E-04
 0.38830002E+02  0.27508E-04
 0.38880001E+02  0.52112E-04
 0.38930000E+02 -0.44170E-06
 0.38980000E+02 -0.58162E-04
 0.39029999E+02 -0.12658E-03
 0.39080002E+02 -0.25279E-03
 0.39130001E+02 -0.33452E-03
 0.39180000E+02 -0.28358E-03
 0.39230000E+02 -0.16150E-03
 0.39279999E+02 -0.23369E-04
 0.39330002E+02  0.13422E-03
 0.39380001E+02  0.29003E-03
 0.39430000E+02  0.37306E-03
 0.39480000E+02  0.33585E-03
 0.39529999E+02  0.22059E-03
 0.39580002E+02  0.52820E-04
 0.39630001E+02 -0.13596E-03
 0.39680000E+02 -0.23450E-03
 0.39730000E+02 -0.23395E-03
 0.39779999E+02 -0.20612E-03
 0.39830002E+02 -0.12998E-03
 0.39880001E+02 -0.41164E-04
 0.39930000E+02  0.24089E-04
 0.39980000E+02  0.79520E-04
 0.40029999E+02  0.12308E-03
 0.40080002E+02  0.14496E-03
 0.40130001E+02  0.10550E-03
 0.40180000E+02  0.56961E-04
 0.40230000E+02  0.17928E-04
 0.40279999E+02  0.13469E-04
 0.40330002E+02  0.82959E-04
 0.40380001E+02  0.57064E-04
 0.40430000E+02 -0.69190E-04
 0.40480000E+02 -0.92150E-04
 0.40529999E+02 -0.94684E-05
 0.40580002E+02  0.29350E-04
 0.40630001E+02  0.11566E-04
 0.40680000E+02  0.57776E-04
 0.40730000E+02  0.86251E-04
 0.40779999E+02  0.10010E-04
 0.40830002E+02 -0.12095E-03
 0.40880001E+02 -0.26429E-03
 0.40930000E+02 -0.29820E-03
 0.40980000E+02 -0.13681E-03
 0.41029999E+02  0.13009E-03
 0.41080002E+02  0.24184E-03
 0.41130001E+02  0.15977E-03
 0.41180000E+02  0.11228E-03
 0.41230000E+02  0.14286E-03
 0.41279999E+02  0.14242E-03
 0.41330002E+02  0.31382E-04
 0.41380001E+02 -0.10413E-03
 0.41430000E+02 -0.11418E-03
 0.41480000E+02 -0.94603E-04
 0.41529999E+02 -0.89536E-04
 0.41580002E+02 -0.68948E-04
 0.41630001E+02 -0.73448E-05
 0.41680000E+02  0.18985E-03
 0.41730000E+02  0.25407E-03
 0.41779999E+02  0.71906E-04
 0.41830002E+02 -0.90836E-04
 0.41880001E+02 -0.13844E-03
 0.41930000E+02 -0.17464E-03
 0.41980000E+02 -0.26696E-03
 0.42029999E+02 -0.26640E-03
 0.42080002E+02 -0.17840E-03
 0.42130001E+02 -0.89943E-04
 0.42180000E+02  0.38173E-04
 0.42230000E+02  0.17024E-03
 0.42279999E+02  0.31877E-03
 0.42330002E+02  0.44375E-03
 0.42380001E+02  0.33644E-03
 0.42430000E+02  0.86070E-04
 0.42480000E+02 -0.14999E-03
 0.42529999E+02 -0.31922E-03
 0.42580002E+02 -0.22372E-03
 0.42630001E+02 -0.34454E-04
 0.42680000E+02  0.69064E-05
 0.42730000E+02  0.21296E-04
 0.42779999E+02  0.13042E-03
 0.42830002E+02  0.17120E-03
 0.42880001E+02  0.60832E-04
 0.42930000E+02  0.56419E-04
 0.42980000E+02  0.13350E-03
 0.43029999E+02  0.10482E-03
 0.43080002E+02 -0.29543E-04
 0.43130001E+02 -0.16835E-03
 0.43180000E+02 -0.24140E-03
 0.43230000E+02 -0.34175E-03
 0.43279999E+02 -0.34703E-03
 0.43330002E+02 -0.24448E-03
 0.43380001E+02 -0.28102E-03
 0.43430000E+02 -0.18736E-03
 0.43480000E+02  0.81201E-04
 0.43529999E+02  0.23807E-03
 0.43580002E+02  0.33580E-03
 0.43630001E+02  0.43031E-03
 0.43680000E+02  0.52729E-03
 0.43730000E+02  0.42554E-03
 0.43779999E+02  0.17806E-03
 0.43830002E+02 -0.23694E-04
 0.43880001E+02 -0.19673E-03
 0.43930000E+02 -0.27236E-03
 0.43980000E+02 -0.29705E-03
 0.44029999E+02 -0.25766E-03
 0.44080002E+02 -0.11671E-03
 0.44130001E+02  0.86202E-04
 0.44180000E+02  0.12574E-03
 0.44230000E+02  0.11616E-04
 0.44279999E+02 -0.15627E-04
 0.44330002E+02 -0.69705E-04
 0.44380001E+02 -0.71072E-04
 0.44430000E+02  0.35077E-04
 0.44480000E+02  0.59079E-04
 0.44529999E+02 -0.44306E-04
 0.44580002E+02 -0.14392E-03
 0.44630001E+02 -0.16765E-04
 0.44680000E+02  0.14159E-03
 0.44730000E+02  0.16356E-03
 0.44779999E+02  0.25645E-03
 0.44830002E+02  0.23116E-03
 0.44880001E+02  0.39404E-04
 0.44930000E+02 -0.87459E-04
 0.44980000E+02 -0.20028E-03
 0.45029999E+02 -0.28672E-03
 0.45080002E+02 -0.22150E-03
 0.45130001E+02 -0.65878E-05
 0.45180000E+02  0.12423E-03
 0.45230000E+02  0.10395E-03
 0.45279999E+02  0.48764E-04
 0.45330002E+02  0.44145E-04
 0.45380001E+02  0.78987E-04
 0.45430000E+02  0.30746E-04
 0.45480000E+02 -0.58998E-04
 0.45529999E+02 -0.13826E-03
 0.45580002E+02 -0.14903E-03
 0.45630001E+02 -0.13007E-03
 0.45680000E+02 -0.10039E-03
 0.45730000E+02  0.15056E-04
 0.45779999E+02  0.86716E-04
 0.45830002E+02  0.18801E-03
 0.45880001E+02  0.29232E-03
 0.45930000E+02  0.20210E-03
 0.45980000E+02  0.98829E-04
 0.46029999E+02  0.54801E-04
 0.46080002E+02 -0.32005E-04
 0.46130001E+02 -0.11133E-03
 0.46180000E+02 -0.12714E-03
 0.46230000E+02 -0.86035E-04
 0.46279999E+02 -0.57053E-04
 0.46330002E+02 -0.86933E-04
 0.46380001E+02 -0.63343E-04
 0.46430000E+02 -0.13226E-05
 0.46480000E+02 -0.27943E-05
 0.46529999E+02  0.28970E-04
 0.46580002E+02  0.41606E-04
 0.46630001E+02 -0.65628E-04
 0.46680000E+02 -0.17497E-03
 0.46730000E+02 -0.16621E-03
 0.46779999E+02 -0.67594E-04
 0.46830002E+02  0.78390E-04
 0.46880001E+02  0.23702E-03
 0.46930000E+02  0.23532E-03
 0.46980000E+02  0.10723E-03
 0.47029999E+02  0.12813E-04
 0.47080002E+02 -0.76442E-04
 0.47130001E+02 -0.17536E-03
 0.47180000E+02 -0.23412E-03
 0.47230000E+02 -0.15444E-03
 0.47279999E+02  0.35937E-05
 0.47330002E+02  0.55681E-04
 0.47380001E+02  0.71857E-05
 0.47430000E+02 -0.70928E-04
 0.47480000E+02 -0.73715E-04
 0.47529999E+02  0.47589E-04
 0.47580002E+02  0.15747E-03
 0.47630001E+02  0.18786E-03
 0.47680000E+02  0.21884E-03
 0.47730000E+02  0.24338E-03
 0.47779999E+02  0.15019E-03
 0.47830002E+02  0.90323E-05
 0.47880001E+02 -0.83784E-04
 0.47930000E+02 -0.12487E-03
 0.47980000E+02 -0.10639E-03
 0.48029999E+02 -0.42983E-04
 0.48080002E+02  0.19413E-04
 0.48130001E+02 -0.52519E-04
 0.48180000E+02 -0.14645E-03
 0.48230000E+02 -0.10510E-03
 0.48279999E+02 -0.49944E-04
 0.48330002E+02 -0.13375E-04
 0.48380001E+02 -0.22536E-04
 0.48430000E+02 -0.73991E-04
 0.48480000E+02 -0.55369E-04
 0.48529999E+02  0.13231E-04
 0.48580002E+02  0.52582E-04
 0.48630001E+02  0.98270E-04
 0.48680000E+02  0.10765E-03
 0.48730000E+02 -0.16238E-04
 0.48779999E+02 -0.11919E-03
 0.48830002E+02 -0.69783E-04
 0.48880001E+02  0.11749E-03
 0.48930000E+02  0.25582E-03
 0.48980000E+02  0.23338E-03
 0.49029999E+02  0.14248E-03
 0.49080002E+02  0.69619E-05
 0.49130001E+02 -0.60554E-04
 0.49180000E+02 -0.74070E-04
 0.49230000E+02 -0.13275E-03
 0.49279999E+02 -0.18358E-03
 0.49330002E+02 -0.22570E-03
 0.49380001E+02 -0.25360E-03
 0.49430000E+02 -0.18294E-03
 0.49480000E+02 -0.36346E-04
 0.49529999E+02  0.14067E-03
 0.49580002E+02  0.24669E-03
 0.49630001E+02  0.17499E-03
 0.49680000E+02  0.79722E-04
 0.49730000E+02  0.36453E-04
 0.49779999E+02  0.25428E-04
 0.49830002E+02  0.14683E-04
 0.49880001E+02 -0.67364E-05
 0.49930000E+02  0.26924E-04
 0.49980000E+02  0.11196E-04
 0.50029999E+02 -0.29906E-04
 0.50080002E+02 -0.79341E-05
 0.50130001E+02  0.37263E-04
 0.50180000E+02  0.11623E-03
 0.50230000E+02  0.14508E-03
 0.50279999E+02  0.87269E-04
 0.50330002E+02  0.20833E-05
 0.50380001E+02 -0.75647E-04
 0.50430000E+02 -0.14938E-03
 0.50480000E+02 -0.24947E-03
 0.50529999E+02 -0.30518E-03
 0.50580002E+02 -0.25480E-03
 0.50630001E+02 -0.11568E-03
 0.50680000E+02  0.19553E-04
 0.50730000E+02  0.75437E-04
 0.50779999E+02  0.83160E-04
 0.50830002E+02  0.99866E-04
 0.50880001E+02  0.11713E-03
 0.50930000E+02  0.12909E-03
 0.50980000E+02  0.14167E-03
 0.51029999E+02  0.82034E-04
 0.51080002E+02  0.66215E-04
 0.51130001E+02  0.54971E-04
 0.51180000E+02 -0.40306E-04
 0.51230000E+02 -0.34089E-04
 0.51279999E+02 -0.21691E-05
 0.51330002E+02  0.15400E-04
 0.51380001E+02  0.34989E-04
 0.51430000E+02  0.39863E-04
 0.51480000E+02  0.89938E-04
 0.51529999E+02  0.56355E-04
 0.51580002E+02 -0.85039E-04
 0.51630001E+02 -0.17610E-03
 0.51680000E+02 -0.14703E-03
 0.51730000E+02 -0.10423E-03
 0.51779999E+02 -0.92092E-04
 0.51830002E+02 -0.63726E-04
 0.51880001E+02 -0.25600E-04
 0.51930000E+02  0.57339E-04
 0.51980000E+02  0.16162E-03
 0.52029999E+02  0.24482E-03
 0.52080002E+02  0.22391E-03
 0.52130001E+02  0.12817E-03
 0.52180000E+02  0.93330E-04
 0.52230000E+02  0.42234E-04
 0.52279999E+02 -0.11611E-03
 0.52330002E+02 -0.30138E-03
 0.52380001E+02 -0.33766E-03
 0.52430000E+02 -0.21702E-03
 0.52480000E+02 -0.59173E-04
 0.52529999E+02  0.88390E-04
 0.52580002E+02  0.18817E-03
 0.52630001E+02  0.20548E-03
 0.52680000E+02  0.16577E-03
 0.52730000E+02  0.96666E-04
 0.52779999E+02 -0.37163E-04
 0.52830002E+02 -0.20095E-03
 0.52880001E+02 -0.28450E-03
 0.52930000E+02 -0.22481E-03
 0.52980000E+02 -0.11001E-03
 0.53029999E+02 -0.10550E-04
 0.53080002E+02  0.14221E-03
 0.53130001E+02  0.25919E-03
 0.53180000E+02  0.25689E-03
 0.53230000E+02  0.18189E-03
 0.53279999E+02  0.72063E-05
 0.53330002E+02 -0.20797E-03
 0.53380001E+02 -0.31915E-03
 0.53430000E+02 -0.24674E-03
 0.53480000E+02 -0.73447E-04
 0.53529999E+02  0.11865E-03
 0.53580002E+02  0.32323E-03
 0.53630001E+02  0.42751E-03
 0.53680000E+02  0.37498E-03
 0.53730000E+02  0.21017E-03
 0.53779999E+02  0.12093E-04
 0.53830002E+02 -0.12421E-03
 0.53880001E+02 -0.17986E-03
 0.53930000E+02 -0.20527E-03
 0.53980000E+02 -0.24528E-03
 0.54029999E+02 -0.25976E-03
 0.54080002E+02 -0.16560E-03
 0.54130001E+02 -0.55312E-04
 0.54180000E+02 -0.32129E-04
 0.54230000E+02 -0.34152E-04
 0.54279999E+02 -0.23696E-04
 0.54330002E+02  0.26812E-04
 0.54380001E+02  0.51115E-04
 0.54430000E+02  0.36713E-04
 0.54480000E+02  0.18173E-04
 0.54529999E+02 -0.12002E-04
 0.54580002E+02  0.25928E-04
 0.54630001E+02  0.67190E-04
 0.54680000E+02  0.61994E-04
 0.54730000E+02  0.42581E-04
 0.54779999E+02  0.48293E-04
 0.54830002E+02  0.97093E-04
 0.54880001E+02  0.99871E-04
 0.54930000E+02  0.59617E-04
 0.54980000E+02  0.36375E-04
 0.55029999E+02  0.25744E-04
 0.55080002E+02 -0.17870E-04
 0.55130001E+02 -0.58528E-04
 0.55180000E+02 -0.76865E-04
 0.55230000E+02 -0.12646E-03
 0.55279999E+02 -0.14031E-03
 0.55330002E+02 -0.10940E-03
 0.55380001E+02 -0.78044E-04
 0.55430000E+02 -0.20787E-04
 0.55480000E+02  0.48361E-04
 0.55529999E+02  0.93379E-04
 0.55580002E+02  0.53849E-04
 0.55630001E+02 -0.78113E-05
 0.55680000E+02  0.29248E-05
 0.55730000E+02  0.67672E-04
 0.55779999E+02  0.14794E-03
 0.55830002E+02  0.16333E-03
 0.55880001E+02  0.13637E-03
 0.55930000E+02  0.12005E-03
 0.55980000E+02  0.11574E-03
 0.56029999E+02  0.93315E-04
 0.56080002E+02  0.11785E-04
 0.56130001E+02 -0.78441E-04
 0.56180000E+02 -0.15855E-03
 0.56230000E+02 -0.20157E-03
 0.56279999E+02 -0.19952E-03
 0.56330002E+02 -0.15364E-03
 0.56380001E+02 -0.50312E-04
 0.56430000E+02  0.22010E-04
 0.56480000E+02  0.35819E-04
 0.56529999E+02 -0.13982E-04
 0.56580002E+02 -0.10673E-03
 0.56630001E+02 -0.14974E-03
 0.56680000E+02 -0.13305E-03
 0.56730000E+02 -0.95925E-04
 0.56779999E+02 -0.39799E-04
 0.56830002E+02  0.61144E-04
 0.56880001E+02  0.17769E-03
 0.56930000E+02  0.25096E-03
 0.56980000E+02  0.23911E-03
 0.57029999E+02  0.16851E-03
 0.57080002E+02  0.11569E-03
 0.57130001E+02  0.71099E-04
 0.57180000E+02 -0.95708E-05
 0.57230000E+02 -0.84408E-04
 0.57279999E+02 -0.13289E-03
 0.57330002E+02 -0.17016E-03
 0.57380001E+02 -0.15707E-03
 0.57430000E+02 -0.12773E-03
 0.57480000E+02 -0.10545E-03
 0.57529999E+02 -0.51912E-04
 0.57580002E+02  0.19223E-04
 0.57630001E+02  0.91045E-04
 0.57680000E+02  0.12866E-03
 0.57730000E+02  0.11972E-03
 0.57779999E+02  0.10571E-03
 0.57830002E+02  0.91084E-04
 0.57880001E+02  0.68315E-04
 0.57930000E+02  0.58496E-04
 0.57980000E+02  0.39443E-04
 0.58029999E+02 -0.26348E-04
 0.58080002E+02 -0.67822E-04
 0.58130001E+02 -0.82757E-04
 0.58180000E+02 -0.14100E-03
 0.58230000E+02 -0.16177E-03
 0.58279999E+02 -0.12408E-03
 0.58330002E+02 -0.78847E-04
 0.58380001E+02 -0.33472E-04
 0.58430000E+02  0.81015E-05
 0.58480000E+02  0.57680E-04
 0.58529999E+02  0.10669E-03
 0.58580002E+02  0.12079E-03
 0.58630001E+02  0.87133E-04
 0.58680000E+02  0.58111E-04
 0.58730000E+02  0.27760E-04
 0.58779999E+02 -0.13979E-04
 0.58830002E+02 -0.31251E-04
 0.58880001E+02 -0.26101E-04
 0.58930000E+02 -0.87053E-06
 0.58980000E+02  0.30209E-04
 0.59029999E+02  0.52705E-04
 0.59080002E+02  0.57182E-04
 0.59130001E+02  0.47447E-04
 0.59180000E+02  0.32365E-04
 0.59230000E+02  0.31678E-05
 0.59279999E+02 -0.43742E-04
 0.59330002E+02 -0.75290E-04
 0.59380001E+02 -0.85940E-04
 0.59430000E+02 -0.10108E-03
 0.59480000E+02 -0.11562E-03
 0.59529999E+02 -0.11894E-03
 0.59580002E+02 -0.69817E-04
 0.59630001E+02  0.24831E-04
 0.59680000E+02  0.10031E-03
 0.59730000E+02  0.14124E-03
 0.59779999E+02  0.15215E-03
 0.59830002E+02  0.13251E-03
 0.59880001E+02  0.85997E-04
 0.59930000E+02  0.35955E-04
 0.59980000E+02  0.14176E-04
 0.60029999E+02 -0.10739E-04
 0.60080002E+02 -0.74726E-04
 0.60130001E+02 -0.12989E-03
 0.60180000E+02 -0.15661E-03
 0.60230000E+02 -0.17499E-03
 0.60279999E+02 -0.16119E-03
 0.60330002E+02 -0.11742E-03
 0.60380001E+02 -0.71902E-04
 0.60430000E+02 -0.12852E-04
 0.60480000E+02  0.60336E-04
 0.60529999E+02  0.11337E-03
 0.60580002E+02  0.15625E-03
 0.60630001E+02  0.18958E-03
 0.60680000E+02  0.18782E-03
 0.60730000E+02  0.16046E-03
 0.60779999E+02  0.11550E-03
 0.60830002E+02  0.76587E-04
 0.60880001E+02  0.43423E-04
 0.60930000E+02  0.12319E-04
 0.60980000E+02 -0.16926E-04
 0.61029999E+02 -0.44962E-04
 0.61080002E+02 -0.60717E-04
 0.61130001E+02 -0.93038E-04
 0.61180000E+02 -0.13024E-03
 0.61230000E+02 -0.15270E-03
 0.61279999E+02 -0.15479E-03
 0.61330002E+02 -0.12925E-03
 0.61380001E+02 -0.10028E-03
 0.61430000E+02 -0.64850E-04
 0.61480000E+02 -0.81442E-07
 0.61529999E+02  0.76625E-04
 0.61580002E+02  0.14091E-03
 0.61630001E+02  0.19348E-03
 0.61680000E+02  0.20248E-03
 0.61730000E+02  0.15367E-03
 0.61779999E+02  0.93044E-04
 0.61830002E+02  0.44472E-04
 0.61880001E+02  0.67898E-05
 0.61930000E+02 -0.93001E-05
 0.61980000E+02 -0.32468E-04
 0.62029999E+02 -0.10106E-03
 0.62080002E+02 -0.16279E-03
 0.62130001E+02 -0.16884E-03
 0.62180000E+02 -0.13895E-03
 0.62230000E+02 -0.83207E-04
 0.62279999E+02 -0.24160E-04
 0.62330002E+02  0.54100E-05
 0.62380001E+02  0.70718E-05
 0.62430000E+02  0.61769E-05
 0.62480000E+02  0.35355E-04
 0.62529999E+02  0.57397E-04
 0.62580002E+02  0.13356E-04
 0.62630001E+02 -0.53656E-04
 0.62680000E+02 -0.88168E-04
 0.62730000E+02 -0.92764E-04
 0.62779999E+02 -0.58256E-04
 0.62830002E+02  0.96024E-05
 0.62880001E+02  0.64790E-04
 0.62930000E+02  0.93890E-04
 0.62980000E+02  0.10375E-03
 0.63029999E+02  0.90926E-04
 0.63080002E+02  0.65291E-04
 0.63130001E+02  0.52521E-04
 0.63180000E+02  0.63764E-04
 0.63230000E+02  0.74931E-04
 0.63279999E+02  0.62936E-04
 0.63330002E+02  0.32994E-04
 0.63380001E+02 -0.66845E-05
 0.63430000E+02 -0.52840E-04
 0.63480000E+02 -0.77255E-04
 0.63529999E+02 -0.79988E-04
 0.63580002E+02 -0.87550E-04
 0.63630001E+02 -0.71365E-04
 0.63680000E+02 -0.28312E-04
 0.63730000E+02 -0.30493E-06
 0.63779999E+02 -0.49930E-05
 0.63830002E+02 -0.27709E-04
 0.63880001E+02 -0.28212E-04
 0.63930000E+02 -0.18324E-04
 0.63980000E+02 -0.18676E-04
 0.64029999E+02 -0.30134E-05
 0.64080002E+02  0.57617E-05
 0.64129997E+02 -0.34424E-05
 0.64180000E+02  0.12144E-04
 0.64230003E+02  0.52942E-04
 0.64279999E+02  0.88544E-04
 0.64330002E+02  0.11219E-03
 0.64379997E+02  0.11539E-03
 0.64430000E+02  0.70464E-04
 0.64480003E+02  0.12243E-04
 0.64529999E+02 -0.20385E-04
 0.64580002E+02 -0.45323E-04
 0.64629997E+02 -0.56442E-04
 0.64680000E+02 -0.44851E-04
 0.64730003E+02 -0.23482E-04
 0.64779999E+02 -0.11734E-04
 0.64830002E+02 -0.10775E-04
 0.64879997E+02 -0.16620E-04
 0.64930000E+02 -0.29789E-04
 0.64980003E+02 -0.43231E-04
 0.65029999E+02 -0.56143E-04
 0.65080002E+02 -0.59242E-04
 0.65129997E+02 -0.42224E-04
 0.65180000E+02 -0.83645E-05
 0.65230003E+02  0.29609E-04
 0.65279999E+02  0.60607E-04
 0.65330002E+02  0.70352E-04
 0.65379997E+02  0.68497E-04
 0.65430000E+02  0.60259E-04
 0.65480003E+02  0.29016E-04
 0.65529999E+02 -0.35272E-05
 0.65580002E+02 -0.19782E-04
 0.65629997E+02 -0.22423E-04
 0.65680000E+02 -0.13427E-04
 0.65730003E+02 -0.48199E-05
 0.65779999E+02 -0.55275E-05
 0.65830002E+02 -0.93729E-05
 0.65879997E+02 -0.18366E-04
 0.65930000E+02 -0.36642E-04
 0.65980003E+02 -0.41769E-04
 0.66029999E+02 -0.32644E-04
 0.66080002E+02 -0.31549E-04
 0.66129997E+02 -0.22789E-04
 0.66180000E+02  0.11213E-04
 0.66230003E+02  0.46151E-04
 0.66279999E+02  0.57825E-04
 0.66330002E+02  0.52528E-04
 0.66379997E+02  0.42746E-04
 0.66430000E+02  0.27150E-04
 0.66480003E+02  0.99578E-05
 0.66529999E+02  0.22973E-05
 0.66580002E+02 -0.21092E-05
 0.66629997E+02 -0.20507E-04
 0.66680000E+02 -0.24467E-04
 0.66730003E+02  0.90573E-05
 0.66779999E+02  0.38385E-04
 0.66830002E+02  0.42108E-04
 0.66879997E+02  0.21419E-04
 0.66930000E+02 -0.23263E-04
 0.66980003E+02 -0.78158E-04
 0.67029999E+02 -0.11991E-03
 0.67080002E+02 -0.12506E-03
 0.67129997E+02 -0.10439E-03
 0.67180000E+02 -0.73841E-04
 0.67230003E+02 -0.35041E-04
 0.67279999E+02  0.33274E-05
 0.67330002E+02  0.41903E-04
 0.67379997E+02  0.73877E-04
 0.67430000E+02  0.94293E-04
 0.67480003E+02  0.10423E-03
 0.67529999E+02  0.92691E-04
 0.67580002E+02  0.72723E-04
 0.67629997E+02  0.49703E-04
 0.67680000E+02  0.18607E-04
 0.67730003E+02 -0.10410E-04
 0.67779999E+02 -0.20161E-04
 0.67830002E+02 -0.61487E-05
 0.67879997E+02  0.79833E-05
 0.67930000E+02  0.18598E-04
 0.67980003E+02  0.17794E-04
 0.68029999E+02 -0.53100E-05
 0.68080002E+02 -0.31952E-04
 0.68129997E+02 -0.43965E-04
 0.68180000E+02 -0.27853E-04
 0.68230003E+02  0.13893E-05
 0.68279999E+02  0.20381E-05
 0.68330002E+02 -0.26128E-04
 0.68379997E+02 -0.53522E-04
 0.68430000E+02 -0.68877E-04
 0.68480003E+02 -0.66903E-04
 0.68529999E+02 -0.60305E-04
 0.68580002E+02 -0.56068E-04
 0.68629997E+02 -0.32296E-04
 0.68680000E+02  0.64412E-05
 0.68730003E+02  0.37825E-04
 0.68779999E+02  0.61959E-04
 0.68830002E+02  0.78240E-04
 0.68879997E+02  0.89159E-04
 0.68930000E+02  0.91172E-04
 0.68980003E+02  0.74683E-04
 0.69029999E+02  0.52240E-04
 0.69080002E+02  0.21106E-04
 0.69129997E+02 -0.15822E-04
 0.69180000E+02 -0.35214E-04
 0.69230003E+02 -0.38314E-04
 0.69279999E+02 -0.34486E-04
 0.69330002E+02 -0.26269E-04
 0.69379997E+02 -0.28336E-04
 0.69430000E+02 -0.37906E-04
 0.69480003E+02 -0.23169E-04
 0.69529999E+02  0.22712E-04
 0.69580002E+02  0.63825E-04
 0.69629997E+02  0.66362E-04
 0.69680000E+02  0.37291E-04
 0.69730003E+02 -0.80481E-06
 0.69779999E+02 -0.24413E-04
 0.69830002E+02 -0.31666E-04
 0.69879997E+02 -0.29896E-04
 0.69930000E+02 -0.23528E-04
 0.69980003E+02 -0.26782E-04
 0.70029999E+02 -0.33444E-04
 0.70080002E+02 -0.37997E-04
 0.70129997E+02 -0.39109E-04
 0.70180000E+02 -0.48381E-04
 0.70230003E+02 -0.63154E-04
 0.70279999E+02 -0.54395E-04
 0.70330002E+02 -0.31728E-04
 0.70379997E+02 -0.72955E-05
 0.70430000E+02  0.21598E-04
 0.70480003E+02  0.49435E-04
 0.70529999E+02  0.78023E-04
 0.70580002E+02  0.96389E-04
 0.70629997E+02  0.97554E-04
 0.70680000E+02  0.88226E-04
 0.70730003E+02  0.59125E-04
 0.70779999E+02  0.17600E-04
 0.70830002E+02 -0.16824E-04
 0.70879997E+02 -0.37193E-04
 0.70930000E+02 -0.40418E-04
 0.70980003E+02 -0.33776E-04
 0.71029999E+02 -0.29243E-04
 0.71080002E+02 -0.37255E-04
 0.71129997E+02 -0.51712E-04
 0.71180000E+02 -0.58200E-04
 0.71230003E+02 -0.56372E-04
 0.71279999E+02 -0.36211E-04
 0.71330002E+02  0.71734E-06
 0.71379997E+02  0.30134E-04
 0.71430000E+02  0.43136E-04
 0.71480003E+02  0.39261E-04
 0.71529999E+02  0.22999E-04
 0.71580002E+02 -0.13261E-05
 0.71629997E+02 -0.28256E-04
 0.71680000E+02 -0.35140E-04
 0.71730003E+02 -0.20535E-04
 0.71779999E+02 -0.11459E-04
 0.71830002E+02 -0.54409E-05
 0.71879997E+02  0.12236E-04
 0.71930000E+02  0.28676E-04
 0.71980003E+02  0.41577E-04
 0.72029999E+02  0.63300E-04
 0.72080002E+02  0.79235E-04
 0.72129997E+02  0.71861E-04
 0.72180000E+02  0.50081E-04
 0.72230003E+02  0.24316E-04
 0.72279999E+02  0.11176E-04
 0.72330002E+02  0.79040E-05
 0.72379997E+02  0.10212E-05
 0.72430000E+02 -0.58442E-05
 0.72480003E+02 -0.30418E-04
 0.72529999E+02 -0.55830E-04
 0.72580002E+02 -0.60405E-04
 0.72629997E+02 -0.54844E-04
 0.72680000E+02 -0.43723E-04
 0.72730003E+02 -0.42228E-04
 0.72779999E+02 -0.41058E-04
 0.72830002E+02 -0.29267E-04
 0.72879997E+02 -0.87988E-05
 0.72930000E+02  0.14678E-04
 0.72980003E+02  0.24695E-04
 0.73029999E+02  0.26951E-04
 0.73080002E+02  0.27326E-04
 0.73129997E+02  0.19676E-04
 0.73180000E+02  0.93196E-05
 0.73230003E+02  0.14114E-05
 0.73279999E+02 -0.41592E-05
 0.73330002E+02 -0.10274E-04
 0.73379997E+02 -0.20938E-04
 0.73430000E+02 -0.27962E-04
 0.73480003E+02 -0.22616E-04
 0.73529999E+02 -0.98335E-05
 0.73580002E+02  0.22131E-05
 0.73629997E+02  0.13829E-04
 0.73680000E+02  0.20062E-04
 0.73730003E+02  0.15061E-04
 0.73779999E+02  0.71342E-05
 0.73830002E+02 -0.36108E-05
 0.73879997E+02 -0.20174E-04
 0.73930000E+02 -0.23336E-04
 0.73980003E+02 -0.13717E-05
 0.74029999E+02  0.28586E-04
 0.74080002E+02  0.48226E-04
 0.74129997E+02  0.49748E-04
 0.74180000E+02  0.41096E-04
 0.74230003E+02  0.31250E-04
 0.74279999E+02  0.24559E-04
 0.74330002E+02  0.23585E-04
 0.74379997E+02  0.86639E-05
 0.74430000E+02 -0.22716E-04
 0.74480003E+02 -0.52654E-04
 0.74529999E+02 -0.70764E-04
 0.74580002E+02 -0.76030E-04
 0.74629997E+02 -0.71792E-04
 0.74680000E+02 -0.48306E-04
 0.74730003E+02 -0.20456E-04
 0.74779999E+02 -0.69290E-05
 0.74830002E+02 -0.22380E-05
 0.74879997E+02  0.40802E-05
 0.74930000E+02  0.16705E-04
 0.74980003E+02  0.35791E-04
 0.75029999E+02  0.66610E-04
 0.75080002E+02  0.85860E-04
 0.75129997E+02  0.84230E-04
 0.75180000E+02  0.77546E-04
 0.75230003E+02  0.56957E-04
 0.75279999E+02  0.18774E-04
 0.75330002E+02 -0.16257E-04
 0.75379997E+02 -0.34943E-04
 0.75430000E+02 -0.41520E-04
 0.75480003E+02 -0.29284E-04
 0.75529999E+02 -0.10685E-04
 0.75580002E+02 -0.35696E-05
 0.75629997E+02 -0.20907E-05
 0.75680000E+02 -0.13344E-04
 0.75730003E+02 -0.37309E-04
 0.75779999E+02 -0.61112E-04
 0.75830002E+02 -0.76423E-04
 0.75879997E+02 -0.77161E-04
 0.75930000E+02 -0.60343E-04
 0.75980003E+02 -0.38122E-04
 0.76029999E+02 -0.14922E-04
 0.76080002E+02  0.15287E-04
 0.76129997E+02  0.38590E-04
 0.76180000E+02  0.49007E-04
 0.76230003E+02  0.41444E-04
 0.76279999E+02  0.21721E-04
 0.76330002E+02  0.64112E-05
 0.76379997E+02  0.26436E-05
 0.76430000E+02  0.16471E-04
 0.76480003E+02  0.33329E-04
 0.76529999E+02  0.48557E-04
 0.76580002E+02  0.66020E-04
 0.76629997E+02  0.76686E-04
 0.76680000E+02  0.80222E-04
 0.76730003E+02  0.76011E-04
 0.76779999E+02  0.62743E-04
 0.76830002E+02  0.43207E-04
 0.76879997E+02  0.10048E-04
 0.76930000E+02 -0.33815E-04
 0.76980003E+02 -0.72179E-04
 0.77029999E+02 -0.10455E-03
 0.77080002E+02 -0.12710E-03
 0.77129997E+02 -0.12895E-03
 0.77180000E+02 -0.10844E-03
 0.77230003E+02 -0.71214E-04
 0.77279999E+02 -0.31422E-04
 0.77330002E+02  0.15535E-05
 0.77379997E+02  0.28536E-04
 0.77430000E+02  0.50719E-04
 0.77480003E+02  0.69935E-04
 0.77529999E+02  0.75801E-04
 0.77580002E+02  0.62378E-04
 0.77629997E+02  0.44928E-04
 0.77680000E+02  0.24677E-04
 0.77730003E+02 -0.22392E-05
 0.77779999E+02 -0.25404E-04
 0.77830002E+02 -0.38520E-04
 0.77879997E+02 -0.42195E-04
 0.77930000E+02 -0.35902E-04
 0.77980003E+02 -0.25468E-04
 0.78029999E+02 -0.15236E-04
 0.78080002E+02  0.13427E-05
 0.78129997E+02  0.22757E-04
 0.78180000E+02  0.36873E-04
 0.78230003E+02  0.37391E-04
 0.78279999E+02  0.26025E-04
 0.78330002E+02 -0.67146E-06
 0.78379997E+02 -0.32610E-04
 0.78430000E+02 -0.49831E-04
 0.78480003E+02 -0.51523E-04
 0.78529999E+02 -0.41253E-04
 0.78580002E+02 -0.26688E-04
 0.78629997E+02 -0.10651E-04
 0.78680000E+02  0.11251E-04
 0.78730003E+02  0.32108E-04
 0.78779999E+02  0.46332E-04
 0.78830002E+02  0.47460E-04
 0.78879997E+02  0.36915E-04
 0.78930000E+02  0.31771E-04
 0.78980003E+02  0.29226E-04
 0.79029999E+02  0.23343E-04
 0.79080002E+02  0.15807E-04
 0.79129997E+02  0.25180E-05
 0.79180000E+02 -0.13626E-04
 0.79230003E+02 -0.35908E-04
 0.79279999E+02 -0.49861E-04
 0.79330002E+02 -0.48633E-04
 0.79379997E+02 -0.46420E-04
 0.79430000E+02 -0.31572E-04
 0.79480003E+02 -0.24545E-05
 0.79529999E+02  0.33575E-04
 0.79580002E+02  0.63675E-04
 0.79629997E+02  0.71670E-04
 0.79680000E+02  0.65852E-04
 0.79730003E+02  0.54452E-04
 0.79779999E+02  0.40190E-04
 0.79830002E+02  0.22059E-04
 0.79879997E+02  0.38043E-05
 0.79930000E+02 -0.12038E-04
 0.79980003E+02 -0.35024E-04
 0.80029999E+02 -0.57874E-04
 0.80080002E+02 -0.69350E-04
 0.80129997E+02 -0.66589E-04
 0.80180000E+02 -0.54281E-04
 0.80230003E+02 -0.43343E-04
 0.80279999E+02 -0.30504E-04
 0.80330002E+02 -0.11844E-04
 0.80379997E+02  0.71360E-05
 0.80430000E+02  0.22524E-04
 0.80480003E+02  0.34911E-04
 0.80529999E+02  0.41993E-04
 0.80580002E+02  0.39461E-04
 0.80629997E+02  0.26089E-04
 0.80680000E+02  0.51379E-05
 0.80730003E+02 -0.13042E-04
 0.80779999E+02 -0.20890E-04
 0.80830002E+02 -0.18811E-04
 0.80879997E+02 -0.95050E-05
 0.80930000E+02  0.86779E-06
 0.80980003E+02  0.62657E-05
 0.81029999E+02  0.16175E-04
 0.81080002E+02  0.31539E-04
 0.81129997E+02  0.35923E-04
 0.81180000E+02  0.26635E-04
 0.81230003E+02  0.51201E-05
 0.81279999E+02 -0.16189E-04
 0.81330002E+02 -0.24336E-04
 0.81379997E+02 -0.25499E-04
 0.81430000E+02 -0.19324E-04
 0.81480003E+02 -0.12919E-04
 0.81529999E+02 -0.12167E-04
 0.81580002E+02 -0.18658E-04
 0.81629997E+02 -0.32086E-04
 0.81680000E+02 -0.32416E-04
 0.81730003E+02 -0.20538E-04
 0.81779999E+02 -0.56229E-05
 0.81830002E+02  0.11980E-04
 0.81879997E+02  0.24417E-04
 0.81930000E+02  0.29945E-04
 0.81980003E+02  0.26487E-04
 0.82029999E+02  0.96473E-05
 0.82080002E+02 -0.12227E-04
 0.82129997E+02 -0.19324E-04
 0.82180000E+02 -0.75760E-05
 0.82230003E+02  0.88342E-05
 0.82279999E+02  0.23791E-04
 0.82330002E+02  0.40179E-04
 0.82379997E+02  0.55977E-04
 0.82430000E+02  0.65960E-04
 0.82480003E+02  0.61519E-04
 0.82529999E+02  0.38547E-04
 0.82580002E+02  0.65813E-05
 0.82629997E+02 -0.26363E-04
 0.82680000E+02 -0.51263E-04
 0.82730003E+02 -0.62254E-04
 0.82779999E+02 -0.60867E-04
 0.82830002E+02 -0.47538E-04
 0.82879997E+02 -0.33257E-04
 0.82930000E+02 -0.26317E-04
 0.82980003E+02 -0.27002E-04
 0.83029999E+02 -0.28796E-04
 0.83080002E+02 -0.17148E-04
 0.83129997E+02  0.76343E-05
 0.83180000E+02  0.30659E-04
 0.83230003E+02  0.40235E-04
 0.83279999E+02  0.43105E-04
 0.83330002E+02  0.43829E-04
 0.83379997E+02  0.35219E-04
 0.83430000E+02  0.21128E-04
 0.83480003E+02  0.13292E-04
 0.83529999E+02  0.11168E-04
 0.83580002E+02  0.55583E-05
 0.83629997E+02 -0.46963E-05
 0.83680000E+02 -0.19096E-04
 0.83730003E+02 -0.31326E-04
 0.83779999E+02 -0.37466E-04
 0.83830002E+02 -0.37682E-04
 0.83879997E+02 -0.33756E-04
 0.83930000E+02 -0.28214E-04
 0.83980003E+02 -0.21627E-04
 0.84029999E+02 -0.19028E-04
 0.84080002E+02 -0.11706E-04
 0.84129997E+02  0.55365E-06
 0.84180000E+02  0.15738E-04
 0.84230003E+02  0.37089E-04
 0.84279999E+02  0.51779E-04
 0.84330002E+02  0.56394E-04
 0.84379997E+02  0.52414E-04
 0.84430000E+02  0.36293E-04
 0.84480003E+02  0.11635E-04
 0.84529999E+02 -0.71606E-05
 0.84580002E+02 -0.17728E-04
 0.84629997E+02 -0.27318E-04
 0.84680000E+02 -0.32881E-04
 0.84730003E+02 -0.33594E-04
 0.84779999E+02 -0.31085E-04
 0.84830002E+02 -0.27482E-04
 0.84879997E+02 -0.19654E-04
 0.84930000E+02 -0.53523E-05
 0.84980003E+02  0.39041E-05
 0.85029999E+02  0.25891E-05
 0.85080002E+02  0.68774E-05
 0.85129997E+02  0.26257E-04
 0.85180000E+02  0.45278E-04
 0.85230003E+02  0.53728E-04
 0.85279999E+02  0.52264E-04
 0.85330002E+02  0.39618E-04
 0.85379997E+02  0.19254E-04
 0.85430000E+02 -0.16345E-05
 0.85480003E+02 -0.18996E-04
 0.85529999E+02 -0.34558E-04
 0.85580002E+02 -0.50306E-04
 0.85629997E+02 -0.61748E-04
 0.85680000E+02 -0.63660E-04
 0.85730003E+02 -0.53668E-04
 0.85779999E+02 -0.34913E-04
 0.85830002E+02 -0.13800E-04
 0.85879997E+02  0.10501E-04
 0.85930000E+02  0.34573E-04
 0.85980003E+02  0.47747E-04
 0.86029999E+02  0.53465E-04
 0.86080002E+02  0.52596E-04
 0.86129997E+02  0.42137E-04
 0.86180000E+02  0.27674E-04
 0.86230003E+02  0.10245E-04
 0.86279999E+02 -0.27078E-05
 0.86330002E+02 -0.89562E-05
 0.86379997E+02 -0.15170E-04
 0.86430000E+02 -0.20093E-04
 0.86480003E+02 -0.21539E-04
 0.86529999E+02 -0.22780E-04
 0.86580002E+02 -0.25070E-04
 0.86629997E+02 -0.29275E-04
 0.86680000E+02 -0.34686E-04
 0.86730003E+02 -0.31786E-04
 0.86779999E+02 -0.19502E-04
 0.86830002E+02 -0.58900E-05
 0.86879997E+02  0.83490E-06
 0.86930000E+02  0.69932E-05
 0.86980003E+02  0.22322E-04
 0.87029999E+02  0.38586E-04
 0.87080002E+02  0.46000E-04
 0.87129997E+02  0.42855E-04
 0.87180000E+02  0.33408E-04
 0.87230003E+02  0.19243E-04
 0.87279999E+02  0.10416E-04
 0.87330002E+02  0.13620E-04
 0.87379997E+02  0.15697E-04
 0.87430000E+02  0.12850E-04
 0.87480003E+02  0.73195E-05
 0.87529999E+02 -0.17643E-05
 0.87580002E+02 -0.11896E-04
 0.87629997E+02 -0.21859E-04
 0.87680000E+02 -0.31219E-04
 0.87730003E+02 -0.41167E-04
 0.87779999E+02 -0.48740E-04
 0.87830002E+02 -0.45077E-04
 0.87879997E+02 -0.30545E-04
 0.87930000E+02 -0.15011E-04
 0.87980003E+02 -0.35464E-05
 0.88029999E+02  0.25940E-05
 0.88080002E+02  0.52630E-05
 0.88129997E+02  0.12730E-04
 0.88180000E+02  0.23766E-04
 0.88230003E+02  0.26639E-04
 0.88279999E+02  0.18236E-04
 0.88330002E+02  0.48314E-05
 0.88379997E+02 -0.49486E-05
 0.88430000E+02 -0.12566E-04
 0.88480003E+02 -0.19861E-04
 0.88529999E+02 -0.20017E-04
 0.88580002E+02 -0.13936E-04
 0.88629997E+02 -0.41035E-05
 0.88680000E+02  0.49384E-05
 0.88730003E+02  0.99552E-05
 0.88779999E+02  0.12571E-04
 0.88830002E+02  0.15360E-04
 0.88879997E+02  0.21357E-04
 0.88930000E+02  0.26166E-04
 0.88980003E+02  0.25341E-04
 0.89029999E+02  0.20504E-04
 0.89080002E+02  0.14138E-04
 0.89129997E+02  0.60480E-05
 0.89180000E+02  0.12767E-06
 0.89230003E+02 -0.20279E-05
 0.89279999E+02 -0.46338E-05
 0.89330002E+02 -0.62750E-05
 0.89379997E+02 -0.17082E-05
 0.89430000E+02  0.43939E-05
 0.89480003E+02  0.41216E-05
 0.89529999E+02  0.20088E-05
 0.89580002E+02 -0.12723E-05
 0.89629997E+02 -0.67839E-05
 0.89680000E+02 -0.13329E-04
 0.89730003E+02 -0.18820E-04
 0.89779999E+02 -0.20136E-04
 0.89830002E+02 -0.15570E-04
 0.89879997E+02 -0.43395E-05
 0.89930000E+02  0.17699E-05
 0.89980003E+02 -0.97947E-06
 0.90029999E+02 -0.58600E-05
 0.90080002E+02 -0.65768E-05
 0.90129997E+02  0.11954E-05
 0.90180000E+02  0.94749E-05
 0.90230003E+02  0.77272E-05
 0.90279999E+02 -0.30148E-05
 0.90330002E+02 -0.14276E-04
 0.90379997E+02 -0.16910E-04
 0.90430000E+02 -0.77602E-05
 0.90480003E+02  0.23612E-05
 0.90529999E+02  0.94063E-05
 0.90580002E+02  0.11740E-04
 0.90629997E+02  0.91309E-05
 0.90680000E+02  0.73296E-05
 0.90730003E+02  0.72997E-05
 0.90779999E+02  0.11572E-04
 0.90830002E+02  0.15735E-04
 0.90879997E+02  0.15007E-04
 0.90930000E+02  0.84319E-05
 0.90980003E+02 -0.57761E-06
 0.91029999E+02 -0.77785E-05
 0.91080002E+02 -0.12800E-04
 0.91129997E+02 -0.15836E-04
 0.91180000E+02 -0.17802E-04
 0.91230003E+02 -0.12591E-04
 0.91279999E+02 -0.27115E-05
 0.91330002E+02  0.16855E-05
 0.91379997E+02  0.38761E-06
 0.91430000E+02 -0.10859E-05
 0.91480003E+02 -0.11342E-06
 0.91529999E+02  0.45051E-05
 0.91580002E+02  0.99908E-05
 0.91629997E+02  0.10273E-04
 0.91680000E+02  0.65450E-05
 0.91730003E+02  0.81837E-07
 0.91779999E+02 -0.55910E-05
 0.91830002E+02 -0.60224E-05
 0.91879997E+02 -0.33961E-05
 0.91930000E+02 -0.22048E-05
 0.91980003E+02 -0.44201E-05
 0.92029999E+02 -0.74371E-05
 0.92080002E+02 -0.10029E-04
 0.92129997E+02 -0.12936E-04
 0.92180000E+02 -0.17974E-04
 0.92230003E+02 -0.21744E-04
 0.92279999E+02 -0.17401E-04
 0.92330002E+02 -0.66023E-05
 0.92379997E+02  0.55207E-05
 0.92430000E+02  0.16661E-04
 0.92480003E+02  0.26255E-04
 0.92529999E+02  0.29072E-04
 0.92580002E+02  0.21227E-04
 0.92629997E+02  0.11034E-04
 0.92680000E+02  0.32573E-05
 0.92730003E+02 -0.45201E-05
 0.92779999E+02 -0.83190E-05
 0.92830002E+02 -0.32712E-05
 0.92879997E+02  0.80520E-05
 0.92930000E+02  0.18192E-04
 0.92980003E+02  0.21850E-04
 0.93029999E+02  0.16686E-04
 0.93080002E+02  0.72257E-05
 0.93129997E+02  0.14815E-05
 0.93180000E+02  0.40444E-06
 0.93230003E+02  0.30915E-05
 0.93279999E+02  0.55660E-05
 0.93330002E+02  0.45390E-05
 0.93379997E+02  0.22905E-05
 0.93430000E+02  0.42377E-06
 0.93480003E+02 -0.27648E-05
 0.93529999E+02 -0.62497E-05
 0.93580002E+02 -0.85850E-05
 0.93629997E+02 -0.11029E-04
 0.93680000E+02 -0.79966E-05
 0.93730003E+02 -0.22777E-05
 0.93779999E+02 -0.52982E-06
 0.93830002E+02 -0.50580E-06
 0.93879997E+02 -0.41482E-05
 0.93930000E+02 -0.11131E-04
 0.93980003E+02 -0.16177E-04
 0.94029999E+02 -0.16317E-04
 0.94080002E+02 -0.15879E-04
 0.94129997E+02 -0.16200E-04
 0.94180000E+02 -0.13160E-04
 0.94230003E+02 -0.91802E-05
 0.94279999E+02 -0.40920E-05
 0.94330002E+02 -0.62315E-07
 0.94379997E+02 -0.72363E-06
 0.94430000E+02 -0.57959E-05
 0.94480003E+02 -0.11612E-04
 0.94529999E+02 -0.99266E-05
 0.94580002E+02 -0.59890E-05
 0.94629997E+02 -0.19885E-05
 0.94680000E+02  0.72294E-05
 0.94730003E+02  0.16432E-04
 0.94779999E+02  0.24365E-04
 0.94830002E+02  0.31465E-04
 0.94879997E+02  0.37732E-04
 0.94930000E+02  0.41251E-04
 0.94980003E+02  0.35144E-04
 0.95029999E+02  0.18803E-04
 0.95080002E+02 -0.25522E-05
 0.95129997E+02 -0.24119E-04
 0.95180000E+02 -0.39995E-04
 0.95230003E+02 -0.44621E-04
 0.95279999E+02 -0.39230E-04
 0.95330002E+02 -0.26696E-04
 0.95379997E+02 -0.12321E-04
 0.95430000E+02  0.92313E-06
 0.95480003E+02  0.15335E-04
 0.95529999E+02  0.25225E-04
 0.95580002E+02  0.26167E-04
 0.95629997E+02  0.21005E-04
 0.95680000E+02  0.13656E-04
 0.95730003E+02  0.90519E-05
 0.95779999E+02  0.77455E-05
 0.95830002E+02  0.68919E-05
 0.95879997E+02  0.40770E-05
 0.95930000E+02 -0.18219E-05
 0.95980003E+02 -0.74814E-05
 0.96029999E+02 -0.11670E-04
 0.96080002E+02 -0.14227E-04
 0.96129997E+02 -0.14845E-04
 0.96180000E+02 -0.18791E-04
 0.96230003E+02 -0.22691E-04
 0.96279999E+02 -0.20998E-04
 0.96330002E+02 -0.14296E-04
 0.96379997E+02 -0.19237E-05
 0.96430000E+02  0.86904E-05
 0.96480003E+02  0.12501E-04
 0.96529999E+02  0.13487E-04
 0.96580002E+02  0.17354E-04
 0.96629997E+02  0.26423E-04
 0.96680000E+02  0.33183E-04
 0.96730003E+02  0.32344E-04
 0.96779999E+02  0.25179E-04
 0.96830002E+02  0.14514E-04
 0.96879997E+02  0.24901E-05
 0.96930000E+02 -0.97138E-05
 0.96980003E+02 -0.19251E-04
 0.97029999E+02 -0.24340E-04
 0.97080002E+02 -0.25659E-04
 0.97129997E+02 -0.23404E-04
 0.97180000E+02 -0.17609E-04
 0.97230003E+02 -0.10102E-04
 0.97279999E+02 -0.35175E-05
 0.97330002E+02 -0.22946E-05
 0.97379997E+02 -0.48552E-05
 0.97430000E+02 -0.70513E-05
 0.97480003E+02 -0.61931E-05
 0.97529999E+02  0.10604E-05
 0.97580002E+02  0.91713E-05
 0.97629997E+02  0.11760E-04
 0.97680000E+02  0.10202E-04
 0.97730003E+02  0.10254E-04
 0.97779999E+02  0.13199E-04
 0.97830002E+02  0.13930E-04
 0.97879997E+02  0.10571E-04
 0.97930000E+02  0.15309E-05
 0.97980003E+02 -0.11259E-04
 0.98029999E+02 -0.18300E-04
 0.98080002E+02 -0.16862E-04
 0.98129997E+02 -0.11123E-04
 0.98180000E+02 -0.40125E-05
 0.98230003E+02  0.32823E-05
 0.98279999E+02  0.70112E-05
 0.98330002E+02  0.48140E-05
 0.98379997E+02  0.13668E-05
 0.98430000E+02 -0.15387E-05
 0.98480003E+02 -0.27235E-05
 0.98529999E+02 -0.36200E-05
 0.98580002E+02 -0.76940E-05
 0.98629997E+02 -0.10352E-04
 0.98680000E+02 -0.55171E-05
 0.98730003E+02  0.58827E-05
 0.98779999E+02  0.14408E-04
 0.98830002E+02  0.14014E-04
 0.98879997E+02  0.59862E-05
 0.98930000E+02 -0.54735E-05
 0.98980003E+02 -0.13799E-04
 0.99029999E+02 -0.14585E-04
 0.99080002E+02 -0.72851E-05
 0.99129997E+02  0.43707E-05
 0.99180000E+02  0.15663E-04
 0.99230003E+02  0.22679E-04
 0.99279999E+02  0.22168E-04
 0.99330002E+02  0.15542E-04
 0.99379997E+02  0.79561E-05
 0.99430000E+02  0.91469E-06
 0.99480003E+02 -0.56105E-05
 0.99529999E+02 -0.83485E-05
 0.99580002E+02 -0.87554E-05
 0.99629997E+02 -0.96475E-05
 0.99680000E+02 -0.82275E-05
 0.99730003E+02 -0.44006E-05
 0.99779999E+02  0.89547E-10
 0.99830002E+02  0.35892E-05
 0.99879997E+02  0.45575E-05
 0.99930000E+02  0.34818E-05
 0.99980003E+02  0.16723E-05
 0.10003000E+03  0.22694E-05
 0.10008000E+03  0.56301E-05
 0.10013000E+03  0.89976E-05
 0.10018000E+03  0.11834E-04
 0.10023000E+03  0.99591E-05
 0.10028000E+03  0.13072E-05
 0.10033000E+03 -0.98178E-05
 0.10038000E+03 -0.20998E-04
 0.10043000E+03 -0.28527E-04
 0.10048000E+03 -0.28723E-04
 0.10053000E+03 -0.22118E-04
 0.10058000E+03 -0.12099E-04
 0.10063000E+03 -0.28899E-05
 0.10068000E+03  0.65948E-05
 0.10073000E+03  0.13972E-04
 0.10078000E+03  0.17272E-04
 0.10083000E+03  0.17899E-04
 0.10088000E+03  0.13137E-04
 0.10093000E+03  0.55470E-05
 0.10098000E+03 -0.52829E-05
 0.10103000E+03 -0.17668E-04
 0.10108000E+03 -0.24558E-04
 0.10113000E+03 -0.23946E-04
 0.10118000E+03 -0.14513E-04
 0.10123000E+03  0.53001E-06
 0.10128000E+03  0.16328E-04
 0.10133000E+03  0.29759E-04
 0.10138000E+03  0.37999E-04
 0.10143000E+03  0.39371E-04
 0.10148000E+03  0.35186E-04
 0.10153000E+03  0.26824E-04
 0.10158000E+03  0.13904E-04
 0.10163000E+03 -0.77614E-06
 0.10168000E+03 -0.13621E-04
 0.10173000E+03 -0.20092E-04
 0.10178000E+03 -0.18788E-04
 0.10183000E+03 -0.14320E-04
 0.10188000E+03 -0.12105E-04
 0.10193000E+03 -0.14032E-04
 0.10198000E+03 -0.20514E-04
 0.10203000E+03 -0.29685E-04
 0.10208000E+03 -0.34184E-04
 0.10213000E+03 -0.30465E-04
 0.10218000E+03 -0.21684E-04
 0.10223000E+03 -0.13358E-04
 0.10228000E+03 -0.33331E-05
 0.10233000E+03  0.85533E-05
 0.10238000E+03  0.17080E-04
 0.10243000E+03  0.21963E-04
 0.10248000E+03  0.24466E-04
 0.10253000E+03  0.26029E-04
 0.10258000E+03  0.23312E-04
 0.10263000E+03  0.18104E-04
 0.10268000E+03  0.14522E-04
 0.10273000E+03  0.10103E-04
 0.10278000E+03  0.20975E-05
 0.10283000E+03 -0.45907E-05
 0.10288000E+03 -0.71920E-05
 0.10293000E+03 -0.82161E-05
 0.10298000E+03 -0.60997E-05
 0.10303000E+03 -0.55538E-05
 0.10308000E+03 -0.65943E-05
 0.10313000E+03 -0.51148E-05
 0.10318000E+03 -0.31999E-06
 0.10323000E+03  0.62732E-05
 0.10328000E+03  0.93508E-05
 0.10333000E+03  0.71329E-05
 0.10338000E+03  0.81584E-06
 0.10343000E+03 -0.50208E-05
 0.10348000E+03 -0.73227E-05
 0.10353000E+03 -0.67123E-05
 0.10358000E+03 -0.47276E-05
 0.10363000E+03 -0.62955E-05
 0.10368000E+03 -0.11982E-04
 0.10373000E+03 -0.14357E-04
 0.10378000E+03 -0.11747E-04
 0.10383000E+03 -0.71912E-05
 0.10388000E+03 -0.38335E-05
 0.10393000E+03 -0.12189E-05
 0.10398000E+03  0.49427E-05
 0.10403000E+03  0.14305E-04
 0.10408000E+03  0.23118E-04
 0.10413000E+03  0.27780E-04
 0.10418000E+03  0.27145E-04
 0.10423000E+03  0.22728E-04
 0.10428000E+03  0.15819E-04
 0.10433000E+03  0.74802E-05
 0.10438000E+03 -0.29111E-06
 0.10443000E+03 -0.73169E-05
 0.10448000E+03 -0.11115E-04
 0.10453000E+03 -0.13055E-04
 0.10458000E+03 -0.11028E-04
 0.10463000E+03 -0.48338E-05
 0.10468000E+03 -0.20825E-05
 0.10473000E+03 -0.25889E-05
 0.10478000E+03 -0.68991E-05
 0.10483000E+03 -0.96118E-05
 0.10488000E+03 -0.90472E-05
 0.10493000E+03 -0.71075E-05
 0.10498000E+03 -0.45015E-05
 0.10503000E+03 -0.26548E-05
 0.10508000E+03  0.45742E-06
 0.10513000E+03  0.90470E-06
 0.10518000E+03  0.20519E-05
 0.10523000E+03  0.29476E-05
 0.10528000E+03  0.10096E-05
 0.10533000E+03 -0.88613E-06
 0.10538000E+03 -0.40720E-05
 0.10543000E+03 -0.78795E-05
 0.10548000E+03 -0.12924E-04
 0.10553000E+03 -0.16316E-04
 0.10558000E+03 -0.17475E-04
 0.10563000E+03 -0.15741E-04
 0.10568000E+03 -0.91133E-05
 0.10573000E+03 -0.13860E-05
 0.10578000E+03  0.52999E-05
 0.10583000E+03  0.93241E-05
 0.10588000E+03  0.11107E-04
 0.10593000E+03  0.12864E-04
 0.10598000E+03  0.13829E-04
 0.10603000E+03  0.13627E-04
 0.10608000E+03  0.13205E-04
 0.10613000E+03  0.12693E-04
 0.10618000E+03  0.13390E-04
 0.10623000E+03  0.15867E-04
 0.10628000E+03  0.18706E-04
 0.10633000E+03  0.19784E-04
 0.10638000E+03  0.19176E-04
 0.10643000E+03  0.15552E-04
 0.10648000E+03  0.54436E-05
 0.10653000E+03 -0.76770E-05
 0.10658000E+03 -0.19786E-04
 0.10663000E+03 -0.27046E-04
 0.10668000E+03 -0.27111E-04
 0.10673000E+03 -0.22823E-04
 0.10678000E+03 -0.15001E-04
 0.10683000E+03 -0.53823E-05
 0.10688000E+03  0.22482E-05
 0.10693000E+03  0.68428E-05
 0.10698000E+03  0.99315E-05
 0.10703000E+03  0.11012E-04
 0.10708000E+03  0.10123E-04
 0.10713000E+03  0.72499E-05
 0.10718000E+03  0.25756E-05
 0.10723000E+03 -0.14500E-05
 0.10728000E+03 -0.50290E-05
 0.10733000E+03 -0.73940E-05
 0.10738000E+03 -0.10699E-04
 0.10743000E+03 -0.15077E-04
 0.10748000E+03 -0.17505E-04
 0.10753000E+03 -0.18491E-04
 0.10758000E+03 -0.16076E-04
 0.10763000E+03 -0.10291E-04
 0.10768000E+03 -0.31319E-05
 0.10773000E+03  0.18340E-05
 0.10778000E+03  0.33555E-05
 0.10783000E+03  0.37200E-05
 0.10788000E+03  0.37516E-05
 0.10793000E+03  0.47307E-05
 0.10798000E+03  0.64038E-05
 0.10803000E+03  0.86968E-05
 0.10808000E+03  0.12054E-04
 0.10813000E+03  0.15986E-04
 0.10818000E+03  0.17042E-04
 0.10823000E+03  0.13922E-04
 0.10828000E+03  0.87296E-05
 0.10833000E+03  0.27717E-05
 0.10838000E+03 -0.10719E-05
 0.10843000E+03 -0.36120E-05
 0.10848000E+03 -0.64670E-05
 0.10853000E+03 -0.94110E-05
 0.10858000E+03 -0.12443E-04
 0.10863000E+03 -0.12597E-04
 0.10868000E+03 -0.10329E-04
 0.10873000E+03 -0.81443E-05
 0.10878000E+03 -0.37758E-05
 0.10883000E+03  0.17576E-05
 0.10888000E+03  0.52604E-05
 0.10893000E+03  0.73601E-05
 0.10898000E+03  0.75357E-05
 0.10903000E+03  0.70665E-05
 0.10908000E+03  0.76541E-05
 0.10913000E+03  0.67453E-05
 0.10918000E+03  0.32749E-05
 0.10923000E+03 -0.20898E-05
 0.10928000E+03 -0.77170E-05
 0.10933000E+03 -0.11482E-04
 0.10938000E+03 -0.13940E-04
 0.10943000E+03 -0.14661E-04
 0.10948000E+03 -0.97151E-05
 0.10953000E+03 -0.80466E-06
 0.10958000E+03  0.74846E-05
 0.10963000E+03  0.13479E-04
 0.10968000E+03  0.15627E-04
 0.10973000E+03  0.14981E-04
 0.10978000E+03  0.11480E-04
 0.10983000E+03  0.72144E-05
 0.10988000E+03  0.27928E-05
 0.10993000E+03 -0.27239E-05
 0.10998000E+03 -0.48237E-05
 0.11003000E+03 -0.40457E-05
 0.11008000E+03 -0.16930E-05
 0.11013000E+03  0.14579E-05
 0.11018000E+03  0.33008E-05
 0.11023000E+03  0.33366E-05
 0.11028000E+03  0.37392E-06
 0.11033000E+03 -0.16967E-05
 0.11038000E+03 -0.81894E-06
 0.11043000E+03  0.15000E-06
 0.11048000E+03 -0.93884E-06
 0.11053000E+03 -0.37860E-05
 0.11058000E+03 -0.50966E-05
 0.11063000E+03 -0.42007E-05
 0.11068000E+03 -0.21344E-05
 0.11073000E+03 -0.16030E-05
 0.11078000E+03 -0.44260E-05
 0.11083000E+03 -0.84701E-05
 0.11088000E+03 -0.96301E-05
 0.11093000E+03 -0.68649E-05
 0.11098000E+03 -0.15498E-05
 0.11103000E+03  0.68593E-05
 0.11108000E+03  0.14418E-04
 0.11113000E+03  0.19285E-04
 0.11118000E+03  0.19618E-04
 0.11123000E+03  0.17704E-04
 0.11128000E+03  0.17708E-04
 0.11133000E+03  0.14734E-04
 0.11138000E+03  0.12147E-04
 0.11143000E+03  0.69950E-05
 0.11148000E+03 -0.19445E-05
 0.11153000E+03 -0.95462E-05
 0.11158000E+03 -0.17413E-04
 0.11163000E+03 -0.22731E-04
 0.11168000E+03 -0.26501E-04
 0.11173000E+03 -0.28676E-04
 0.11178000E+03 -0.30328E-04
 0.11183000E+03 -0.30560E-04
 0.11188000E+03 -0.26901E-04
 0.11193000E+03 -0.22405E-04
 0.11198000E+03 -0.17219E-04
 0.11203000E+03 -0.87614E-05
 0.11208000E+03  0.16787E-05
 0.11213000E+03  0.12700E-04
 0.11218000E+03  0.22916E-04
 0.11223000E+03  0.28455E-04
 0.11228000E+03  0.32200E-04
 0.11233000E+03  0.31870E-04
 0.11238000E+03  0.29432E-04
 0.11243000E+03  0.26789E-04
 0.11248000E+03  0.21278E-04
 0.11253000E+03  0.14964E-04
 0.11258000E+03  0.57441E-05
 0.11263000E+03 -0.33168E-05
 0.11268000E+03 -0.10312E-04
 0.11273000E+03 -0.13339E-04
 0.11278000E+03 -0.12682E-04
 0.11283000E+03 -0.12113E-04
 0.11288000E+03 -0.11700E-04
 0.11293000E+03 -0.13128E-04
 0.11298000E+03 -0.15073E-04
 0.11303000E+03 -0.14884E-04
 0.11308000E+03 -0.13948E-04
 0.11313000E+03 -0.11390E-04
 0.11318000E+03 -0.78319E-05
 0.11323000E+03 -0.52730E-05
 0.11328000E+03 -0.90245E-07
 0.11333000E+03  0.67074E-05
 0.11338000E+03  0.14359E-04
 0.11343000E+03  0.21320E-04
 0.11348000E+03  0.22664E-04
 0.11353000E+03  0.20014E-04
 0.11358000E+03  0.15682E-04
 0.11363000E+03  0.10096E-04
 0.11368000E+03  0.40078E-05
 0.11373000E+03 -0.22669E-05
 0.11378000E+03 -0.84785E-05
 0.11383000E+03 -0.13057E-04
 0.11388000E+03 -0.14515E-04
 0.11393000E+03 -0.14683E-04
 0.11398000E+03 -0.13058E-04
 0.11403000E+03 -0.86848E-05
 0.11408000E+03 -0.35459E-05
 0.11413000E+03  0.20573E-05
 0.11418000E+03  0.60220E-05
 0.11423000E+03  0.98342E-05
 0.11428000E+03  0.11895E-04
 0.11433000E+03  0.97990E-05
 0.11438000E+03  0.79520E-05
 0.11443000E+03  0.57430E-05
 0.11448000E+03  0.44280E-05
 0.11453000E+03  0.41730E-05
 0.11458000E+03  0.29824E-05
 0.11463000E+03  0.13051E-05
 0.11468000E+03 -0.20511E-05
 0.11473000E+03 -0.54996E-05
 0.11478000E+03 -0.87603E-05
 0.11483000E+03 -0.11668E-04
 0.11488000E+03 -0.12386E-04
 0.11493000E+03 -0.12580E-04
 0.11498000E+03 -0.11901E-04
 0.11503000E+03 -0.10040E-04
 0.11508000E+03 -0.82794E-05
 0.11513000E+03 -0.70471E-05
 0.11518000E+03 -0.62278E-05
 0.11523000E+03 -0.28625E-05
 0.11528000E+03  0.21882E-05
 0.11533000E+03  0.78045E-05
 0.11538000E+03  0.14394E-04
 0.11543000E+03  0.18661E-04
 0.11548000E+03  0.19725E-04
 0.11553000E+03  0.17819E-04
 0.11558000E+03  0.12969E-04
 0.11563000E+03  0.74422E-05
 0.11568000E+03  0.24841E-05
 0.11573000E+03 -0.25514E-05
 0.11578000E+03 -0.69102E-05
 0.11583000E+03 -0.11929E-04
 0.11588000E+03 -0.16277E-04
 0.11593000E+03 -0.17749E-04
 0.11598000E+03 -0.17114E-04
 0.11603000E+03 -0.12657E-04
 0.11608000E+03 -0.78191E-05
 0.11613000E+03 -0.29030E-05
 0.11618000E+03  0.14568E-06
 0.11623000E+03 -0.26308E-06
 0.11628000E+03  0.56026E-06
 0.11633000E+03 -0.37042E-06
 0.11638000E+03 -0.11401E-05
 0.11643000E+03 -0.16190E-07
 0.11648000E+03  0.49583E-06
 0.11653000E+03  0.11886E-05
 0.11658000E+03  0.30376E-05
 0.11663000E+03  0.51066E-05
 0.11668000E+03  0.53736E-05
 0.11673000E+03  0.54589E-05
 0.11678000E+03  0.52887E-05
 0.11683000E+03  0.56333E-05
 0.11688000E+03  0.73845E-05
 0.11693000E+03  0.10263E-04
 0.11698000E+03  0.11723E-04
 0.11703000E+03  0.10150E-04
 0.11708000E+03  0.81149E-05
 0.11713000E+03  0.52033E-05
 0.11718000E+03  0.24553E-05
 0.11723000E+03 -0.80555E-06
 0.11728000E+03 -0.39789E-05
 0.11733000E+03 -0.54709E-05
 0.11738000E+03 -0.55156E-05
 0.11743000E+03 -0.41271E-05
 0.11748000E+03 -0.36543E-05
 0.11753000E+03 -0.37351E-05
 0.11758000E+03 -0.41816E-05
 0.11763000E+03 -0.32897E-05
 0.11768000E+03 -0.28370E-06
 0.11773000E+03  0.37134E-05
 0.11778000E+03  0.77385E-05
 0.11783000E+03  0.87112E-05
 0.11788000E+03  0.77992E-05
 0.11793000E+03  0.65018E-05
 0.11798000E+03  0.44901E-05
 0.11803000E+03  0.90347E-06
 0.11808000E+03 -0.43860E-05
 0.11813000E+03 -0.89484E-05
 0.11818000E+03 -0.11955E-04
 0.11823000E+03 -0.11909E-04
 0.11828000E+03 -0.10206E-04
 0.11833000E+03 -0.10391E-04
 0.11838000E+03 -0.10658E-04
 0.11843000E+03 -0.96833E-05
 0.11848000E+03 -0.64772E-05
 0.11853000E+03 -0.66857E-06
 0.11858000E+03  0.47152E-05
 0.11863000E+03  0.80527E-05
 0.11868000E+03  0.10547E-04
 0.11873000E+03  0.11534E-04
 0.11878000E+03  0.12072E-04
 0.11883000E+03  0.12736E-04
 0.11888000E+03  0.93138E-05
 0.11893000E+03  0.51470E-05
 0.11898000E+03  0.11643E-05
 0.11903000E+03 -0.27688E-05
 0.11908000E+03 -0.32839E-05
 0.11913000E+03 -0.34761E-05
 0.11918000E+03 -0.39588E-05
 0.11923000E+03 -0.54154E-05
 0.11928000E+03 -0.76140E-05
 0.11933000E+03 -0.86181E-05
 0.11938000E+03 -0.84591E-05
 0.11943000E+03 -0.77429E-05
 0.11948000E+03 -0.64116E-05
 0.11953000E+03 -0.30891E-05
 0.11958000E+03  0.71881E-06
 0.11963000E+03  0.44796E-05
 0.11968000E+03  0.68023E-05
 0.11973000E+03  0.69394E-05
 0.11978000E+03  0.64961E-05
 0.11983000E+03  0.57345E-05
 0.11988000E+03  0.58449E-05
 0.11993000E+03  0.64673E-05
 0.11998000E+03  0.64642E-05
 0.12003000E+03  0.53648E-05
 0.12008000E+03  0.29639E-05
 0.12013000E+03  0.12312E-05
 0.12018000E+03  0.92475E-06
 0.12023000E+03  0.24038E-05
 0.12028000E+03  0.58769E-05
 0.12033000E+03  0.75221E-05
 0.12038000E+03  0.72197E-05
 0.12043000E+03  0.55223E-05
 0.12048000E+03  0.17650E-05
 0.12053000E+03 -0.18823E-05
 0.12058000E+03 -0.53476E-05
 0.12063000E+03 -0.68587E-05
 0.12068000E+03 -0.64951E-05
 0.12073000E+03 -0.71824E-05
 0.12078000E+03 -0.88276E-05
 0.12083000E+03 -0.11328E-04
 0.12088000E+03 -0.13361E-04
 0.12093000E+03 -0.13462E-04
 0.12098000E+03 -0.12662E-04
 0.12103000E+03 -0.10737E-04
 0.12108000E+03 -0.93098E-05
 0.12113000E+03 -0.96952E-05
 0.12118000E+03 -0.88198E-05
 0.12123000E+03 -0.57461E-05
 0.12128000E+03 -0.13584E-05
 0.12133000E+03  0.28437E-05
 0.12138000E+03  0.69420E-05
 0.12143000E+03  0.10235E-04
 0.12148000E+03  0.11116E-04
 0.12153000E+03  0.10682E-04
 0.12158000E+03  0.79305E-05
 0.12163000E+03  0.47493E-05
 0.12168000E+03  0.25324E-05
 0.12173000E+03  0.72053E-06
 0.12178000E+03  0.74363E-06
 0.12183000E+03  0.13497E-05
 0.12188000E+03  0.28618E-05
 0.12193000E+03  0.49088E-05
 0.12198000E+03  0.52110E-05
 0.12203000E+03  0.37471E-05
 0.12208000E+03  0.20584E-05
 0.12213000E+03  0.45070E-06
 0.12218000E+03 -0.31767E-05
 0.12223000E+03 -0.69883E-05
 0.12228000E+03 -0.85659E-05
 0.12233000E+03 -0.88816E-05
 0.12238000E+03 -0.69445E-05
 0.12243000E+03 -0.30570E-05
 0.12248000E+03  0.16769E-05
 0.12253000E+03  0.45358E-05
 0.12258000E+03  0.39959E-05
 0.12263000E+03  0.33180E-05
 0.12268000E+03  0.21709E-05
 0.12273000E+03  0.26659E-05
 0.12278000E+03  0.43707E-05
 0.12283000E+03  0.54281E-05
 0.12288000E+03  0.68213E-05
 0.12293000E+03  0.63002E-05
 0.12298000E+03  0.51957E-05
 0.12303000E+03  0.36271E-05
 0.12308000E+03  0.24057E-05
 0.12313000E+03  0.18874E-05
 0.12318000E+03  0.98009E-06
 0.12323000E+03 -0.98488E-06
 0.12328000E+03 -0.34671E-05
 0.12333000E+03 -0.43970E-05
 0.12338000E+03 -0.45232E-05
 0.12343000E+03 -0.39662E-05
 0.12348000E+03 -0.43830E-05
 0.12353000E+03 -0.39265E-05
 0.12358000E+03 -0.10862E-05
 0.12363000E+03  0.20626E-05
 0.12368000E+03  0.40787E-05
 0.12373000E+03  0.37569E-05
 0.12378000E+03  0.21290E-05
 0.12383000E+03  0.79696E-06
 0.12388000E+03 -0.55030E-06
 0.12393000E+03 -0.17943E-05
 0.12398000E+03 -0.19586E-05
 0.12403000E+03 -0.14869E-05
 0.12408000E+03  0.17497E-06
 0.12413000E+03  0.23747E-05
 0.12418000E+03  0.46937E-05
 0.12423000E+03  0.62993E-05
 0.12428000E+03  0.73148E-05
 0.12433000E+03  0.75679E-05
 0.12438000E+03  0.65158E-05
 0.12443000E+03  0.50642E-05
 0.12448000E+03  0.30221E-05
 0.12453000E+03  0.11716E-05
 0.12458000E+03 -0.13623E-05
 0.12463000E+03 -0.36002E-05
 0.12468000E+03 -0.51875E-05
 0.12473000E+03 -0.70143E-05
 0.12478000E+03 -0.94663E-05
 0.12483000E+03 -0.12965E-04
 0.12488000E+03 -0.15981E-04
 0.12493000E+03 -0.18797E-04
 0.12498000E+03 -0.21103E-04
 0.12503000E+03 -0.21369E-04
 0.12508000E+03 -0.18376E-04
 0.12513000E+03 -0.12475E-04
 0.12518000E+03 -0.54658E-05
 0.12523000E+03  0.80400E-06
 0.12528000E+03  0.58010E-05
 0.12533000E+03  0.10274E-04
 0.12538000E+03  0.15267E-04
 0.12543000E+03  0.20945E-04
 0.12548000E+03  0.25346E-04
 0.12553000E+03  0.27689E-04
 0.12558000E+03  0.27142E-04
 0.12563000E+03  0.24391E-04
 0.12568000E+03  0.18497E-04
 0.12573000E+03  0.90092E-05
 0.12578000E+03 -0.73524E-07
 0.12583000E+03 -0.89845E-05
 0.12588000E+03 -0.15818E-04
 0.12593000E+03 -0.19437E-04
 0.12598000E+03 -0.21405E-04
 0.12603000E+03 -0.20750E-04
 0.12608000E+03 -0.18746E-04
 0.12613000E+03 -0.15627E-04
 0.12618000E+03 -0.11481E-04
 0.12623000E+03 -0.53825E-05
 0.12628000E+03  0.13254E-05
 0.12633000E+03  0.56034E-05
 0.12638000E+03  0.80895E-05
 0.12643000E+03  0.84067E-05
 0.12648000E+03  0.78882E-05
 0.12653000E+03  0.72904E-05
 0.12658000E+03  0.56672E-05
 0.12663000E+03  0.43922E-05
 0.12668000E+03  0.55337E-05
 0.12673000E+03  0.68360E-05
 0.12678000E+03  0.60230E-05
 0.12683000E+03  0.47138E-05
 0.12688000E+03  0.19695E-05
 0.12693000E+03 -0.12009E-05
 0.12698000E+03 -0.25024E-05
 0.12703000E+03 -0.28086E-05
 0.12708000E+03 -0.29707E-05
 0.12713000E+03 -0.26395E-05
 0.12718000E+03 -0.10341E-05
 0.12723000E+03  0.96592E-06
 0.12728000E+03  0.17950E-05
 0.12733000E+03  0.21492E-05
 0.12738000E+03  0.25872E-06
 0.12743000E+03 -0.16545E-05
 0.12748000E+03 -0.33382E-06
 0.12753000E+03  0.17779E-05
 0.12758000E+03  0.25620E-05
 0.12763000E+03 -0.53528E-06
 0.12768000E+03 -0.37850E-05
 0.12773000E+03 -0.54446E-05
 0.12778000E+03 -0.82239E-05
 0.12783000E+03 -0.11682E-04
 0.12788000E+03 -0.10302E-04
 0.12793000E+03 -0.59598E-05
 0.12798000E+03 -0.38491E-05
 0.12803000E+03 -0.13268E-06
 0.12808000E+03  0.27541E-05
 0.12813000E+03  0.59878E-05
 0.12818001E+03  0.79309E-05
 0.12823000E+03  0.66098E-05
 0.12828000E+03  0.78234E-05
 0.12833000E+03  0.60439E-05
 0.12838000E+03  0.41290E-05
 0.12843001E+03  0.47257E-05
 0.12848000E+03  0.41336E-05
 0.12853000E+03  0.60280E-05
 0.12858000E+03  0.75405E-05
 0.12863000E+03  0.88491E-05
 0.12868001E+03  0.94386E-05
 0.12873000E+03  0.95892E-05
 0.12878000E+03  0.74910E-05
 0.12883000E+03  0.12332E-05
 0.12888000E+03 -0.10096E-05
 0.12893001E+03 -0.25926E-05
 0.12898000E+03 -0.66973E-05
 0.12903000E+03 -0.94965E-05
 0.12908000E+03 -0.10769E-04
 0.12913000E+03 -0.11006E-04
 0.12918001E+03 -0.10480E-04
 0.12923000E+03 -0.83345E-05
 0.12928000E+03 -0.69045E-05
 0.12933000E+03 -0.61195E-05
 0.12938000E+03 -0.66929E-05
 0.12943001E+03 -0.10206E-04
 0.12948000E+03 -0.96409E-05
 0.12953000E+03 -0.60964E-05
 0.12958000E+03 -0.34607E-05
 0.12963000E+03 -0.75295E-06
 0.12968001E+03  0.37160E-05
 0.12973000E+03  0.71387E-05
 0.12978000E+03  0.82869E-05
 0.12983000E+03  0.12569E-04
 0.12988000E+03  0.13926E-04
 0.12993001E+03  0.10990E-04
 0.12998000E+03  0.60992E-05
 0.13003000E+03  0.10177E-05
 0.13008000E+03 -0.11711E-05
 0.13013000E+03 -0.42841E-05
 0.13018001E+03 -0.82328E-05
 0.13023000E+03 -0.92372E-05
 0.13028000E+03 -0.75693E-05
 0.13033000E+03 -0.74871E-05
 0.13038000E+03 -0.77607E-05
 0.13043001E+03 -0.85188E-05
 0.13048000E+03 -0.57065E-05
 0.13053000E+03  0.74580E-06
 0.13058000E+03  0.23444E-05
 0.13063000E+03  0.54052E-05
 0.13068001E+03  0.98422E-05
 0.13073000E+03  0.12375E-04
 0.13078000E+03  0.13320E-04
 0.13083000E+03  0.11307E-04
 0.13088000E+03  0.98446E-05
 0.13093001E+03  0.59498E-05
 0.13098000E+03  0.16429E-05
 0.13103000E+03  0.13446E-05
 0.13108000E+03  0.14415E-05
 0.13113000E+03  0.86307E-06
 0.13118001E+03  0.86402E-06
 0.13123000E+03 -0.53813E-06
 0.13128000E+03 -0.21518E-05
 0.13133000E+03 -0.17127E-05
 0.13138000E+03 -0.30872E-06
 0.13143001E+03  0.64955E-06
 0.13148000E+03 -0.39429E-07
 0.13153000E+03  0.70759E-06
 0.13158000E+03  0.18445E-06
 0.13163000E+03 -0.23121E-05
 0.13168001E+03 -0.18503E-05
 0.13173000E+03 -0.11512E-05
 0.13178000E+03 -0.28060E-05
 0.13183000E+03 -0.51200E-05
 0.13188000E+03 -0.65525E-05
 0.13193001E+03 -0.82249E-05
 0.13198000E+03 -0.81509E-05
 0.13203000E+03 -0.71530E-05
 0.13208000E+03 -0.72729E-05
 0.13213000E+03 -0.63717E-05
 0.13218001E+03 -0.69478E-05
 0.13223000E+03 -0.56924E-05
 0.13228000E+03 -0.16331E-05
 0.13233000E+03  0.25875E-06
 0.13238000E+03  0.13443E-05
 0.13243001E+03  0.49636E-05
 0.13248000E+03  0.84969E-05
 0.13253000E+03  0.10525E-04
 0.13258000E+03  0.13723E-04
 0.13263000E+03  0.12703E-04
 0.13268001E+03  0.83677E-05
 0.13273000E+03  0.28080E-05
 0.13278000E+03 -0.18662E-05
 0.13283000E+03 -0.40886E-05
 0.13288000E+03 -0.51047E-05
 0.13293001E+03 -0.30055E-05
 0.13298000E+03 -0.10377E-05
 0.13303000E+03  0.95185E-06
 0.13308000E+03  0.26532E-05
 0.13313000E+03  0.39593E-05
 0.13318001E+03  0.41800E-06
 0.13323000E+03 -0.32022E-05
 0.13328000E+03 -0.33772E-05
 0.13333000E+03 -0.67996E-05
 0.13338000E+03 -0.79195E-05
 0.13343001E+03 -0.76454E-05
 0.13348000E+03 -0.43042E-05
 0.13353000E+03 -0.25317E-05
 0.13358000E+03 -0.25786E-05
 0.13363000E+03  0.31909E-05
 0.13368001E+03  0.58211E-05
 0.13373000E+03  0.65840E-05
 0.13378000E+03  0.66120E-05
 0.13383000E+03  0.31357E-05
 0.13388000E+03  0.16896E-05
 0.13393001E+03  0.10127E-05
 0.13398000E+03  0.29871E-06
 0.13403000E+03  0.39851E-06
 0.13408000E+03 -0.19330E-05
 0.13413000E+03 -0.33299E-05
 0.13418001E+03 -0.38350E-05
 0.13423000E+03 -0.50469E-05
 0.13428000E+03 -0.57828E-05
 0.13433000E+03 -0.65884E-05
 0.13438000E+03 -0.75419E-05
 0.13443001E+03 -0.90436E-05
 0.13448000E+03 -0.83902E-05
 0.13453000E+03 -0.59777E-05
 0.13458000E+03 -0.22607E-05
 0.13463000E+03  0.15144E-05
 0.13468001E+03  0.21538E-05
 0.13473000E+03  0.23476E-05
 0.13478000E+03  0.53820E-05
 0.13483000E+03  0.77847E-05
 0.13488000E+03  0.83872E-05
 0.13493001E+03  0.91463E-05
 0.13498000E+03  0.10429E-04
 0.13503000E+03  0.15057E-04
 0.13508000E+03  0.19047E-04
 0.13513000E+03  0.19106E-04
 0.13518001E+03  0.15147E-04
 0.13523000E+03  0.97128E-05
 0.13528000E+03  0.56382E-05
 0.13533000E+03 -0.19039E-05
 0.13538000E+03 -0.10958E-04
 0.13543001E+03 -0.16987E-04
 0.13548000E+03 -0.18782E-04
 0.13553000E+03 -0.17973E-04
 0.13558000E+03 -0.17124E-04
 0.13563000E+03 -0.15215E-04
 0.13568001E+03 -0.10963E-04
 0.13573000E+03 -0.58839E-05
 0.13578000E+03 -0.24194E-05
 0.13583000E+03  0.11528E-05
 0.13588000E+03  0.43921E-05
 0.13593001E+03  0.69023E-05
 0.13598000E+03  0.85839E-05
 0.13603000E+03  0.76153E-05
 0.13608000E+03  0.70627E-05
 0.13613000E+03  0.57518E-05
 0.13618001E+03  0.44478E-05
 0.13623000E+03  0.58253E-05
 0.13628000E+03  0.48227E-05
 0.13633000E+03  0.33606E-05
 0.13638000E+03  0.33569E-05
 0.13643001E+03  0.24288E-05
 0.13648000E+03  0.15831E-05
 0.13653000E+03  0.23150E-06
 0.13658000E+03 -0.10526E-05
 0.13663000E+03 -0.10567E-05
 0.13668001E+03 -0.30510E-05
 0.13673000E+03 -0.52584E-05
 0.13678000E+03 -0.51698E-05
 0.13683000E+03 -0.47717E-05
 0.13688000E+03 -0.20735E-05
 0.13693001E+03 -0.12305E-05
 0.13698000E+03 -0.27408E-05
 0.13703000E+03 -0.14974E-05
 0.13708000E+03  0.14206E-05
 0.13713000E+03  0.29774E-05
 0.13718001E+03  0.16055E-05
 0.13723000E+03 -0.47246E-06
 0.13728000E+03 -0.11330E-05
 0.13733000E+03 -0.10156E-05
 0.13738000E+03 -0.15192E-05
 0.13743001E+03 -0.24194E-06
 0.13748000E+03  0.30459E-06
 0.13753000E+03  0.14600E-06
 0.13758000E+03  0.11532E-06
 0.13763000E+03 -0.24514E-05
 0.13768001E+03 -0.23126E-05
 0.13773000E+03 -0.20422E-05
 0.13778000E+03 -0.41347E-05
 0.13783000E+03 -0.40726E-05
 0.13788000E+03 -0.41135E-05
 0.13793001E+03 -0.43022E-05
 0.13798000E+03 -0.13827E-05
 0.13803000E+03  0.11456E-06
 0.13808000E+03  0.90568E-06
 0.13813000E+03  0.36218E-05
 0.13818001E+03  0.43193E-05
 0.13823000E+03  0.45947E-05
 0.13828000E+03  0.52469E-05
 0.13833000E+03  0.56202E-05
 0.13838000E+03  0.54932E-05
 0.13843001E+03  0.37203E-05
 0.13848000E+03  0.23763E-05
 0.13853000E+03  0.34609E-05
 0.13858000E+03  0.31165E-05
 0.13863000E+03  0.13883E-05
 0.13868001E+03  0.87590E-06
 0.13873000E+03 -0.41559E-06
 0.13878000E+03 -0.18686E-05
 0.13883000E+03 -0.38385E-05
 0.13888000E+03 -0.60107E-05
 0.13893001E+03 -0.76850E-05
 0.13898000E+03 -0.70822E-05
 0.13903000E+03 -0.46851E-05
 0.13908000E+03 -0.34191E-05
 0.13913000E+03 -0.20337E-05
 0.13918001E+03 -0.69129E-06
 0.13923000E+03 -0.49899E-06
 0.13928000E+03 -0.12499E-05
 0.13933000E+03  0.94930E-07
 0.13938000E+03  0.30320E-05
 0.13943001E+03  0.40152E-05
 0.13948000E+03  0.48640E-05
 0.13953000E+03  0.62065E-05
 0.13958000E+03  0.72060E-05
 0.13963000E+03  0.63999E-05
 0.13968001E+03  0.40374E-05
 0.13973000E+03  0.38699E-05
 0.13978000E+03  0.21055E-05
 0.13983000E+03 -0.24922E-05
 0.13988000E+03 -0.57891E-05
 0.13993001E+03 -0.73485E-05
 0.13998000E+03 -0.10169E-04
 0.14003000E+03 -0.13448E-04
 0.14008000E+03 -0.12235E-04
 0.14013000E+03 -0.85269E-05
 0.14018001E+03 -0.39635E-05
 0.14023000E+03  0.35204E-06
 0.14028000E+03  0.68811E-05
 0.14033000E+03  0.13433E-04
 0.14038000E+03  0.14643E-04
 0.14043001E+03  0.14098E-04
 0.14048000E+03  0.11895E-04
 0.14053000E+03  0.83016E-05
 0.14058000E+03  0.37762E-05
 0.14063000E+03 -0.15400E-05
 0.14068001E+03 -0.55488E-05
 0.14073000E+03 -0.74039E-05
 0.14078000E+03 -0.79412E-05
 0.14083000E+03 -0.69074E-05
 0.14088000E+03 -0.51869E-05
 0.14093001E+03 -0.31941E-05
 0.14098000E+03  0.70685E-06
 0.14103000E+03  0.29908E-05
 0.14108000E+03  0.30830E-05
 0.14113000E+03  0.43252E-05
 0.14118001E+03  0.67608E-05
 0.14123000E+03  0.59999E-05
 0.14128000E+03  0.27568E-05
 0.14133000E+03  0.73347E-06
 0.14138000E+03 -0.41462E-06
 0.14143001E+03 -0.11252E-05
 0.14148000E+03 -0.37343E-05
 0.14153000E+03 -0.45370E-05
 0.14158000E+03 -0.30743E-05
 0.14163000E+03 -0.24531E-05
 0.14168001E+03 -0.20191E-05
 0.14173000E+03 -0.39087E-05
 0.14178000E+03 -0.41966E-05
 0.14183000E+03 -0.31568E-05
 0.14188000E+03 -0.15217E-05
 0.14193001E+03  0.23215E-05
 0.14198000E+03  0.19721E-05
 0.14203000E+03  0.83839E-06
 0.14208000E+03  0.15607E-05
 0.14213000E+03  0.23741E-05
 0.14218001E+03  0.38243E-05
 0.14223000E+03  0.24561E-05
 0.14228000E+03  0.41242E-06
 0.14233000E+03 -0.80250E-06
 0.14238000E+03 -0.14014E-05
 0.14243001E+03 -0.14207E-05
 0.14248000E+03 -0.12533E-05
 0.14253000E+03 -0.47328E-07
 0.14258000E+03 -0.63644E-06
 0.14263000E+03 -0.23892E-05
 0.14268001E+03 -0.27333E-05
 0.14273000E+03 -0.38175E-05
 0.14278000E+03 -0.41914E-05
 0.14283000E+03 -0.11028E-05
 0.14288000E+03  0.18759E-05
 0.14293001E+03  0.19334E-05
 0.14298000E+03  0.11783E-05
 0.14303000E+03  0.22331E-05
 0.14308000E+03  0.21450E-05
 0.14313000E+03  0.73594E-06
 0.14318001E+03  0.10201E-05
 0.14323000E+03  0.85939E-07
 0.14328000E+03 -0.33058E-05
 0.14333000E+03 -0.52203E-05
 0.14338000E+03 -0.41093E-05
 0.14343001E+03 -0.20724E-05
 0.14348000E+03 -0.12687E-05
 0.14353000E+03 -0.12937E-06
 0.14358000E+03  0.17139E-05
 0.14363000E+03  0.13252E-05
 0.14368001E+03  0.12209E-05
 0.14373000E+03  0.27889E-06
 0.14378000E+03 -0.50368E-06
 0.14383000E+03  0.45811E-05
 0.14388000E+03  0.94769E-05
 0.14393001E+03  0.54056E-05
 0.14398000E+03  0.27404E-06
 0.14403000E+03  0.49620E-06
 0.14408000E+03 -0.13469E-05
 0.14413000E+03 -0.10110E-05
 0.14418001E+03  0.26713E-05
 0.14423000E+03  0.36406E-05
 0.14428000E+03  0.37279E-05
 0.14433000E+03  0.38978E-05
 0.14438000E+03  0.50517E-05
 0.14443001E+03  0.32563E-05
 0.14448000E+03  0.14192E-06
 0.14453000E+03 -0.56301E-06
 0.14458000E+03 -0.31476E-05
 0.14463000E+03 -0.39491E-05
 0.14468001E+03 -0.57805E-05
 0.14473000E+03 -0.14630E-04
 0.14478000E+03 -0.16760E-04
 0.14483000E+03 -0.90701E-05
 0.14488000E+03 -0.45799E-05
 0.14493001E+03 -0.37779E-05
 0.14498000E+03 -0.23179E-05
 0.14503000E+03  0.13114E-05
 0.14508000E+03  0.19652E-05
 0.14513000E+03  0.18905E-05
 0.14518001E+03  0.44457E-05
 0.14523000E+03  0.56402E-05
 0.14528000E+03  0.61103E-05
 0.14533000E+03  0.46947E-05
 0.14538000E+03  0.45214E-05
 0.14543001E+03  0.35460E-05
 0.14548000E+03  0.16870E-05
 0.14553000E+03  0.22318E-06
 0.14558000E+03 -0.32511E-05
 0.14563000E+03 -0.39457E-05
 0.14568001E+03  0.17888E-05
 0.14573000E+03  0.83163E-05
 0.14578000E+03  0.83387E-05
 0.14583000E+03  0.80115E-05
 0.14588000E+03  0.62934E-05
 0.14593001E+03  0.64889E-06
 0.14598000E+03 -0.36624E-05
 0.14603000E+03 -0.50656E-05
 0.14608000E+03 -0.27149E-05
 0.14613000E+03 -0.10023E-05
 0.14618001E+03 -0.18523E-05
 0.14623000E+03 -0.30536E-05
 0.14628000E+03 -0.55821E-05
 0.14633000E+03 -0.79347E-05
 0.14638000E+03 -0.26408E-05
 0.14643001E+03  0.28985E-05
 0.14648000E+03  0.48482E-05
 0.14653000E+03  0.50770E-05
 0.14658000E+03  0.65986E-06
 0.14663000E+03  0.14095E-05
 0.14668001E+03  0.26421E-06
 0.14673000E+03 -0.12937E-05
 0.14678000E+03  0.13289E-05
 0.14683000E+03 -0.59459E-06
 0.14688000E+03 -0.13495E-05
 0.14693001E+03 -0.13891E-05
 0.14698000E+03  0.23105E-06
 0.14703000E+03 -0.10093E-05
 0.14708000E+03 -0.33157E-05
 0.14713000E+03  0.27020E-08
 0.14718001E+03  0.21367E-05
 0.14723000E+03  0.45341E-05
 0.14728000E+03  0.33114E-05
 0.14733000E+03  0.32173E-05
 0.14738000E+03  0.41467E-05
 0.14743001E+03  0.11003E-05
 0.14748000E+03  0.18713E-05
 0.14753000E+03 -0.38238E-05
 0.14758000E+03 -0.70976E-05
 0.14763000E+03 -0.39474E-05
 0.14768001E+03 -0.52738E-05
 0.14773000E+03 -0.23688E-05
 0.14778000E+03 -0.41166E-06
 0.14783000E+03 -0.34533E-06
 0.14788000E+03 -0.25108E-05
 0.14793001E+03 -0.44010E-05
 0.14798000E+03 -0.38381E-05
 0.14803000E+03 -0.78058E-05
 0.14808000E+03 -0.54249E-05
 0.14813000E+03  0.15815E-05
 0.14818001E+03  0.59509E-05
 0.14823000E+03  0.79265E-05
 0.14828000E+03  0.51210E-05
 0.14833000E+03  0.33086E-05
 0.14838000E+03  0.32417E-05
 0.14843001E+03  0.14478E-05
 0.14848000E+03  0.68668E-06
 0.14853000E+03  0.81742E-06
 0.14858000E+03 -0.21881E-06
 0.14863000E+03 -0.18677E-05
 0.14868001E+03 -0.57725E-06
 0.14873000E+03  0.22461E-05
 0.14878000E+03  0.66137E-06
 0.14883000E+03 -0.22945E-06
 0.14888000E+03 -0.64825E-06
 0.14893001E+03 -0.11293E-07
 0.14898000E+03  0.32864E-05
 0.14903000E+03  0.27425E-05
 0.14908000E+03  0.82886E-06
 0.14913000E+03 -0.93138E-06
 0.14918001E+03 -0.12450E-05
 0.14923000E+03 -0.36555E-05
 0.14928000E+03 -0.51955E-05
 0.14933000E+03 -0.22656E-05
 0.14938000E+03 -0.35841E-05
 0.14943001E+03 -0.53435E-05
 0.14948000E+03 -0.66888E-05
 0.14953000E+03 -0.56137E-05
 0.14958000E+03 -0.22362E-07
 0.14963000E+03  0.22982E-05
 0.14968001E+03  0.67569E-06
 0.14973000E+03 -0.51625E-06
 0.14978000E+03  0.23991E-05
 0.14983000E+03  0.81860E-05
 0.14988000E+03  0.11365E-04
 0.14993001E+03  0.95743E-05
 0.14998000E+03  0.91013E-05
