-0.20000458E-01 -0.20902E-06
 0.29999543E-01 -0.10594E-05
 0.79999544E-01  0.16062E-06
 0.12999955E+00  0.10053E-05
 0.17999955E+00 -0.72959E-06
 0.22999954E+00 -0.95715E-07
 0.27999955E+00  0.13089E-05
 0.32999954E+00  0.87615E-06
 0.37999955E+00  0.16419E-06
 0.42999956E+00  0.11201E-05
 0.47999954E+00  0.12294E-05
 0.52999955E+00  0.42628E-08
 0.57999957E+00 -0.30832E-06
 0.62999958E+00 -0.18234E-06
 0.67999953E+00 -0.72336E-06
 0.72999954E+00 -0.92186E-06
 0.77999955E+00  0.52314E-06
 0.82999957E+00  0.66192E-06
 0.87999958E+00 -0.80049E-06
 0.92999953E+00 -0.49537E-06
 0.97999954E+00  0.70501E-06
 0.10299996E+01 -0.32696E-06
 0.10799996E+01 -0.12311E-05
 0.11299995E+01 -0.68775E-07
 0.11799996E+01 -0.51560E-06
 0.12299995E+01 -0.17867E-05
 0.12799996E+01 -0.43193E-06
 0.13299996E+01  0.14417E-05
 0.13799995E+01  0.29219E-06
 0.14299996E+01 -0.12870E-05
 0.14799995E+01 -0.62052E-06
 0.15299996E+01 -0.67787E-06
 0.15799996E+01 -0.18427E-05
 0.16299995E+01 -0.24981E-06
 0.16799996E+01  0.20139E-05
 0.17299995E+01  0.48441E-06
 0.17799996E+01 -0.76331E-06
 0.18299996E+01  0.48102E-06
 0.18799995E+01  0.40921E-06
 0.19299996E+01 -0.81156E-06
 0.19799995E+01 -0.65479E-06
 0.20299995E+01  0.49125E-06
 0.20799997E+01  0.23846E-06
 0.21299996E+01 -0.26870E-06
 0.21799996E+01  0.13638E-05
 0.22299995E+01  0.12650E-05
 0.22799995E+01 -0.49875E-06
 0.23299997E+01  0.46210E-06
 0.23799996E+01  0.89229E-06
 0.24299996E+01 -0.22099E-06
 0.24799995E+01  0.10239E-06
 0.25299995E+01  0.10335E-05
 0.25799997E+01  0.57895E-06
 0.26299996E+01 -0.44012E-06
 0.26799996E+01 -0.28694E-06
 0.27299995E+01  0.36262E-06
 0.27799995E+01  0.51246E-07
 0.28299997E+01 -0.53446E-06
 0.28799996E+01  0.90732E-06
 0.29299996E+01  0.10361E-05
 0.29799995E+01 -0.87525E-06
 0.30299995E+01 -0.49943E-06
 0.30799997E+01  0.29091E-06
 0.31299996E+01 -0.40264E-07
 0.31799996E+01  0.14519E-06
 0.32299995E+01  0.10480E-05
 0.32799995E+01  0.78551E-06
 0.33299997E+01 -0.22756E-06
 0.33799996E+01 -0.55789E-07
 0.34299996E+01 -0.12699E-06
 0.34799995E+01 -0.64999E-06
 0.35299995E+01 -0.48003E-06
 0.35799997E+01  0.33964E-06
 0.36299996E+01  0.31234E-06
 0.36799996E+01 -0.81482E-06
 0.37299995E+01 -0.86252E-06
 0.37799995E+01 -0.49413E-06
 0.38299997E+01 -0.93611E-06
 0.38799996E+01 -0.41243E-06
 0.39299996E+01  0.91509E-06
 0.39799995E+01  0.38058E-06
 0.40299997E+01 -0.43579E-06
 0.40799994E+01 -0.86760E-07
 0.41299996E+01 -0.34220E-06
 0.41799998E+01 -0.81587E-06
 0.42299995E+01 -0.78553E-06
 0.42799997E+01 -0.15814E-06
 0.43299994E+01  0.30276E-06
 0.43799996E+01  0.35382E-06
 0.44299998E+01  0.43325E-06
 0.44799995E+01  0.24444E-06
 0.45299997E+01 -0.59259E-06
 0.45799994E+01 -0.12053E-05
 0.46299996E+01 -0.25775E-06
 0.46799998E+01 -0.24799E-06
 0.47299995E+01 -0.72972E-06
 0.47799997E+01  0.44564E-06
 0.48299994E+01  0.47500E-06
 0.48799996E+01  0.29274E-06
 0.49299998E+01  0.10154E-05
 0.49799995E+01  0.86137E-06
 0.50299997E+01  0.78123E-06
 0.50799994E+01  0.24828E-06
 0.51299996E+01 -0.40753E-06
 0.51799998E+01  0.75300E-07
 0.52299995E+01 -0.14681E-06
 0.52799997E+01 -0.33984E-06
 0.53299994E+01  0.89388E-06
 0.53799996E+01  0.76173E-06
 0.54299998E+01 -0.65249E-07
 0.54799995E+01  0.66601E-06
 0.55299997E+01  0.68306E-06
 0.55799994E+01  0.15287E-06
 0.56299996E+01  0.16970E-06
 0.56799998E+01 -0.12337E-06
 0.57299995E+01 -0.24287E-06
 0.57799997E+01 -0.14215E-06
 0.58299994E+01 -0.16288E-06
 0.58799996E+01  0.17679E-06
 0.59299998E+01  0.25441E-06
 0.59799995E+01 -0.25470E-06
 0.60299997E+01 -0.63204E-06
 0.60799994E+01 -0.60051E-06
 0.61299996E+01 -0.81427E-07
 0.61799998E+01  0.19693E-06
 0.62299995E+01  0.35709E-06
 0.62799997E+01  0.28600E-06
 0.63299994E+01 -0.54505E-06
 0.63799996E+01 -0.11501E-05
 0.64299998E+01 -0.12663E-05
 0.64799995E+01 -0.12467E-05
 0.65299997E+01 -0.69737E-06
 0.65799994E+01 -0.10264E-07
 0.66299996E+01  0.23898E-07
 0.66799998E+01  0.31630E-06
 0.67299995E+01  0.45169E-06
 0.67799997E+01  0.25146E-06
 0.68299994E+01  0.51401E-06
 0.68799996E+01  0.58095E-07
 0.69299998E+01 -0.49738E-06
 0.69799995E+01  0.12448E-06
 0.70299997E+01  0.81500E-06
 0.70799994E+01  0.56865E-06
 0.71299996E+01  0.47190E-06
 0.71799998E+01  0.50178E-06
 0.72299995E+01 -0.32260E-06
 0.72799997E+01 -0.25511E-06
 0.73299994E+01  0.55588E-06
 0.73799996E+01  0.47762E-06
 0.74299998E+01  0.35724E-06
 0.74799995E+01  0.34044E-06
 0.75299997E+01  0.22212E-06
 0.75799994E+01 -0.25633E-07
 0.76299996E+01 -0.56449E-07
 0.76799998E+01  0.51260E-06
 0.77299995E+01  0.59707E-06
 0.77799997E+01  0.31050E-06
 0.78299994E+01 -0.20501E-06
 0.78799996E+01 -0.62100E-06
 0.79299998E+01 -0.58841E-06
 0.79799995E+01 -0.73792E-06
 0.80299997E+01 -0.44865E-06
 0.80799999E+01 -0.85788E-07
 0.81300001E+01  0.16146E-06
 0.81799994E+01  0.28797E-06
 0.82299995E+01  0.41726E-06
 0.82799997E+01  0.44629E-06
 0.83299999E+01 -0.16031E-06
 0.83800001E+01 -0.29971E-06
 0.84299994E+01 -0.10588E-05
 0.84799995E+01 -0.13002E-05
 0.85299997E+01 -0.34748E-06
 0.85799999E+01 -0.42393E-06
 0.86300001E+01  0.20647E-06
 0.86799994E+01  0.89206E-06
 0.87299995E+01  0.66084E-07
 0.87799997E+01 -0.44733E-06
 0.88299999E+01 -0.67829E-06
 0.88800001E+01 -0.91960E-06
 0.89299994E+01 -0.27363E-06
 0.89799995E+01  0.31539E-06
 0.90299997E+01  0.13574E-06
 0.90799999E+01  0.32658E-06
 0.91300001E+01  0.43674E-06
 0.91799994E+01 -0.17944E-06
 0.92299995E+01 -0.23307E-06
 0.92799997E+01 -0.26911E-06
 0.93299999E+01 -0.53155E-06
 0.93800001E+01  0.40400E-07
 0.94299994E+01  0.35815E-06
 0.94799995E+01  0.29004E-06
 0.95299997E+01  0.66476E-06
 0.95799999E+01  0.72185E-06
 0.96300001E+01  0.62665E-06
 0.96799994E+01  0.78384E-06
 0.97299995E+01  0.51236E-06
 0.97799997E+01  0.45493E-06
 0.98299999E+01  0.52667E-06
 0.98800001E+01 -0.38638E-07
 0.99299994E+01 -0.38282E-06
 0.99799995E+01  0.18714E-06
 0.10030000E+02  0.83807E-06
 0.10080000E+02  0.68031E-06
 0.10130000E+02  0.88727E-06
 0.10179999E+02  0.11817E-05
 0.10230000E+02  0.15410E-06
 0.10280000E+02 -0.53514E-06
 0.10330000E+02 -0.55613E-06
 0.10380000E+02 -0.97808E-06
 0.10429999E+02 -0.11930E-05
 0.10480000E+02 -0.69916E-06
 0.10530000E+02  0.37643E-06
 0.10580000E+02  0.42118E-06
 0.10630000E+02 -0.25733E-06
 0.10679999E+02 -0.32686E-06
 0.10730000E+02 -0.94093E-06
 0.10780000E+02 -0.17378E-05
 0.10830000E+02 -0.10744E-05
 0.10880000E+02  0.25593E-06
 0.10929999E+02  0.45845E-06
 0.10980000E+02  0.57188E-06
 0.11030000E+02  0.48030E-06
 0.11080000E+02 -0.51062E-06
 0.11130000E+02 -0.67997E-06
 0.11179999E+02 -0.44627E-06
 0.11230000E+02 -0.36237E-06
 0.11280000E+02 -0.24865E-07
 0.11330000E+02  0.48510E-06
 0.11380000E+02  0.61789E-06
 0.11429999E+02  0.34283E-06
 0.11480000E+02  0.39091E-06
 0.11530000E+02  0.40945E-06
 0.11580000E+02 -0.20984E-06
 0.11630000E+02 -0.58890E-06
 0.11679999E+02  0.12546E-06
 0.11730000E+02  0.22220E-06
 0.11780000E+02 -0.95117E-07
 0.11830000E+02  0.17618E-06
 0.11880000E+02 -0.53496E-07
 0.11929999E+02 -0.24997E-06
 0.11980000E+02  0.42697E-06
 0.12030000E+02  0.57478E-06
 0.12080000E+02 -0.13782E-06
 0.12130000E+02 -0.31645E-06
 0.12179999E+02 -0.61181E-06
 0.12230000E+02 -0.55352E-06
 0.12280000E+02  0.40060E-07
 0.12330000E+02 -0.45817E-07
 0.12380000E+02  0.33431E-06
 0.12429999E+02  0.48506E-06
 0.12480000E+02 -0.28718E-06
 0.12530000E+02 -0.36359E-07
 0.12580000E+02  0.34765E-06
 0.12630000E+02 -0.42944E-06
 0.12679999E+02 -0.59164E-06
 0.12730000E+02  0.24929E-06
 0.12780000E+02  0.31160E-06
 0.12830000E+02  0.31215E-07
 0.12880000E+02  0.70684E-06
 0.12929999E+02  0.97263E-06
 0.12980000E+02  0.20445E-06
 0.13030000E+02 -0.18372E-06
 0.13080000E+02  0.11927E-06
 0.13130000E+02 -0.22426E-06
 0.13179999E+02 -0.40620E-06
 0.13230000E+02  0.42117E-06
 0.13280000E+02  0.62392E-06
 0.13330000E+02  0.23157E-06
 0.13380000E+02 -0.47739E-09
 0.13429999E+02  0.31027E-06
 0.13480000E+02  0.25110E-07
 0.13530000E+02 -0.43475E-06
 0.13580000E+02  0.50308E-06
 0.13630000E+02  0.87448E-06
 0.13679999E+02 -0.45941E-07
 0.13730000E+02 -0.73567E-06
 0.13780000E+02 -0.20241E-06
 0.13830000E+02  0.29832E-07
 0.13880000E+02 -0.42190E-06
 0.13929999E+02  0.12041E-06
 0.13980000E+02  0.61130E-06
 0.14030000E+02 -0.12477E-06
 0.14080000E+02 -0.69249E-06
 0.14130000E+02 -0.13409E-06
 0.14179999E+02 -0.16235E-06
 0.14230000E+02 -0.81918E-06
 0.14280000E+02 -0.60307E-06
 0.14330000E+02 -0.12580E-06
 0.14380000E+02 -0.13547E-06
 0.14429999E+02 -0.63317E-07
 0.14480000E+02  0.32028E-06
 0.14530000E+02  0.20579E-06
 0.14580000E+02 -0.57538E-06
 0.14630000E+02 -0.26003E-06
 0.14679999E+02  0.58685E-06
 0.14730000E+02 -0.39249E-06
 0.14780000E+02 -0.52952E-06
 0.14830000E+02  0.90810E-06
 0.14880000E+02  0.54788E-06
 0.14929999E+02 -0.62713E-06
 0.14980000E+02 -0.21016E-06
 0.15030000E+02  0.59224E-06
 0.15080000E+02 -0.53271E-07
 0.15130000E+02 -0.68194E-06
 0.15179999E+02  0.18786E-06
 0.15230000E+02  0.44420E-06
 0.15280000E+02 -0.71657E-06
 0.15330000E+02 -0.42840E-06
 0.15380000E+02  0.94158E-06
 0.15429999E+02  0.12667E-06
 0.15480000E+02 -0.84023E-06
 0.15530000E+02  0.28871E-06
 0.15580000E+02  0.23980E-06
 0.15630000E+02 -0.11232E-05
 0.15679999E+02 -0.92321E-06
 0.15730000E+02 -0.20633E-07
 0.15780000E+02 -0.33117E-06
 0.15830000E+02 -0.85378E-06
 0.15880000E+02  0.54208E-06
 0.15929999E+02  0.14027E-05
 0.15980000E+02  0.51017E-08
 0.16030001E+02  0.60508E-07
 0.16080000E+02  0.13272E-05
 0.16129999E+02  0.24578E-06
 0.16180000E+02 -0.99327E-06
 0.16230000E+02  0.70663E-06
 0.16280001E+02  0.15912E-05
 0.16330000E+02  0.13650E-06
 0.16379999E+02  0.25931E-06
 0.16430000E+02  0.13305E-05
 0.16480000E+02  0.17766E-07
 0.16530001E+02 -0.12978E-05
 0.16580000E+02  0.36977E-06
 0.16629999E+02  0.11092E-05
 0.16680000E+02 -0.43038E-06
 0.16730000E+02 -0.39541E-06
 0.16780001E+02  0.68223E-06
 0.16830000E+02  0.32897E-07
 0.16879999E+02 -0.10201E-05
 0.16930000E+02  0.28570E-07
 0.16980000E+02  0.85543E-06
 0.17030001E+02 -0.20033E-06
 0.17080000E+02 -0.17015E-06
 0.17129999E+02  0.51081E-06
 0.17180000E+02 -0.29897E-06
 0.17230000E+02 -0.86559E-06
 0.17280001E+02 -0.12583E-06
 0.17330000E+02  0.24544E-06
 0.17379999E+02 -0.10772E-06
 0.17430000E+02  0.42315E-07
 0.17480000E+02  0.45338E-06
 0.17530001E+02 -0.42050E-06
 0.17580000E+02 -0.14678E-05
 0.17629999E+02 -0.67992E-06
 0.17680000E+02 -0.11362E-06
 0.17730000E+02 -0.60689E-06
 0.17780001E+02 -0.25345E-08
 0.17830000E+02  0.66278E-06
 0.17879999E+02 -0.30545E-06
 0.17930000E+02 -0.85224E-06
 0.17980000E+02 -0.22813E-06
 0.18030001E+02 -0.25633E-06
 0.18080000E+02 -0.70954E-06
 0.18129999E+02 -0.33855E-06
 0.18180000E+02  0.54013E-06
 0.18230000E+02  0.59948E-06
 0.18280001E+02 -0.10819E-06
 0.18330000E+02 -0.51818E-07
 0.18379999E+02  0.29782E-06
 0.18430000E+02 -0.31273E-06
 0.18480000E+02 -0.43223E-06
 0.18530001E+02  0.30362E-06
 0.18580000E+02  0.26999E-06
 0.18629999E+02 -0.83862E-07
 0.18680000E+02  0.28021E-06
 0.18730000E+02  0.93546E-06
 0.18780001E+02  0.98650E-06
 0.18830000E+02  0.66758E-06
 0.18879999E+02  0.59017E-06
 0.18930000E+02  0.67946E-07
 0.18980000E+02 -0.77652E-06
 0.19030001E+02 -0.51235E-06
 0.19080000E+02  0.25070E-06
 0.19129999E+02  0.18403E-06
 0.19180000E+02  0.47909E-06
 0.19230000E+02  0.99773E-06
 0.19280001E+02  0.50553E-06
 0.19330000E+02 -0.79881E-07
 0.19379999E+02 -0.54694E-06
 0.19430000E+02 -0.94766E-06
 0.19480000E+02 -0.94396E-06
 0.19530001E+02 -0.50042E-06
 0.19580000E+02  0.26596E-06
 0.19629999E+02  0.10212E-05
 0.19680000E+02  0.10265E-05
 0.19730000E+02  0.65201E-06
 0.19780001E+02  0.84448E-06
 0.19830000E+02  0.46982E-06
 0.19879999E+02  0.62714E-06
 0.19930000E+02  0.82786E-06
 0.19980000E+02  0.42309E-07
 0.20030001E+02 -0.14769E-05
 0.20080000E+02 -0.39149E-05
 0.20129999E+02 -0.59519E-05
 0.20180000E+02 -0.89315E-05
 0.20230000E+02 -0.11972E-04
 0.20280001E+02 -0.14770E-04
 0.20330000E+02 -0.14381E-04
 0.20379999E+02 -0.13132E-04
 0.20430000E+02 -0.10864E-04
 0.20480000E+02 -0.34229E-05
 0.20530001E+02  0.12360E-05
 0.20580000E+02  0.82974E-05
 0.20629999E+02  0.14740E-04
 0.20680000E+02  0.16373E-04
 0.20730000E+02  0.20134E-04
 0.20780001E+02  0.21891E-04
 0.20830000E+02  0.27918E-04
 0.20879999E+02  0.34315E-04
 0.20930000E+02  0.26582E-04
 0.20980000E+02  0.18327E-04
 0.21030001E+02  0.13947E-04
 0.21080000E+02  0.11237E-04
 0.21129999E+02  0.15767E-04
 0.21180000E+02  0.94927E-05
 0.21230000E+02 -0.10468E-04
 0.21280001E+02 -0.45840E-04
 0.21330000E+02 -0.94344E-04
 0.21379999E+02 -0.10115E-03
 0.21430000E+02 -0.41144E-04
 0.21480000E+02  0.10932E-04
 0.21530001E+02  0.21834E-04
 0.21580000E+02  0.22519E-04
 0.21629999E+02  0.41268E-05
 0.21680000E+02  0.11139E-04
 0.21730000E+02  0.50379E-04
 0.21780001E+02  0.62249E-04
 0.21830000E+02  0.53895E-04
 0.21879999E+02  0.22115E-04
 0.21930000E+02 -0.21158E-04
 0.21980000E+02 -0.39793E-04
 0.22030001E+02 -0.28542E-04
 0.22080000E+02  0.50185E-05
 0.22129999E+02  0.46696E-04
 0.22180000E+02  0.64505E-04
 0.22230000E+02  0.71425E-05
 0.22280001E+02 -0.91402E-04
 0.22330000E+02 -0.16015E-03
 0.22379999E+02 -0.17074E-03
 0.22430000E+02 -0.56508E-04
 0.22480000E+02  0.10100E-03
 0.22530001E+02  0.89210E-04
 0.22580000E+02 -0.11917E-04
 0.22629999E+02 -0.47540E-04
 0.22680000E+02 -0.23790E-05
 0.22730000E+02  0.10910E-03
 0.22780001E+02  0.14009E-03
 0.22830000E+02  0.65996E-04
 0.22879999E+02 -0.69020E-05
 0.22930000E+02 -0.12359E-04
 0.22980000E+02  0.11589E-03
 0.23030001E+02  0.19813E-03
 0.23080000E+02  0.43201E-04
 0.23129999E+02 -0.13869E-03
 0.23180000E+02 -0.17168E-03
 0.23230000E+02 -0.13209E-03
 0.23280001E+02 -0.95433E-04
 0.23330000E+02 -0.30197E-04
 0.23379999E+02  0.56178E-04
 0.23430000E+02  0.82914E-04
 0.23480000E+02  0.29505E-04
 0.23530001E+02 -0.86411E-04
 0.23580000E+02 -0.14480E-03
 0.23629999E+02 -0.17513E-03
 0.23680000E+02 -0.15344E-03
 0.23730000E+02  0.46779E-04
 0.23780001E+02  0.21442E-03
 0.23830000E+02  0.22009E-03
 0.23879999E+02  0.12568E-03
 0.23930000E+02 -0.65847E-04
 0.23980000E+02 -0.17618E-03
 0.24030001E+02 -0.50166E-04
 0.24080000E+02  0.10091E-03
 0.24129999E+02  0.13725E-03
 0.24180000E+02  0.18192E-03
 0.24230000E+02  0.20814E-03
 0.24280001E+02  0.30867E-04
 0.24330000E+02 -0.18246E-03
 0.24379999E+02 -0.16282E-03
 0.24430000E+02  0.12868E-04
 0.24480000E+02  0.59867E-04
 0.24530001E+02 -0.13563E-03
 0.24580000E+02 -0.20361E-03
 0.24629999E+02 -0.91841E-04
 0.24680000E+02 -0.63328E-04
 0.24730000E+02 -0.36601E-04
 0.24780001E+02  0.27618E-05
 0.24830000E+02  0.11412E-04
 0.24879999E+02  0.22672E-04
 0.24930000E+02  0.50722E-04
 0.24980000E+02  0.17284E-03
 0.25030001E+02  0.30766E-03
 0.25080000E+02  0.28505E-03
 0.25129999E+02  0.74902E-04
 0.25180000E+02 -0.17332E-03
 0.25230000E+02 -0.19029E-03
 0.25280001E+02 -0.72275E-04
 0.25330000E+02 -0.23273E-04
 0.25379999E+02 -0.80803E-05
 0.25430000E+02 -0.35101E-04
 0.25480000E+02 -0.64889E-04
 0.25530001E+02 -0.95554E-04
 0.25580000E+02 -0.13094E-03
 0.25629999E+02 -0.10946E-03
 0.25680000E+02 -0.49478E-04
 0.25730000E+02  0.81274E-04
 0.25780001E+02  0.20749E-03
 0.25830000E+02  0.15916E-03
 0.25879999E+02 -0.40102E-04
 0.25930000E+02 -0.22247E-03
 0.25980000E+02 -0.19865E-03
 0.26030001E+02  0.82906E-05
 0.26080000E+02  0.17593E-03
 0.26129999E+02  0.20837E-03
 0.26180000E+02  0.14357E-03
 0.26230000E+02  0.51689E-04
 0.26280001E+02 -0.13047E-04
 0.26330000E+02 -0.33541E-04
 0.26379999E+02 -0.10701E-04
 0.26430000E+02  0.19186E-04
 0.26480000E+02  0.65575E-04
 0.26530001E+02  0.48285E-04
 0.26580000E+02 -0.15530E-03
 0.26629999E+02 -0.32078E-03
 0.26680000E+02 -0.26023E-03
 0.26730000E+02 -0.11368E-03
 0.26780001E+02  0.61491E-05
 0.26830000E+02  0.56334E-04
 0.26879999E+02  0.12237E-03
 0.26930000E+02  0.21618E-03
 0.26980000E+02  0.22110E-03
 0.27030001E+02  0.21768E-03
 0.27080000E+02  0.24565E-03
 0.27129999E+02  0.16671E-03
 0.27180000E+02 -0.29399E-06
 0.27230000E+02 -0.88697E-04
 0.27280001E+02 -0.11638E-03
 0.27330000E+02 -0.17104E-03
 0.27379999E+02 -0.23943E-03
 0.27430000E+02 -0.23987E-03
 0.27480000E+02 -0.16065E-03
 0.27530001E+02 -0.56974E-04
 0.27580000E+02  0.37713E-04
 0.27629999E+02  0.58486E-04
 0.27680000E+02  0.11364E-03
 0.27730000E+02  0.18662E-03
 0.27780001E+02  0.90762E-04
 0.27830000E+02 -0.89740E-04
 0.27879999E+02 -0.20725E-03
 0.27930000E+02 -0.17819E-03
 0.27980000E+02 -0.10378E-04
 0.28030001E+02  0.19217E-03
 0.28080000E+02  0.29817E-03
 0.28129999E+02  0.22892E-03
 0.28180000E+02  0.38944E-04
 0.28230000E+02 -0.18845E-03
 0.28280001E+02 -0.21621E-03
 0.28330000E+02 -0.81137E-04
 0.28379999E+02 -0.83887E-04
 0.28430000E+02 -0.98420E-05
 0.28480000E+02  0.22129E-03
 0.28530001E+02  0.33593E-03
 0.28580000E+02  0.17482E-03
 0.28629999E+02 -0.18938E-03
 0.28680000E+02 -0.36596E-03
 0.28730000E+02 -0.24732E-03
 0.28780001E+02 -0.66547E-04
 0.28830000E+02  0.27332E-04
 0.28879999E+02  0.12494E-03
 0.28930000E+02  0.19868E-03
 0.28980000E+02  0.11607E-03
 0.29030001E+02  0.47297E-04
 0.29080000E+02 -0.32781E-04
 0.29129999E+02 -0.17826E-03
 0.29180000E+02 -0.26845E-03
 0.29230000E+02 -0.18880E-03
 0.29280001E+02  0.79601E-06
 0.29330000E+02 -0.10385E-04
 0.29379999E+02 -0.99534E-04
 0.29430000E+02 -0.32890E-05
 0.29480000E+02  0.16720E-03
 0.29530001E+02  0.24048E-03
 0.29580000E+02  0.20360E-03
 0.29629999E+02  0.19701E-03
 0.29680000E+02  0.29497E-03
 0.29730000E+02  0.33665E-03
 0.29780001E+02  0.20624E-03
 0.29830000E+02 -0.16388E-05
 0.29879999E+02 -0.19027E-03
 0.29930000E+02 -0.32301E-03
 0.29980000E+02 -0.41087E-03
 0.30030001E+02 -0.39289E-03
 0.30080000E+02 -0.21085E-03
 0.30129999E+02  0.17929E-04
 0.30180000E+02  0.76779E-04
 0.30230000E+02  0.18150E-04
 0.30280001E+02  0.78418E-04
 0.30330000E+02  0.16157E-03
 0.30379999E+02  0.16910E-03
 0.30430000E+02  0.16150E-03
 0.30480000E+02  0.72916E-04
 0.30530001E+02 -0.55047E-04
 0.30580000E+02 -0.10110E-03
 0.30629999E+02 -0.65288E-04
 0.30680000E+02 -0.52640E-04
 0.30730000E+02 -0.13627E-03
 0.30780001E+02 -0.20841E-03
 0.30830000E+02 -0.12771E-03
 0.30879999E+02  0.57172E-04
 0.30930000E+02  0.13233E-03
 0.30980000E+02  0.14952E-03
 0.31030001E+02  0.19668E-03
 0.31080000E+02  0.12507E-03
 0.31129999E+02  0.64720E-05
 0.31180000E+02 -0.45631E-04
 0.31230000E+02 -0.60024E-04
 0.31280001E+02 -0.23988E-04
 0.31330000E+02  0.70951E-04
 0.31379999E+02  0.17751E-03
 0.31430000E+02  0.18976E-03
 0.31480000E+02  0.87232E-04
 0.31530001E+02 -0.39597E-04
 0.31580000E+02 -0.19077E-03
 0.31629999E+02 -0.31758E-03
 0.31680000E+02 -0.28600E-03
 0.31730000E+02 -0.14758E-03
 0.31780001E+02 -0.64815E-04
 0.31830000E+02  0.61532E-05
 0.31879999E+02  0.12626E-03
 0.31930000E+02  0.16383E-03
 0.31980000E+02  0.95039E-04
 0.32029999E+02 -0.96402E-04
 0.32080002E+02 -0.26060E-03
 0.32130001E+02 -0.14563E-03
 0.32180000E+02  0.12872E-03
 0.32230000E+02  0.30710E-03
 0.32279999E+02  0.26455E-03
 0.32330002E+02  0.16287E-03
 0.32380001E+02  0.13610E-03
 0.32430000E+02  0.80501E-04
 0.32480000E+02 -0.28198E-04
 0.32529999E+02 -0.12699E-03
 0.32580002E+02 -0.16799E-03
 0.32630001E+02 -0.18861E-03
 0.32680000E+02 -0.20284E-03
 0.32730000E+02 -0.97876E-04
 0.32779999E+02  0.51298E-04
 0.32830002E+02  0.53134E-04
 0.32880001E+02  0.52662E-04
 0.32930000E+02  0.19503E-03
 0.32980000E+02  0.26656E-03
 0.33029999E+02  0.13546E-03
 0.33080002E+02 -0.60434E-04
 0.33130001E+02 -0.20050E-03
 0.33180000E+02 -0.30726E-03
 0.33230000E+02 -0.36119E-03
 0.33279999E+02 -0.21581E-03
 0.33330002E+02  0.34614E-04
 0.33380001E+02  0.17754E-03
 0.33430000E+02  0.17924E-03
 0.33480000E+02  0.47195E-05
 0.33529999E+02 -0.17143E-03
 0.33580002E+02 -0.15991E-03
 0.33630001E+02 -0.61865E-04
 0.33680000E+02  0.11206E-03
 0.33730000E+02  0.30681E-03
 0.33779999E+02  0.38140E-03
 0.33830002E+02  0.40627E-03
 0.33880001E+02  0.47414E-03
 0.33930000E+02  0.46274E-03
 0.33980000E+02  0.17156E-03
 0.34029999E+02 -0.31027E-03
 0.34080002E+02 -0.62933E-03
 0.34130001E+02 -0.60399E-03
 0.34180000E+02 -0.40612E-03
 0.34230000E+02 -0.14881E-03
 0.34279999E+02  0.13277E-03
 0.34330002E+02  0.25675E-03
 0.34380001E+02  0.19209E-03
 0.34430000E+02  0.10455E-03
 0.34480000E+02  0.80552E-04
 0.34529999E+02  0.62475E-04
 0.34580002E+02  0.55578E-04
 0.34630001E+02 -0.41364E-04
 0.34680000E+02 -0.26401E-03
 0.34730000E+02 -0.44037E-03
 0.34779999E+02 -0.48425E-03
 0.34830002E+02 -0.30416E-03
 0.34880001E+02 -0.10278E-04
 0.34930000E+02  0.24949E-03
 0.34980000E+02  0.42724E-03
 0.35029999E+02  0.48002E-03
 0.35080002E+02  0.46126E-03
 0.35130001E+02  0.40078E-03
 0.35180000E+02  0.29223E-03
 0.35230000E+02  0.14362E-04
 0.35279999E+02 -0.35860E-03
 0.35330002E+02 -0.63693E-03
 0.35380001E+02 -0.79391E-03
 0.35430000E+02 -0.76500E-03
 0.35480000E+02 -0.42967E-03
 0.35529999E+02  0.16538E-03
 0.35580002E+02  0.68336E-03
 0.35630001E+02  0.97975E-03
 0.35680000E+02  0.97676E-03
 0.35730000E+02  0.69027E-03
 0.35779999E+02  0.22455E-03
 0.35830002E+02 -0.43253E-03
 0.35880001E+02 -0.95077E-03
 0.35930000E+02 -0.10683E-02
 0.35980000E+02 -0.70151E-03
 0.36029999E+02 -0.40857E-04
 0.36080002E+02  0.47541E-03
 0.36130001E+02  0.68710E-03
 0.36180000E+02  0.50907E-03
 0.36230000E+02  0.15415E-03
 0.36279999E+02 -0.14320E-03
 0.36330002E+02 -0.39069E-03
 0.36380001E+02 -0.49802E-03
 0.36430000E+02 -0.42561E-03
 0.36480000E+02 -0.22110E-03
 0.36529999E+02 -0.70020E-04
 0.36580002E+02 -0.44908E-04
 0.36630001E+02 -0.38391E-04
 0.36680000E+02  0.72569E-04
 0.36730000E+02  0.36679E-03
 0.36779999E+02  0.66799E-03
 0.36830002E+02  0.69725E-03
 0.36880001E+02  0.48676E-03
 0.36930000E+02  0.40876E-03
 0.36980000E+02  0.50199E-03
 0.37029999E+02  0.37115E-03
 0.37080002E+02 -0.54600E-04
 0.37130001E+02 -0.48371E-03
 0.37180000E+02 -0.83181E-03
 0.37230000E+02 -0.10072E-02
 0.37279999E+02 -0.80782E-03
 0.37330002E+02 -0.24324E-03
 0.37380001E+02  0.39827E-03
 0.37430000E+02  0.66252E-03
 0.37480000E+02  0.55885E-03
 0.37529999E+02  0.33546E-03
 0.37580002E+02 -0.83549E-04
 0.37630001E+02 -0.73156E-03
 0.37680000E+02 -0.12869E-02
 0.37730000E+02 -0.12434E-02
 0.37779999E+02 -0.51227E-03
 0.37830002E+02  0.47821E-03
 0.37880001E+02  0.14368E-02
 0.37930000E+02  0.20542E-02
 0.37980000E+02  0.18612E-02
 0.38029999E+02  0.94492E-03
 0.38080002E+02 -0.24962E-03
 0.38130001E+02 -0.11935E-02
 0.38180000E+02 -0.16053E-02
 0.38230000E+02 -0.16809E-02
 0.38279999E+02 -0.14054E-02
 0.38330002E+02 -0.56419E-03
 0.38380001E+02  0.66971E-03
 0.38430000E+02  0.14404E-02
 0.38480000E+02  0.12872E-02
 0.38529999E+02  0.72358E-03
 0.38580002E+02  0.30861E-03
 0.38630001E+02 -0.34689E-04
 0.38680000E+02 -0.67030E-03
 0.38730000E+02 -0.11813E-02
 0.38779999E+02 -0.11407E-02
 0.38830002E+02 -0.68801E-03
 0.38880001E+02 -0.64564E-06
 0.38930000E+02  0.59435E-03
 0.38980000E+02  0.85400E-03
 0.39029999E+02  0.74261E-03
 0.39080002E+02  0.50114E-03
 0.39130001E+02  0.37210E-03
 0.39180000E+02  0.30429E-03
 0.39230000E+02  0.27226E-03
 0.39279999E+02  0.26391E-03
 0.39330002E+02  0.10023E-03
 0.39380001E+02 -0.22786E-03
 0.39430000E+02 -0.29078E-03
 0.39480000E+02 -0.13173E-03
 0.39529999E+02 -0.22590E-03
 0.39580002E+02 -0.42255E-03
 0.39630001E+02 -0.44677E-03
 0.39680000E+02 -0.36736E-03
 0.39730000E+02 -0.34340E-03
 0.39779999E+02 -0.44754E-03
 0.39830002E+02 -0.62367E-03
 0.39880001E+02 -0.91446E-03
 0.39930000E+02 -0.11121E-02
 0.39980000E+02 -0.71429E-03
 0.40029999E+02  0.23158E-03
 0.40080002E+02  0.11626E-02
 0.40130001E+02  0.17402E-02
 0.40180000E+02  0.19949E-02
 0.40230000E+02  0.20938E-02
 0.40279999E+02  0.20179E-02
 0.40330002E+02  0.14044E-02
 0.40380001E+02  0.18138E-03
 0.40430000E+02 -0.11456E-02
 0.40480000E+02 -0.20414E-02
 0.40529999E+02 -0.23013E-02
 0.40580002E+02 -0.20161E-02
 0.40630001E+02 -0.13600E-02
 0.40680000E+02 -0.64826E-03
 0.40730000E+02 -0.10314E-03
 0.40779999E+02  0.28625E-03
 0.40830002E+02  0.54641E-03
 0.40880001E+02  0.64619E-03
 0.40930000E+02  0.49756E-03
 0.40980000E+02  0.28599E-03
 0.41029999E+02  0.36346E-03
 0.41080002E+02  0.81156E-03
 0.41130001E+02  0.13505E-02
 0.41180000E+02  0.16529E-02
 0.41230000E+02  0.13976E-02
 0.41279999E+02  0.25631E-03
 0.41330002E+02 -0.13001E-02
 0.41380001E+02 -0.22870E-02
 0.41430000E+02 -0.22357E-02
 0.41480000E+02 -0.12803E-02
 0.41529999E+02 -0.98566E-04
 0.41580002E+02  0.64039E-03
 0.41630001E+02  0.73564E-03
 0.41680000E+02  0.31230E-03
 0.41730000E+02 -0.88838E-04
 0.41779999E+02 -0.60411E-04
 0.41830002E+02  0.20793E-03
 0.41880001E+02  0.52202E-03
 0.41930000E+02  0.73185E-03
 0.41980000E+02  0.65509E-03
 0.42029999E+02  0.31286E-03
 0.42080002E+02 -0.23252E-03
 0.42130001E+02 -0.72786E-03
 0.42180000E+02 -0.92335E-03
 0.42230000E+02 -0.97533E-03
 0.42279999E+02 -0.86588E-03
 0.42330002E+02 -0.33880E-03
 0.42380001E+02  0.27224E-03
 0.42430000E+02  0.35175E-03
 0.42480000E+02  0.57290E-04
 0.42529999E+02  0.80713E-04
 0.42580002E+02  0.62693E-03
 0.42630001E+02  0.11164E-02
 0.42680000E+02  0.99364E-03
 0.42730000E+02  0.48388E-03
 0.42779999E+02  0.85592E-04
 0.42830002E+02 -0.53599E-04
 0.42880001E+02 -0.14998E-03
 0.42930000E+02 -0.43982E-03
 0.42980000E+02 -0.78281E-03
 0.43029999E+02 -0.83990E-03
 0.43080002E+02 -0.49204E-03
 0.43130001E+02  0.15621E-03
 0.43180000E+02  0.83549E-03
 0.43230000E+02  0.11830E-02
 0.43279999E+02  0.10912E-02
 0.43330002E+02  0.72738E-03
 0.43380001E+02  0.37619E-03
 0.43430000E+02  0.81652E-04
 0.43480000E+02 -0.32985E-03
 0.43529999E+02 -0.76928E-03
 0.43580002E+02 -0.12053E-02
 0.43630001E+02 -0.16488E-02
 0.43680000E+02 -0.18746E-02
 0.43730000E+02 -0.16229E-02
 0.43779999E+02 -0.74072E-03
 0.43830002E+02  0.46120E-03
 0.43880001E+02  0.13126E-02
 0.43930000E+02  0.14279E-02
 0.43980000E+02  0.94544E-03
 0.44029999E+02  0.30717E-03
 0.44080002E+02 -0.72542E-04
 0.44130001E+02  0.65561E-04
 0.44180000E+02  0.58613E-03
 0.44230000E+02  0.99217E-03
 0.44279999E+02  0.99518E-03
 0.44330002E+02  0.64063E-03
 0.44380001E+02  0.10275E-03
 0.44430000E+02 -0.37221E-03
 0.44480000E+02 -0.60362E-03
 0.44529999E+02 -0.62981E-03
 0.44580002E+02 -0.58385E-03
 0.44630001E+02 -0.52181E-03
 0.44680000E+02 -0.43802E-03
 0.44730000E+02 -0.30071E-03
 0.44779999E+02 -0.12643E-03
 0.44830002E+02 -0.35007E-04
 0.44880001E+02 -0.13690E-03
 0.44930000E+02 -0.32053E-03
 0.44980000E+02 -0.37436E-03
 0.45029999E+02 -0.28299E-03
 0.45080002E+02 -0.79115E-04
 0.45130001E+02  0.19351E-03
 0.45180000E+02  0.37411E-03
 0.45230000E+02  0.46204E-03
 0.45279999E+02  0.60533E-03
 0.45330002E+02  0.83225E-03
 0.45380001E+02  0.99938E-03
 0.45430000E+02  0.87591E-03
 0.45480000E+02  0.45097E-03
 0.45529999E+02 -0.57931E-04
 0.45580002E+02 -0.48697E-03
 0.45630001E+02 -0.73527E-03
 0.45680000E+02 -0.67846E-03
 0.45730000E+02 -0.39824E-03
 0.45779999E+02 -0.26543E-03
 0.45830002E+02 -0.39087E-03
 0.45880001E+02 -0.57844E-03
 0.45930000E+02 -0.64576E-03
 0.45980000E+02 -0.49986E-03
 0.46029999E+02 -0.19468E-03
 0.46080002E+02  0.18784E-03
 0.46130001E+02  0.53434E-03
 0.46180000E+02  0.72453E-03
 0.46230000E+02  0.70604E-03
 0.46279999E+02  0.55038E-03
 0.46330002E+02  0.43483E-03
 0.46380001E+02  0.43836E-03
 0.46430000E+02  0.39457E-03
 0.46480000E+02  0.10613E-03
 0.46529999E+02 -0.32821E-03
 0.46580002E+02 -0.71260E-03
 0.46630001E+02 -0.96273E-03
 0.46680000E+02 -0.10861E-02
 0.46730000E+02 -0.10100E-02
 0.46779999E+02 -0.58957E-03
 0.46830002E+02  0.14345E-03
 0.46880001E+02  0.94731E-03
 0.46930000E+02  0.14375E-02
 0.46980000E+02  0.13985E-02
 0.47029999E+02  0.91466E-03
 0.47080002E+02  0.19517E-03
 0.47130001E+02 -0.53929E-03
 0.47180000E+02 -0.11384E-02
 0.47230000E+02 -0.14238E-02
 0.47279999E+02 -0.12277E-02
 0.47330002E+02 -0.61140E-03
 0.47380001E+02  0.23662E-03
 0.47430000E+02  0.10392E-02
 0.47480000E+02  0.14386E-02
 0.47529999E+02  0.13079E-02
 0.47580002E+02  0.80182E-03
 0.47630001E+02  0.21134E-03
 0.47680000E+02 -0.22426E-03
 0.47730000E+02 -0.49412E-03
 0.47779999E+02 -0.66186E-03
 0.47830002E+02 -0.75025E-03
 0.47880001E+02 -0.72593E-03
 0.47930000E+02 -0.55183E-03
 0.47980000E+02 -0.31175E-03
 0.48029999E+02 -0.10407E-03
 0.48080002E+02  0.29255E-04
 0.48130001E+02  0.10337E-03
 0.48180000E+02  0.14719E-03
 0.48230000E+02  0.15168E-03
 0.48279999E+02  0.18883E-03
 0.48330002E+02  0.37064E-03
 0.48380001E+02  0.59808E-03
 0.48430000E+02  0.67739E-03
 0.48480000E+02  0.59954E-03
 0.48529999E+02  0.44346E-03
 0.48580002E+02  0.28456E-03
 0.48630001E+02  0.11573E-03
 0.48680000E+02 -0.15904E-03
 0.48730000E+02 -0.51692E-03
 0.48779999E+02 -0.78213E-03
 0.48830002E+02 -0.84602E-03
 0.48880001E+02 -0.77677E-03
 0.48930000E+02 -0.60505E-03
 0.48980000E+02 -0.29653E-03
 0.49029999E+02  0.15688E-04
 0.49080002E+02  0.21853E-03
 0.49130001E+02  0.38920E-03
 0.49180000E+02  0.51637E-03
 0.49230000E+02  0.50891E-03
 0.49279999E+02  0.28993E-03
 0.49330002E+02 -0.99216E-04
 0.49380001E+02 -0.44128E-03
 0.49430000E+02 -0.57945E-03
 0.49480000E+02 -0.43593E-03
 0.49529999E+02 -0.66060E-04
 0.49580002E+02  0.33653E-03
 0.49630001E+02  0.64678E-03
 0.49680000E+02  0.79839E-03
 0.49730000E+02  0.72428E-03
 0.49779999E+02  0.45057E-03
 0.49830002E+02  0.13068E-03
 0.49880001E+02 -0.10821E-03
 0.49930000E+02 -0.26150E-03
 0.49980000E+02 -0.34522E-03
 0.50029999E+02 -0.35582E-03
 0.50080002E+02 -0.31631E-03
 0.50130001E+02 -0.24898E-03
 0.50180000E+02 -0.16967E-03
 0.50230000E+02 -0.15162E-03
 0.50279999E+02 -0.25968E-03
 0.50330002E+02 -0.41285E-03
 0.50380001E+02 -0.51391E-03
 0.50430000E+02 -0.45125E-03
 0.50480000E+02 -0.11860E-03
 0.50529999E+02  0.34426E-03
 0.50580002E+02  0.70255E-03
 0.50630001E+02  0.79369E-03
 0.50680000E+02  0.54737E-03
 0.50730000E+02  0.75475E-04
 0.50779999E+02 -0.39603E-03
 0.50830002E+02 -0.63552E-03
 0.50880001E+02 -0.51708E-03
 0.50930000E+02 -0.17860E-03
 0.50980000E+02  0.18411E-03
 0.51029999E+02  0.53278E-03
 0.51080002E+02  0.81788E-03
 0.51130001E+02  0.90609E-03
 0.51180000E+02  0.68018E-03
 0.51230000E+02  0.26430E-03
 0.51279999E+02 -0.10068E-03
 0.51330002E+02 -0.39753E-03
 0.51380001E+02 -0.64909E-03
 0.51430000E+02 -0.78164E-03
 0.51480000E+02 -0.73354E-03
 0.51529999E+02 -0.50354E-03
 0.51580002E+02 -0.21274E-03
 0.51630001E+02  0.53995E-05
 0.51680000E+02  0.13708E-03
 0.51730000E+02  0.24719E-03
 0.51779999E+02  0.37338E-03
 0.51830002E+02  0.43966E-03
 0.51880001E+02  0.41598E-03
 0.51930000E+02  0.37069E-03
 0.51980000E+02  0.29659E-03
 0.52029999E+02  0.14906E-03
 0.52080002E+02 -0.30331E-04
 0.52130001E+02 -0.11657E-03
 0.52180000E+02 -0.11020E-03
 0.52230000E+02 -0.83064E-04
 0.52279999E+02 -0.46724E-04
 0.52330002E+02 -0.36527E-04
 0.52380001E+02 -0.45133E-04
 0.52430000E+02 -0.12465E-03
 0.52480000E+02 -0.30660E-03
 0.52529999E+02 -0.49018E-03
 0.52580002E+02 -0.57536E-03
 0.52630001E+02 -0.48677E-03
 0.52680000E+02 -0.26742E-03
 0.52730000E+02  0.15281E-04
 0.52779999E+02  0.34317E-03
 0.52830002E+02  0.61859E-03
 0.52880001E+02  0.69591E-03
 0.52930000E+02  0.51750E-03
 0.52980000E+02  0.15247E-03
 0.53029999E+02 -0.27655E-03
 0.53080002E+02 -0.62226E-03
 0.53130001E+02 -0.72154E-03
 0.53180000E+02 -0.48861E-03
 0.53230000E+02 -0.39766E-04
 0.53279999E+02  0.40757E-03
 0.53330002E+02  0.67593E-03
 0.53380001E+02  0.66483E-03
 0.53430000E+02  0.42891E-03
 0.53480000E+02  0.89345E-04
 0.53529999E+02 -0.22899E-03
 0.53580002E+02 -0.41836E-03
 0.53630001E+02 -0.44953E-03
 0.53680000E+02 -0.32542E-03
 0.53730000E+02 -0.82625E-04
 0.53779999E+02  0.16926E-03
 0.53830002E+02  0.28604E-03
 0.53880001E+02  0.22683E-03
 0.53930000E+02  0.80757E-04
 0.53980000E+02 -0.45408E-04
 0.54029999E+02 -0.11794E-03
 0.54080002E+02 -0.14823E-03
 0.54130001E+02 -0.11215E-03
 0.54180000E+02 -0.67749E-05
 0.54230000E+02  0.13634E-03
 0.54279999E+02  0.27346E-03
 0.54330002E+02  0.36982E-03
 0.54380001E+02  0.40010E-03
 0.54430000E+02  0.29733E-03
 0.54480000E+02  0.40493E-04
 0.54529999E+02 -0.28580E-03
 0.54580002E+02 -0.52564E-03
 0.54630001E+02 -0.54246E-03
 0.54680000E+02 -0.35903E-03
 0.54730000E+02 -0.14483E-03
 0.54779999E+02 -0.28783E-04
 0.54830002E+02  0.27147E-05
 0.54880001E+02  0.16729E-04
 0.54930000E+02  0.48205E-04
 0.54980000E+02  0.76901E-04
 0.55029999E+02  0.63361E-04
 0.55080002E+02  0.60578E-06
 0.55130001E+02 -0.75839E-04
 0.55180000E+02 -0.13967E-03
 0.55230000E+02 -0.16895E-03
 0.55279999E+02 -0.83007E-04
 0.55330002E+02  0.15113E-03
 0.55380001E+02  0.44480E-03
 0.55430000E+02  0.67459E-03
 0.55480000E+02  0.73537E-03
 0.55529999E+02  0.55251E-03
 0.55580002E+02  0.14862E-03
 0.55630001E+02 -0.34509E-03
 0.55680000E+02 -0.74481E-03
 0.55730000E+02 -0.87215E-03
 0.55779999E+02 -0.69850E-03
 0.55830002E+02 -0.34983E-03
 0.55880001E+02  0.25192E-04
 0.55930000E+02  0.31988E-03
 0.55980000E+02  0.50576E-03
 0.56029999E+02  0.58485E-03
 0.56080002E+02  0.54424E-03
 0.56130001E+02  0.39008E-03
 0.56180000E+02  0.14378E-03
 0.56230000E+02 -0.15677E-03
 0.56279999E+02 -0.42198E-03
 0.56330002E+02 -0.54766E-03
 0.56380001E+02 -0.51071E-03
 0.56430000E+02 -0.39465E-03
 0.56480000E+02 -0.29542E-03
 0.56529999E+02 -0.22474E-03
 0.56580002E+02 -0.12273E-03
 0.56630001E+02  0.35998E-04
 0.56680000E+02  0.21799E-03
 0.56730000E+02  0.38447E-03
 0.56779999E+02  0.49152E-03
 0.56830002E+02  0.50783E-03
 0.56880001E+02  0.43304E-03
 0.56930000E+02  0.29581E-03
 0.56980000E+02  0.11160E-03
 0.57029999E+02 -0.11716E-03
 0.57080002E+02 -0.36837E-03
 0.57130001E+02 -0.63425E-03
 0.57180000E+02 -0.85864E-03
 0.57230000E+02 -0.90674E-03
 0.57279999E+02 -0.68449E-03
 0.57330002E+02 -0.21644E-03
 0.57380001E+02  0.38357E-03
 0.57430000E+02  0.94347E-03
 0.57480000E+02  0.12964E-02
 0.57529999E+02  0.13837E-02
 0.57580002E+02  0.12319E-02
 0.57630001E+02  0.89312E-03
 0.57680000E+02  0.43365E-03
 0.57730000E+02 -0.83140E-04
 0.57779999E+02 -0.60953E-03
 0.57830002E+02 -0.10859E-02
 0.57880001E+02 -0.14113E-02
 0.57930000E+02 -0.14616E-02
 0.57980000E+02 -0.11880E-02
 0.58029999E+02 -0.70202E-03
 0.58080002E+02 -0.16048E-03
 0.58130001E+02  0.33158E-03
 0.58180000E+02  0.71659E-03
 0.58230000E+02  0.95182E-03
 0.58279999E+02  0.95991E-03
 0.58330002E+02  0.70344E-03
 0.58380001E+02  0.25542E-03
 0.58430000E+02 -0.22171E-03
 0.58480000E+02 -0.57035E-03
 0.58529999E+02 -0.71290E-03
 0.58580002E+02 -0.63045E-03
 0.58630001E+02 -0.34731E-03
 0.58680000E+02  0.40135E-04
 0.58730000E+02  0.36880E-03
 0.58779999E+02  0.50967E-03
 0.58830002E+02  0.44123E-03
 0.58880001E+02  0.24157E-03
 0.58930000E+02  0.35675E-04
 0.58980000E+02 -0.79779E-04
 0.59029999E+02 -0.83295E-04
 0.59080002E+02  0.16347E-05
 0.59130001E+02  0.14004E-03
 0.59180000E+02  0.28033E-03
 0.59230000E+02  0.35547E-03
 0.59279999E+02  0.30267E-03
 0.59330002E+02  0.11015E-03
 0.59380001E+02 -0.15474E-03
 0.59430000E+02 -0.36712E-03
 0.59480000E+02 -0.45393E-03
 0.59529999E+02 -0.43272E-03
 0.59580002E+02 -0.33835E-03
 0.59630001E+02 -0.21251E-03
 0.59680000E+02 -0.83509E-04
 0.59730000E+02  0.33215E-04
 0.59779999E+02  0.97350E-04
 0.59830002E+02  0.10179E-03
 0.59880001E+02  0.87548E-04
 0.59930000E+02  0.85005E-04
 0.59980000E+02  0.10194E-03
 0.60029999E+02  0.12181E-03
 0.60080002E+02  0.12488E-03
 0.60130001E+02  0.12404E-03
 0.60180000E+02  0.12169E-03
 0.60230000E+02  0.66172E-04
 0.60279999E+02 -0.68792E-04
 0.60330002E+02 -0.23328E-03
 0.60380001E+02 -0.35162E-03
 0.60430000E+02 -0.36905E-03
 0.60480000E+02 -0.27620E-03
 0.60529999E+02 -0.11440E-03
 0.60580002E+02  0.71362E-04
 0.60630001E+02  0.27465E-03
 0.60680000E+02  0.48149E-03
 0.60730000E+02  0.63772E-03
 0.60779999E+02  0.67761E-03
 0.60830002E+02  0.55556E-03
 0.60880001E+02  0.28739E-03
 0.60930000E+02 -0.64452E-04
 0.60980000E+02 -0.43151E-03
 0.61029999E+02 -0.72305E-03
 0.61080002E+02 -0.86336E-03
 0.61130001E+02 -0.81587E-03
 0.61180000E+02 -0.57773E-03
 0.61230000E+02 -0.19272E-03
 0.61279999E+02  0.24995E-03
 0.61330002E+02  0.60363E-03
 0.61380001E+02  0.74937E-03
 0.61430000E+02  0.66877E-03
 0.61480000E+02  0.41255E-03
 0.61529999E+02  0.72649E-04
 0.61580002E+02 -0.25072E-03
 0.61630001E+02 -0.48345E-03
 0.61680000E+02 -0.58835E-03
 0.61730000E+02 -0.54118E-03
 0.61779999E+02 -0.34506E-03
 0.61830002E+02 -0.49212E-04
 0.61880001E+02  0.27935E-03
 0.61930000E+02  0.56086E-03
 0.61980000E+02  0.71936E-03
 0.62029999E+02  0.70593E-03
 0.62080002E+02  0.52582E-03
 0.62130001E+02  0.23558E-03
 0.62180000E+02 -0.94535E-04
 0.62230000E+02 -0.37682E-03
 0.62279999E+02 -0.52627E-03
 0.62330002E+02 -0.52111E-03
 0.62380001E+02 -0.42146E-03
 0.62430000E+02 -0.30126E-03
 0.62480000E+02 -0.18110E-03
 0.62529999E+02 -0.50032E-04
 0.62580002E+02  0.89646E-04
 0.62630001E+02  0.19859E-03
 0.62680000E+02  0.22006E-03
 0.62730000E+02  0.13401E-03
 0.62779999E+02 -0.15519E-04
 0.62830002E+02 -0.13572E-03
 0.62880001E+02 -0.14553E-03
 0.62930000E+02 -0.41428E-04
 0.62980000E+02  0.87461E-04
 0.63029999E+02  0.13818E-03
 0.63080002E+02  0.76465E-04
 0.63130001E+02 -0.67885E-04
 0.63180000E+02 -0.22095E-03
 0.63230000E+02 -0.29149E-03
 0.63279999E+02 -0.21199E-03
 0.63330002E+02  0.41194E-05
 0.63380001E+02  0.26094E-03
 0.63430000E+02  0.45082E-03
 0.63480000E+02  0.49804E-03
 0.63529999E+02  0.40042E-03
 0.63580002E+02  0.20930E-03
 0.63630001E+02 -0.20081E-04
 0.63680000E+02 -0.22410E-03
 0.63730000E+02 -0.35302E-03
 0.63779999E+02 -0.37712E-03
 0.63830002E+02 -0.27565E-03
 0.63880001E+02 -0.64371E-04
 0.63930000E+02  0.19915E-03
 0.63980000E+02  0.42244E-03
 0.64029999E+02  0.49786E-03
 0.64080002E+02  0.39019E-03
 0.64129997E+02  0.16276E-03
 0.64180000E+02 -0.93522E-04
 0.64230003E+02 -0.31241E-03
 0.64279999E+02 -0.45833E-03
 0.64330002E+02 -0.51006E-03
 0.64379997E+02 -0.48316E-03
 0.64430000E+02 -0.41896E-03
 0.64480003E+02 -0.33176E-03
 0.64529999E+02 -0.21447E-03
 0.64580002E+02 -0.54495E-04
 0.64629997E+02  0.14480E-03
 0.64680000E+02  0.34097E-03
 0.64730003E+02  0.48690E-03
 0.64779999E+02  0.55463E-03
 0.64830002E+02  0.53050E-03
 0.64879997E+02  0.42304E-03
 0.64930000E+02  0.25546E-03
 0.64980003E+02  0.50277E-04
 0.65029999E+02 -0.16035E-03
 0.65080002E+02 -0.33243E-03
 0.65129997E+02 -0.42362E-03
 0.65180000E+02 -0.40702E-03
 0.65230003E+02 -0.30524E-03
 0.65279999E+02 -0.16988E-03
 0.65330002E+02 -0.44137E-04
 0.65379997E+02  0.37110E-04
 0.65430000E+02  0.75431E-04
 0.65480003E+02  0.94149E-04
 0.65529999E+02  0.10710E-03
 0.65580002E+02  0.13099E-03
 0.65629997E+02  0.17150E-03
 0.65680000E+02  0.21683E-03
 0.65730003E+02  0.24445E-03
 0.65779999E+02  0.22830E-03
 0.65830002E+02  0.16748E-03
 0.65879997E+02  0.78597E-04
 0.65930000E+02 -0.24720E-04
 0.65980003E+02 -0.12523E-03
 0.66029999E+02 -0.20313E-03
 0.66080002E+02 -0.25018E-03
 0.66129997E+02 -0.27425E-03
 0.66180000E+02 -0.28221E-03
 0.66230003E+02 -0.27014E-03
 0.66279999E+02 -0.22233E-03
 0.66330002E+02 -0.12563E-03
 0.66379997E+02 -0.65510E-05
 0.66430000E+02  0.87619E-04
 0.66480003E+02  0.13616E-03
 0.66529999E+02  0.13980E-03
 0.66580002E+02  0.11689E-03
 0.66629997E+02  0.96539E-04
 0.66680000E+02  0.88091E-04
 0.66730003E+02  0.82803E-04
 0.66779999E+02  0.60989E-04
 0.66830002E+02  0.18849E-04
 0.66879997E+02 -0.10456E-04
 0.66930000E+02  0.44975E-05
 0.66980003E+02  0.75567E-04
 0.67029999E+02  0.17941E-03
 0.67080002E+02  0.25060E-03
 0.67129997E+02  0.25938E-03
 0.67180000E+02  0.22050E-03
 0.67230003E+02  0.12935E-03
 0.67279999E+02  0.64566E-05
 0.67330002E+02 -0.10704E-03
 0.67379997E+02 -0.21334E-03
 0.67430000E+02 -0.31820E-03
 0.67480003E+02 -0.39952E-03
 0.67529999E+02 -0.41985E-03
 0.67580002E+02 -0.35321E-03
 0.67629997E+02 -0.21437E-03
 0.67680000E+02 -0.45994E-04
 0.67730003E+02  0.10197E-03
 0.67779999E+02  0.20084E-03
 0.67830002E+02  0.25960E-03
 0.67879997E+02  0.28449E-03
 0.67930000E+02  0.27092E-03
 0.67980003E+02  0.21853E-03
 0.68029999E+02  0.12414E-03
 0.68080002E+02  0.23345E-05
 0.68129997E+02 -0.10968E-03
 0.68180000E+02 -0.17526E-03
 0.68230003E+02 -0.18820E-03
 0.68279999E+02 -0.17674E-03
 0.68330002E+02 -0.16358E-03
 0.68379997E+02 -0.14888E-03
 0.68430000E+02 -0.11862E-03
 0.68480003E+02 -0.56547E-04
 0.68529999E+02  0.42789E-04
 0.68580002E+02  0.15957E-03
 0.68629997E+02  0.24456E-03
 0.68680000E+02  0.26270E-03
 0.68730003E+02  0.22513E-03
 0.68779999E+02  0.16179E-03
 0.68830002E+02  0.10131E-03
 0.68879997E+02  0.62293E-04
 0.68930000E+02  0.43632E-04
 0.68980003E+02  0.26743E-04
 0.69029999E+02 -0.13568E-04
 0.69080002E+02 -0.81609E-04
 0.69129997E+02 -0.15030E-03
 0.69180000E+02 -0.18798E-03
 0.69230003E+02 -0.17418E-03
 0.69279999E+02 -0.98246E-04
 0.69330002E+02  0.14268E-04
 0.69379997E+02  0.11681E-03
 0.69430000E+02  0.17616E-03
 0.69480003E+02  0.15630E-03
 0.69529999E+02  0.55144E-04
 0.69580002E+02 -0.81043E-04
 0.69629997E+02 -0.20690E-03
 0.69680000E+02 -0.29314E-03
 0.69730003E+02 -0.33226E-03
 0.69779999E+02 -0.32075E-03
 0.69830002E+02 -0.26159E-03
 0.69879997E+02 -0.17445E-03
 0.69930000E+02 -0.70799E-04
 0.69980003E+02  0.43875E-04
 0.70029999E+02  0.16230E-03
 0.70080002E+02  0.26429E-03
 0.70129997E+02  0.32909E-03
 0.70180000E+02  0.34759E-03
 0.70230003E+02  0.31344E-03
 0.70279999E+02  0.23718E-03
 0.70330002E+02  0.14516E-03
 0.70379997E+02  0.64602E-04
 0.70430000E+02  0.10394E-04
 0.70480003E+02 -0.18478E-04
 0.70529999E+02 -0.34356E-04
 0.70580002E+02 -0.42005E-04
 0.70629997E+02 -0.39195E-04
 0.70680000E+02 -0.29167E-04
 0.70730003E+02 -0.17623E-04
 0.70779999E+02 -0.14565E-04
 0.70830002E+02 -0.13026E-04
 0.70879997E+02 -0.82122E-05
 0.70930000E+02 -0.14975E-04
 0.70980003E+02 -0.38851E-04
 0.71029999E+02 -0.73105E-04
 0.71080002E+02 -0.11619E-03
 0.71129997E+02 -0.18255E-03
 0.71180000E+02 -0.26587E-03
 0.71230003E+02 -0.32474E-03
 0.71279999E+02 -0.30868E-03
 0.71330002E+02 -0.18681E-03
 0.71379997E+02  0.14674E-04
 0.71430000E+02  0.22175E-03
 0.71480003E+02  0.35947E-03
 0.71529999E+02  0.39014E-03
 0.71580002E+02  0.31212E-03
 0.71629997E+02  0.14822E-03
 0.71680000E+02 -0.48293E-04
 0.71730003E+02 -0.20800E-03
 0.71779999E+02 -0.28045E-03
 0.71830002E+02 -0.25387E-03
 0.71879997E+02 -0.13939E-03
 0.71930000E+02  0.30956E-04
 0.71980003E+02  0.20047E-03
 0.72029999E+02  0.31679E-03
 0.72080002E+02  0.34385E-03
 0.72129997E+02  0.27620E-03
 0.72180000E+02  0.14848E-03
 0.72230003E+02  0.10118E-04
 0.72279999E+02 -0.10070E-03
 0.72330002E+02 -0.16771E-03
 0.72379997E+02 -0.18297E-03
 0.72430000E+02 -0.15042E-03
 0.72480003E+02 -0.95603E-04
 0.72529999E+02 -0.49963E-04
 0.72580002E+02 -0.28042E-04
 0.72629997E+02 -0.26618E-04
 0.72680000E+02 -0.46346E-04
 0.72730003E+02 -0.82066E-04
 0.72779999E+02 -0.11179E-03
 0.72830002E+02 -0.10309E-03
 0.72879997E+02 -0.37793E-04
 0.72930000E+02  0.52383E-04
 0.72980003E+02  0.11744E-03
 0.73029999E+02  0.13590E-03
 0.73080002E+02  0.11545E-03
 0.73129997E+02  0.76609E-04
 0.73180000E+02  0.44081E-04
 0.73230003E+02  0.37802E-04
 0.73279999E+02  0.45949E-04
 0.73330002E+02  0.41310E-04
 0.73379997E+02  0.10718E-04
 0.73430000E+02 -0.45071E-04
 0.73480003E+02 -0.10116E-03
 0.73529999E+02 -0.12559E-03
 0.73580002E+02 -0.10727E-03
 0.73629997E+02 -0.60289E-04
 0.73680000E+02 -0.80893E-05
 0.73730003E+02  0.39113E-04
 0.73779999E+02  0.71606E-04
 0.73830002E+02  0.77572E-04
 0.73879997E+02  0.56693E-04
 0.73930000E+02  0.13013E-04
 0.73980003E+02 -0.38615E-04
 0.74029999E+02 -0.72621E-04
 0.74080002E+02 -0.71465E-04
 0.74129997E+02 -0.34808E-04
 0.74180000E+02  0.23763E-04
 0.74230003E+02  0.79960E-04
 0.74279999E+02  0.10313E-03
 0.74330002E+02  0.77241E-04
 0.74379997E+02  0.11301E-04
 0.74430000E+02 -0.56269E-04
 0.74480003E+02 -0.78571E-04
 0.74529999E+02 -0.48371E-04
 0.74580002E+02  0.80662E-05
 0.74629997E+02  0.58270E-04
 0.74680000E+02  0.80607E-04
 0.74730003E+02  0.71639E-04
 0.74779999E+02  0.33017E-04
 0.74830002E+02 -0.23194E-04
 0.74879997E+02 -0.76592E-04
 0.74930000E+02 -0.11106E-03
 0.74980003E+02 -0.11676E-03
 0.75029999E+02 -0.97528E-04
 0.75080002E+02 -0.68042E-04
 0.75129997E+02 -0.37969E-04
 0.75180000E+02 -0.92515E-05
 0.75230003E+02  0.11379E-04
 0.75279999E+02  0.17228E-04
 0.75330002E+02  0.13666E-04
 0.75379997E+02  0.15310E-04
 0.75430000E+02  0.29147E-04
 0.75480003E+02  0.49483E-04
 0.75529999E+02  0.77670E-04
 0.75580002E+02  0.11384E-03
 0.75629997E+02  0.14592E-03
 0.75680000E+02  0.16677E-03
 0.75730003E+02  0.17390E-03
 0.75779999E+02  0.15635E-03
 0.75830002E+02  0.10208E-03
 0.75879997E+02  0.13064E-04
 0.75930000E+02 -0.90429E-04
 0.75980003E+02 -0.17283E-03
 0.76029999E+02 -0.20585E-03
 0.76080002E+02 -0.19378E-03
 0.76129997E+02 -0.16111E-03
 0.76180000E+02 -0.12125E-03
 0.76230003E+02 -0.80418E-04
 0.76279999E+02 -0.49006E-04
 0.76330002E+02 -0.28954E-04
 0.76379997E+02 -0.14984E-04
 0.76430000E+02 -0.39240E-05
 0.76480003E+02  0.45426E-05
 0.76529999E+02  0.77824E-05
 0.76580002E+02  0.40045E-05
 0.76629997E+02 -0.28428E-05
 0.76680000E+02 -0.68672E-05
 0.76730003E+02 -0.72816E-06
 0.76779999E+02  0.19184E-04
 0.76830002E+02  0.48136E-04
 0.76879997E+02  0.80552E-04
 0.76930000E+02  0.10545E-03
 0.76980003E+02  0.11510E-03
 0.77029999E+02  0.10994E-03
 0.77080002E+02  0.92627E-04
 0.77129997E+02  0.72840E-04
 0.77180000E+02  0.52844E-04
 0.77230003E+02  0.27305E-04
 0.77279999E+02 -0.66940E-05
 0.77330002E+02 -0.45999E-04
 0.77379997E+02 -0.72473E-04
 0.77430000E+02 -0.72525E-04
 0.77480003E+02 -0.50483E-04
 0.77529999E+02 -0.19900E-04
 0.77580002E+02 -0.11325E-05
 0.77629997E+02 -0.73748E-06
 0.77680000E+02 -0.10337E-04
 0.77730003E+02 -0.24713E-04
 0.77779999E+02 -0.35282E-04
 0.77830002E+02 -0.33924E-04
 0.77879997E+02 -0.16443E-04
 0.77930000E+02  0.12858E-04
 0.77980003E+02  0.39503E-04
 0.78029999E+02  0.45313E-04
 0.78080002E+02  0.17084E-04
 0.78129997E+02 -0.31290E-04
 0.78180000E+02 -0.72563E-04
 0.78230003E+02 -0.92981E-04
 0.78279999E+02 -0.93587E-04
 0.78330002E+02 -0.79223E-04
 0.78379997E+02 -0.50510E-04
 0.78430000E+02 -0.13780E-04
 0.78480003E+02  0.17471E-04
 0.78529999E+02  0.41999E-04
 0.78580002E+02  0.69221E-04
 0.78629997E+02  0.10101E-03
 0.78680000E+02  0.13256E-03
 0.78730003E+02  0.15361E-03
 0.78779999E+02  0.15234E-03
 0.78830002E+02  0.11643E-03
 0.78879997E+02  0.41391E-04
 0.78930000E+02 -0.58021E-04
 0.78980003E+02 -0.15870E-03
 0.79029999E+02 -0.23623E-03
 0.79080002E+02 -0.27338E-03
 0.79129997E+02 -0.25566E-03
 0.79180000E+02 -0.17316E-03
 0.79230003E+02 -0.42584E-04
 0.79279999E+02  0.98261E-04
 0.79330002E+02  0.20458E-03
 0.79379997E+02  0.24524E-03
 0.79430000E+02  0.22522E-03
 0.79480003E+02  0.16760E-03
 0.79529999E+02  0.91324E-04
 0.79580002E+02  0.18692E-04
 0.79629997E+02 -0.24341E-04
 0.79680000E+02 -0.24789E-04
 0.79730003E+02  0.99011E-05
 0.79779999E+02  0.55080E-04
 0.79830002E+02  0.80503E-04
 0.79879997E+02  0.72481E-04
 0.79930000E+02  0.34738E-04
 0.79980003E+02 -0.22715E-04
 0.80029999E+02 -0.87075E-04
 0.80080002E+02 -0.14644E-03
 0.80129997E+02 -0.18293E-03
 0.80180000E+02 -0.18126E-03
 0.80230003E+02 -0.14692E-03
 0.80279999E+02 -0.10258E-03
 0.80330002E+02 -0.68055E-04
 0.80379997E+02 -0.45781E-04
 0.80430000E+02 -0.33636E-04
 0.80480003E+02 -0.31185E-04
 0.80529999E+02 -0.26252E-04
 0.80580002E+02 -0.20779E-05
 0.80629997E+02  0.42344E-04
 0.80680000E+02  0.91537E-04
 0.80730003E+02  0.12838E-03
 0.80779999E+02  0.14372E-03
 0.80830002E+02  0.13471E-03
 0.80879997E+02  0.10566E-03
 0.80930000E+02  0.71038E-04
 0.80980003E+02  0.45466E-04
 0.81029999E+02  0.27681E-04
 0.81080002E+02  0.77225E-05
 0.81129997E+02 -0.16575E-04
 0.81180000E+02 -0.35448E-04
 0.81230003E+02 -0.37790E-04
 0.81279999E+02 -0.24917E-04
 0.81330002E+02 -0.81387E-06
 0.81379997E+02  0.31425E-04
 0.81430000E+02  0.68359E-04
 0.81480003E+02  0.10653E-03
 0.81529999E+02  0.12664E-03
 0.81580002E+02  0.10640E-03
 0.81629997E+02  0.50428E-04
 0.81680000E+02 -0.22646E-04
 0.81730003E+02 -0.98516E-04
 0.81779999E+02 -0.16628E-03
 0.81830002E+02 -0.22151E-03
 0.81879997E+02 -0.25411E-03
 0.81930000E+02 -0.24593E-03
 0.81980003E+02 -0.18950E-03
 0.82029999E+02 -0.98124E-04
 0.82080002E+02 -0.64834E-06
 0.82129997E+02  0.73084E-04
 0.82180000E+02  0.10547E-03
 0.82230003E+02  0.97014E-04
 0.82279999E+02  0.60280E-04
 0.82330002E+02  0.15417E-04
 0.82379997E+02 -0.15910E-04
 0.82430000E+02 -0.19916E-04
 0.82480003E+02  0.41400E-05
 0.82529999E+02  0.45209E-04
 0.82580002E+02  0.89243E-04
 0.82629997E+02  0.12043E-03
 0.82680000E+02  0.12424E-03
 0.82730003E+02  0.10176E-03
 0.82779999E+02  0.67769E-04
 0.82830002E+02  0.35326E-04
 0.82879997E+02  0.13212E-04
 0.82930000E+02  0.15768E-06
 0.82980003E+02 -0.12395E-04
 0.83029999E+02 -0.24379E-04
 0.83080002E+02 -0.32967E-04
 0.83129997E+02 -0.38180E-04
 0.83180000E+02 -0.41793E-04
 0.83230003E+02 -0.40456E-04
 0.83279999E+02 -0.25708E-04
 0.83330002E+02 -0.68251E-05
 0.83379997E+02 -0.90786E-06
 0.83430000E+02 -0.88795E-05
 0.83480003E+02 -0.24560E-04
 0.83529999E+02 -0.42123E-04
 0.83580002E+02 -0.55100E-04
 0.83629997E+02 -0.56467E-04
 0.83680000E+02 -0.40104E-04
 0.83730003E+02 -0.11261E-04
 0.83779999E+02  0.16940E-04
 0.83830002E+02  0.39865E-04
 0.83879997E+02  0.57197E-04
 0.83930000E+02  0.68602E-04
 0.83980003E+02  0.83291E-04
 0.84029999E+02  0.10787E-03
 0.84080002E+02  0.13139E-03
 0.84129997E+02  0.13670E-03
 0.84180000E+02  0.10948E-03
 0.84230003E+02  0.49076E-04
 0.84279999E+02 -0.26308E-04
 0.84330002E+02 -0.10179E-03
 0.84379997E+02 -0.17045E-03
 0.84430000E+02 -0.22001E-03
 0.84480003E+02 -0.23804E-03
 0.84529999E+02 -0.21741E-03
 0.84580002E+02 -0.15622E-03
 0.84629997E+02 -0.64000E-04
 0.84680000E+02  0.40263E-04
 0.84730003E+02  0.12941E-03
 0.84779999E+02  0.17410E-03
 0.84830002E+02  0.16759E-03
 0.84879997E+02  0.12965E-03
 0.84930000E+02  0.86462E-04
 0.84980003E+02  0.52910E-04
 0.85029999E+02  0.29423E-04
 0.85080002E+02  0.11388E-04
 0.85129997E+02 -0.51100E-05
 0.85180000E+02 -0.21307E-04
 0.85230003E+02 -0.40514E-04
 0.85279999E+02 -0.67090E-04
 0.85330002E+02 -0.97805E-04
 0.85379997E+02 -0.12478E-03
 0.85430000E+02 -0.13787E-03
 0.85480003E+02 -0.12208E-03
 0.85529999E+02 -0.66048E-04
 0.85580002E+02  0.23073E-04
 0.85629997E+02  0.12058E-03
 0.85680000E+02  0.19576E-03
 0.85730003E+02  0.22563E-03
 0.85779999E+02  0.20216E-03
 0.85830002E+02  0.13067E-03
 0.85879997E+02  0.28784E-04
 0.85930000E+02 -0.78492E-04
 0.85980003E+02 -0.16223E-03
 0.86029999E+02 -0.19924E-03
 0.86080002E+02 -0.18333E-03
 0.86129997E+02 -0.12823E-03
 0.86180000E+02 -0.57414E-04
 0.86230003E+02  0.67770E-05
 0.86279999E+02  0.48562E-04
 0.86330002E+02  0.69876E-04
 0.86379997E+02  0.74666E-04
 0.86430000E+02  0.62420E-04
 0.86480003E+02  0.41201E-04
 0.86529999E+02  0.17838E-04
 0.86580002E+02 -0.24214E-05
 0.86629997E+02 -0.12092E-04
 0.86680000E+02 -0.82945E-05
 0.86730003E+02  0.52916E-05
 0.86779999E+02  0.21246E-04
 0.86830002E+02  0.31558E-04
 0.86879997E+02  0.35643E-04
 0.86930000E+02  0.43327E-04
 0.86980003E+02  0.57389E-04
 0.87029999E+02  0.66707E-04
 0.87080002E+02  0.58518E-04
 0.87129997E+02  0.29177E-04
 0.87180000E+02 -0.94623E-05
 0.87230003E+02 -0.39958E-04
 0.87279999E+02 -0.55524E-04
 0.87330002E+02 -0.58049E-04
 0.87379997E+02 -0.49425E-04
 0.87430000E+02 -0.32318E-04
 0.87480003E+02 -0.10487E-04
 0.87529999E+02  0.87414E-05
 0.87580002E+02  0.13490E-04
 0.87629997E+02 -0.27650E-06
 0.87680000E+02 -0.22947E-04
 0.87730003E+02 -0.39725E-04
 0.87779999E+02 -0.39361E-04
 0.87830002E+02 -0.18597E-04
 0.87879997E+02  0.14148E-04
 0.87930000E+02  0.42864E-04
 0.87980003E+02  0.52734E-04
 0.88029999E+02  0.36767E-04
 0.88080002E+02  0.16681E-05
 0.88129997E+02 -0.41191E-04
 0.88180000E+02 -0.80762E-04
 0.88230003E+02 -0.10567E-03
 0.88279999E+02 -0.11119E-03
 0.88330002E+02 -0.92471E-04
 0.88379997E+02 -0.43304E-04
 0.88430000E+02  0.27780E-04
 0.88480003E+02  0.93542E-04
 0.88529999E+02  0.12486E-03
 0.88580002E+02  0.11251E-03
 0.88629997E+02  0.72517E-04
 0.88680000E+02  0.26789E-04
 0.88730003E+02 -0.11403E-04
 0.88779999E+02 -0.35876E-04
 0.88830002E+02 -0.45009E-04
 0.88879997E+02 -0.37472E-04
 0.88930000E+02 -0.15920E-04
 0.88980003E+02  0.11686E-04
 0.89029999E+02  0.38400E-04
 0.89080002E+02  0.59822E-04
 0.89129997E+02  0.69032E-04
 0.89180000E+02  0.55938E-04
 0.89230003E+02  0.19128E-04
 0.89279999E+02 -0.30638E-04
 0.89330002E+02 -0.78856E-04
 0.89379997E+02 -0.11394E-03
 0.89430000E+02 -0.12801E-03
 0.89480003E+02 -0.11369E-03
 0.89529999E+02 -0.67270E-04
 0.89580002E+02  0.91614E-06
 0.89629997E+02  0.69769E-04
 0.89680000E+02  0.11700E-03
 0.89730003E+02  0.12806E-03
 0.89779999E+02  0.10441E-03
 0.89830002E+02  0.58142E-04
 0.89879997E+02  0.51163E-05
 0.89930000E+02 -0.41136E-04
 0.89980003E+02 -0.66478E-04
 0.90029999E+02 -0.59740E-04
 0.90080002E+02 -0.26019E-04
 0.90129997E+02  0.22057E-04
 0.90180000E+02  0.71188E-04
 0.90230003E+02  0.10994E-03
 0.90279999E+02  0.12804E-03
 0.90330002E+02  0.11460E-03
 0.90379997E+02  0.69113E-04
 0.90430000E+02  0.41826E-05
 0.90480003E+02 -0.62974E-04
 0.90529999E+02 -0.11782E-03
 0.90580002E+02 -0.14761E-03
 0.90629997E+02 -0.14779E-03
 0.90680000E+02 -0.12509E-03
 0.90730003E+02 -0.91087E-04
 0.90779999E+02 -0.55848E-04
 0.90830002E+02 -0.22870E-04
 0.90879997E+02  0.43329E-05
 0.90930000E+02  0.23085E-04
 0.90980003E+02  0.33592E-04
 0.91029999E+02  0.34451E-04
 0.91080002E+02  0.28705E-04
 0.91129997E+02  0.26271E-04
 0.91180000E+02  0.33526E-04
 0.91230003E+02  0.45024E-04
 0.91279999E+02  0.50522E-04
 0.91330002E+02  0.44706E-04
 0.91379997E+02  0.26164E-04
 0.91430000E+02 -0.17670E-06
 0.91480003E+02 -0.22585E-04
 0.91529999E+02 -0.31159E-04
 0.91580002E+02 -0.21528E-04
 0.91629997E+02  0.35202E-05
 0.91680000E+02  0.34641E-04
 0.91730003E+02  0.62717E-04
 0.91779999E+02  0.81898E-04
 0.91830002E+02  0.88270E-04
 0.91879997E+02  0.78776E-04
 0.91930000E+02  0.49989E-04
 0.91980003E+02  0.24667E-05
 0.92029999E+02 -0.56466E-04
 0.92080002E+02 -0.11602E-03
 0.92129997E+02 -0.16047E-03
 0.92180000E+02 -0.17429E-03
 0.92230003E+02 -0.15442E-03
 0.92279999E+02 -0.11005E-03
 0.92330002E+02 -0.55363E-04
 0.92379997E+02 -0.15323E-05
 0.92430000E+02  0.48620E-04
 0.92480003E+02  0.95536E-04
 0.92529999E+02  0.13692E-03
 0.92580002E+02  0.16721E-03
 0.92629997E+02  0.17982E-03
 0.92680000E+02  0.16957E-03
 0.92730003E+02  0.13441E-03
 0.92779999E+02  0.77305E-04
 0.92830002E+02  0.62515E-05
 0.92879997E+02 -0.67617E-04
 0.92930000E+02 -0.12962E-03
 0.92980003E+02 -0.16607E-03
 0.93029999E+02 -0.16948E-03
 0.93080002E+02 -0.13838E-03
 0.93129997E+02 -0.81920E-04
 0.93180000E+02 -0.18142E-04
 0.93230003E+02  0.31993E-04
 0.93279999E+02  0.50343E-04
 0.93330002E+02  0.31509E-04
 0.93379997E+02 -0.13719E-04
 0.93430000E+02 -0.62614E-04
 0.93480003E+02 -0.90482E-04
 0.93529999E+02 -0.79542E-04
 0.93580002E+02 -0.30908E-04
 0.93629997E+02  0.36559E-04
 0.93680000E+02  0.10139E-03
 0.93730003E+02  0.14626E-03
 0.93779999E+02  0.16267E-03
 0.93830002E+02  0.14629E-03
 0.93879997E+02  0.99385E-04
 0.93930000E+02  0.37418E-04
 0.93980003E+02 -0.23594E-04
 0.94029999E+02 -0.73335E-04
 0.94080002E+02 -0.10232E-03
 0.94129997E+02 -0.10538E-03
 0.94180000E+02 -0.88640E-04
 0.94230003E+02 -0.64645E-04
 0.94279999E+02 -0.42160E-04
 0.94330002E+02 -0.24521E-04
 0.94379997E+02 -0.13728E-04
 0.94430000E+02 -0.87139E-05
 0.94480003E+02 -0.26911E-05
 0.94529999E+02  0.11587E-04
 0.94580002E+02  0.34875E-04
 0.94629997E+02  0.61582E-04
 0.94680000E+02  0.80552E-04
 0.94730003E+02  0.78048E-04
 0.94779999E+02  0.51920E-04
 0.94830002E+02  0.61601E-05
 0.94879997E+02 -0.53557E-04
 0.94930000E+02 -0.10619E-03
 0.94980003E+02 -0.12756E-03
 0.95029999E+02 -0.10718E-03
 0.95080002E+02 -0.52414E-04
 0.95129997E+02  0.20181E-04
 0.95180000E+02  0.94300E-04
 0.95230003E+02  0.14542E-03
 0.95279999E+02  0.15181E-03
 0.95330002E+02  0.11652E-03
 0.95379997E+02  0.60443E-04
 0.95430000E+02  0.48159E-06
 0.95480003E+02 -0.51747E-04
 0.95529999E+02 -0.83177E-04
 0.95580002E+02 -0.85871E-04
 0.95629997E+02 -0.61807E-04
 0.95680000E+02 -0.23243E-04
 0.95730003E+02  0.14264E-04
 0.95779999E+02  0.41572E-04
 0.95830002E+02  0.55578E-04
 0.95879997E+02  0.56907E-04
 0.95930000E+02  0.47240E-04
 0.95980003E+02  0.27588E-04
 0.96029999E+02  0.45601E-05
 0.96080002E+02 -0.11293E-04
 0.96129997E+02 -0.15105E-04
 0.96180000E+02 -0.13416E-04
 0.96230003E+02 -0.18690E-04
 0.96279999E+02 -0.35145E-04
 0.96330002E+02 -0.56435E-04
 0.96379997E+02 -0.73409E-04
 0.96430000E+02 -0.84497E-04
 0.96480003E+02 -0.89189E-04
 0.96529999E+02 -0.78127E-04
 0.96580002E+02 -0.46146E-04
 0.96629997E+02  0.13202E-05
 0.96680000E+02  0.51439E-04
 0.96730003E+02  0.90053E-04
 0.96779999E+02  0.10839E-03
 0.96830002E+02  0.10430E-03
 0.96879997E+02  0.81508E-04
 0.96930000E+02  0.43723E-04
 0.96980003E+02 -0.25929E-05
 0.97029999E+02 -0.46029E-04
 0.97080002E+02 -0.75992E-04
 0.97129997E+02 -0.83865E-04
 0.97180000E+02 -0.66951E-04
 0.97230003E+02 -0.33132E-04
 0.97279999E+02  0.56412E-05
 0.97330002E+02  0.40290E-04
 0.97379997E+02  0.61968E-04
 0.97430000E+02  0.65572E-04
 0.97480003E+02  0.51080E-04
 0.97529999E+02  0.22303E-04
 0.97580002E+02 -0.12996E-04
 0.97629997E+02 -0.47950E-04
 0.97680000E+02 -0.75053E-04
 0.97730003E+02 -0.86424E-04
 0.97779999E+02 -0.78854E-04
 0.97830002E+02 -0.53824E-04
 0.97879997E+02 -0.13053E-04
 0.97930000E+02  0.37141E-04
 0.97980003E+02  0.83984E-04
 0.98029999E+02  0.11565E-03
 0.98080002E+02  0.12248E-03
 0.98129997E+02  0.10126E-03
 0.98180000E+02  0.60213E-04
 0.98230003E+02  0.15338E-04
 0.98279999E+02 -0.17961E-04
 0.98330002E+02 -0.33146E-04
 0.98379997E+02 -0.36429E-04
 0.98430000E+02 -0.37528E-04
 0.98480003E+02 -0.43187E-04
 0.98529999E+02 -0.54448E-04
 0.98580002E+02 -0.66068E-04
 0.98629997E+02 -0.75447E-04
 0.98680000E+02 -0.81202E-04
 0.98730003E+02 -0.80394E-04
 0.98779999E+02 -0.67502E-04
 0.98830002E+02 -0.42693E-04
 0.98879997E+02 -0.13534E-04
 0.98930000E+02  0.19105E-04
 0.98980003E+02  0.57051E-04
 0.99029999E+02  0.92692E-04
 0.99080002E+02  0.11393E-03
 0.99129997E+02  0.11807E-03
 0.99180000E+02  0.11107E-03
 0.99230003E+02  0.97883E-04
 0.99279999E+02  0.75102E-04
 0.99330002E+02  0.40603E-04
 0.99379997E+02 -0.31110E-05
 0.99430000E+02 -0.47524E-04
 0.99480003E+02 -0.80817E-04
 0.99529999E+02 -0.10535E-03
 0.99580002E+02 -0.10770E-03
 0.99629997E+02 -0.77133E-04
 0.99680000E+02 -0.39399E-04
 0.99730003E+02 -0.79578E-05
 0.99779999E+02  0.17046E-04
 0.99830002E+02  0.29093E-04
 0.99879997E+02  0.25871E-04
 0.99930000E+02  0.12188E-04
 0.99980003E+02 -0.82024E-06
 0.10003000E+03 -0.76079E-05
 0.10008000E+03 -0.49268E-05
 0.10013000E+03  0.12595E-04
 0.10018000E+03  0.31493E-04
 0.10023000E+03  0.34788E-04
 0.10028000E+03  0.28323E-04
 0.10033000E+03  0.14538E-04
 0.10038000E+03 -0.43526E-05
 0.10043000E+03 -0.15919E-04
 0.10048000E+03 -0.21328E-04
 0.10053000E+03 -0.22961E-04
 0.10058000E+03 -0.18626E-04
 0.10063000E+03 -0.11773E-04
 0.10068000E+03 -0.37818E-05
 0.10073000E+03  0.49250E-05
 0.10078000E+03  0.99722E-05
 0.10083000E+03  0.11087E-04
 0.10088000E+03  0.12409E-04
 0.10093000E+03  0.12980E-04
 0.10098000E+03  0.12125E-04
 0.10103000E+03  0.11137E-04
 0.10108000E+03  0.10395E-04
 0.10113000E+03  0.69399E-05
 0.10118000E+03 -0.62147E-05
 0.10123000E+03 -0.28557E-04
 0.10128000E+03 -0.51139E-04
 0.10133000E+03 -0.64379E-04
 0.10138000E+03 -0.60570E-04
 0.10143000E+03 -0.39950E-04
 0.10148000E+03 -0.92231E-05
 0.10153000E+03  0.25076E-04
 0.10158000E+03  0.52698E-04
 0.10163000E+03  0.65107E-04
 0.10168000E+03  0.64464E-04
 0.10173000E+03  0.57252E-04
 0.10178000E+03  0.43201E-04
 0.10183000E+03  0.20148E-04
 0.10188000E+03 -0.90398E-05
 0.10193000E+03 -0.40328E-04
 0.10198000E+03 -0.67333E-04
 0.10203000E+03 -0.84336E-04
 0.10208000E+03 -0.86966E-04
 0.10213000E+03 -0.73674E-04
 0.10218000E+03 -0.47108E-04
 0.10223000E+03 -0.11443E-04
 0.10228000E+03  0.26052E-04
 0.10233000E+03  0.57849E-04
 0.10238000E+03  0.78093E-04
 0.10243000E+03  0.83989E-04
 0.10248000E+03  0.77503E-04
 0.10253000E+03  0.63311E-04
 0.10258000E+03  0.42468E-04
 0.10263000E+03  0.17956E-04
 0.10268000E+03 -0.32452E-05
 0.10273000E+03 -0.19670E-04
 0.10278000E+03 -0.27953E-04
 0.10283000E+03 -0.24976E-04
 0.10288000E+03 -0.12919E-04
 0.10293000E+03  0.51129E-05
 0.10298000E+03  0.21684E-04
 0.10303000E+03  0.29293E-04
 0.10308000E+03  0.25108E-04
 0.10313000E+03  0.10365E-04
 0.10318000E+03 -0.82229E-05
 0.10323000E+03 -0.23094E-04
 0.10328000E+03 -0.33429E-04
 0.10333000E+03 -0.39651E-04
 0.10338000E+03 -0.40272E-04
 0.10343000E+03 -0.37660E-04
 0.10348000E+03 -0.34018E-04
 0.10353000E+03 -0.28197E-04
 0.10358000E+03 -0.19831E-04
 0.10363000E+03 -0.10288E-04
 0.10368000E+03 -0.11437E-06
 0.10373000E+03  0.91794E-05
 0.10378000E+03  0.14982E-04
 0.10383000E+03  0.15860E-04
 0.10388000E+03  0.11334E-04
 0.10393000E+03  0.24229E-05
 0.10398000E+03 -0.95347E-05
 0.10403000E+03 -0.19135E-04
 0.10408000E+03 -0.20224E-04
 0.10413000E+03 -0.12928E-04
 0.10418000E+03  0.19563E-05
 0.10423000E+03  0.23489E-04
 0.10428000E+03  0.47179E-04
 0.10433000E+03  0.63206E-04
 0.10438000E+03  0.59055E-04
 0.10443000E+03  0.31066E-04
 0.10448000E+03 -0.12585E-04
 0.10453000E+03 -0.58486E-04
 0.10458000E+03 -0.89171E-04
 0.10463000E+03 -0.92042E-04
 0.10468000E+03 -0.68510E-04
 0.10473000E+03 -0.23904E-04
 0.10478000E+03  0.34389E-04
 0.10483000E+03  0.90978E-04
 0.10488000E+03  0.13030E-03
 0.10493000E+03  0.14034E-03
 0.10498000E+03  0.11507E-03
 0.10503000E+03  0.62910E-04
 0.10508000E+03  0.17220E-06
 0.10513000E+03 -0.58227E-04
 0.10518000E+03 -0.10051E-03
 0.10523000E+03 -0.12038E-03
 0.10528000E+03 -0.11616E-03
 0.10533000E+03 -0.89989E-04
 0.10538000E+03 -0.50995E-04
 0.10543000E+03 -0.81055E-05
 0.10548000E+03  0.32327E-04
 0.10553000E+03  0.58046E-04
 0.10558000E+03  0.63753E-04
 0.10563000E+03  0.57123E-04
 0.10568000E+03  0.44530E-04
 0.10573000E+03  0.27945E-04
 0.10578000E+03  0.10046E-04
 0.10583000E+03 -0.59406E-05
 0.10588000E+03 -0.17749E-04
 0.10593000E+03 -0.26142E-04
 0.10598000E+03 -0.31985E-04
 0.10603000E+03 -0.32816E-04
 0.10608000E+03 -0.30441E-04
 0.10613000E+03 -0.24193E-04
 0.10618000E+03 -0.10910E-04
 0.10623000E+03  0.46258E-05
 0.10628000E+03  0.19014E-04
 0.10633000E+03  0.29928E-04
 0.10638000E+03  0.31081E-04
 0.10643000E+03  0.22283E-04
 0.10648000E+03  0.11140E-04
 0.10653000E+03  0.11250E-05
 0.10658000E+03 -0.10714E-04
 0.10663000E+03 -0.24695E-04
 0.10668000E+03 -0.34642E-04
 0.10673000E+03 -0.36611E-04
 0.10678000E+03 -0.32193E-04
 0.10683000E+03 -0.20238E-04
 0.10688000E+03  0.98994E-06
 0.10693000E+03  0.27064E-04
 0.10698000E+03  0.49097E-04
 0.10703000E+03  0.60592E-04
 0.10708000E+03  0.57981E-04
 0.10713000E+03  0.40005E-04
 0.10718000E+03  0.98232E-05
 0.10723000E+03 -0.24713E-04
 0.10728000E+03 -0.49504E-04
 0.10733000E+03 -0.52650E-04
 0.10738000E+03 -0.33053E-04
 0.10743000E+03  0.23047E-06
 0.10748000E+03  0.34294E-04
 0.10753000E+03  0.59329E-04
 0.10758000E+03  0.68542E-04
 0.10763000E+03  0.57419E-04
 0.10768000E+03  0.26943E-04
 0.10773000E+03 -0.14752E-04
 0.10778000E+03 -0.57080E-04
 0.10783000E+03 -0.90605E-04
 0.10788000E+03 -0.10956E-03
 0.10793000E+03 -0.10930E-03
 0.10798000E+03 -0.85736E-04
 0.10803000E+03 -0.42938E-04
 0.10808000E+03  0.69245E-05
 0.10813000E+03  0.48957E-04
 0.10818000E+03  0.72161E-04
 0.10823000E+03  0.73292E-04
 0.10828000E+03  0.56660E-04
 0.10833000E+03  0.32112E-04
 0.10838000E+03  0.10190E-04
 0.10843000E+03 -0.20849E-05
 0.10848000E+03 -0.33185E-05
 0.10853000E+03  0.19692E-05
 0.10858000E+03  0.86812E-05
 0.10863000E+03  0.15522E-04
 0.10868000E+03  0.23661E-04
 0.10873000E+03  0.32299E-04
 0.10878000E+03  0.33445E-04
 0.10883000E+03  0.23993E-04
 0.10888000E+03  0.11085E-04
 0.10893000E+03 -0.80263E-06
 0.10898000E+03 -0.65308E-05
 0.10903000E+03 -0.17584E-05
 0.10908000E+03  0.68116E-05
 0.10913000E+03  0.10963E-04
 0.10918000E+03  0.10481E-04
 0.10923000E+03  0.65627E-05
 0.10928000E+03 -0.78257E-06
 0.10933000E+03 -0.87632E-05
 0.10938000E+03 -0.17264E-04
 0.10943000E+03 -0.29538E-04
 0.10948000E+03 -0.42668E-04
 0.10953000E+03 -0.49350E-04
 0.10958000E+03 -0.45691E-04
 0.10963000E+03 -0.32345E-04
 0.10968000E+03 -0.10749E-04
 0.10973000E+03  0.14527E-04
 0.10978000E+03  0.32509E-04
 0.10983000E+03  0.38063E-04
 0.10988000E+03  0.32182E-04
 0.10993000E+03  0.11360E-04
 0.10998000E+03 -0.23233E-04
 0.11003000E+03 -0.60706E-04
 0.11008000E+03 -0.89926E-04
 0.11013000E+03 -0.10471E-03
 0.11018000E+03 -0.10168E-03
 0.11023000E+03 -0.76814E-04
 0.11028000E+03 -0.32557E-04
 0.11033000E+03  0.19212E-04
 0.11038000E+03  0.69076E-04
 0.11043000E+03  0.10892E-03
 0.11048000E+03  0.12743E-03
 0.11053000E+03  0.12467E-03
 0.11058000E+03  0.11050E-03
 0.11063000E+03  0.88658E-04
 0.11068000E+03  0.62046E-04
 0.11073000E+03  0.35128E-04
 0.11078000E+03  0.80121E-05
 0.11083000E+03 -0.20592E-04
 0.11088000E+03 -0.48636E-04
 0.11093000E+03 -0.68262E-04
 0.11098000E+03 -0.75132E-04
 0.11103000E+03 -0.73661E-04
 0.11108000E+03 -0.64240E-04
 0.11113000E+03 -0.47302E-04
 0.11118000E+03 -0.31944E-04
 0.11123000E+03 -0.20316E-04
 0.11128000E+03 -0.91448E-05
 0.11133000E+03 -0.13016E-05
 0.11138000E+03  0.26684E-05
 0.11143000E+03  0.88242E-05
 0.11148000E+03  0.22504E-04
 0.11153000E+03  0.40333E-04
 0.11158000E+03  0.55179E-04
 0.11163000E+03  0.62219E-04
 0.11168000E+03  0.57112E-04
 0.11173000E+03  0.41520E-04
 0.11178000E+03  0.22526E-04
 0.11183000E+03  0.30254E-05
 0.11188000E+03 -0.19331E-04
 0.11193000E+03 -0.44224E-04
 0.11198000E+03 -0.64868E-04
 0.11203000E+03 -0.74818E-04
 0.11208000E+03 -0.70927E-04
 0.11213000E+03 -0.53810E-04
 0.11218000E+03 -0.31460E-04
 0.11223000E+03 -0.10845E-04
 0.11228000E+03  0.52182E-05
 0.11233000E+03  0.15593E-04
 0.11238000E+03  0.23049E-04
 0.11243000E+03  0.27428E-04
 0.11248000E+03  0.29484E-04
 0.11253000E+03  0.32020E-04
 0.11258000E+03  0.34018E-04
 0.11263000E+03  0.35124E-04
 0.11268000E+03  0.34274E-04
 0.11273000E+03  0.29698E-04
 0.11278000E+03  0.24138E-04
 0.11283000E+03  0.22200E-04
 0.11288000E+03  0.22056E-04
 0.11293000E+03  0.20054E-04
 0.11298000E+03  0.15482E-04
 0.11303000E+03  0.97788E-05
 0.11308000E+03  0.56663E-05
 0.11313000E+03  0.64761E-06
 0.11318000E+03 -0.57508E-05
 0.11323000E+03 -0.91760E-05
 0.11328000E+03 -0.86028E-05
 0.11333000E+03 -0.58166E-05
 0.11338000E+03 -0.58360E-05
 0.11343000E+03 -0.12284E-04
 0.11348000E+03 -0.23928E-04
 0.11353000E+03 -0.39711E-04
 0.11358000E+03 -0.55606E-04
 0.11363000E+03 -0.64135E-04
 0.11368000E+03 -0.60723E-04
 0.11373000E+03 -0.46968E-04
 0.11378000E+03 -0.29555E-04
 0.11383000E+03 -0.11979E-04
 0.11388000E+03  0.37125E-05
 0.11393000E+03  0.12700E-04
 0.11398000E+03  0.14226E-04
 0.11403000E+03  0.11753E-04
 0.11408000E+03  0.80755E-05
 0.11413000E+03  0.48812E-05
 0.11418000E+03  0.38445E-05
 0.11423000E+03  0.50742E-05
 0.11428000E+03  0.89851E-05
 0.11433000E+03  0.16888E-04
 0.11438000E+03  0.25895E-04
 0.11443000E+03  0.30549E-04
 0.11448000E+03  0.28510E-04
 0.11453000E+03  0.21520E-04
 0.11458000E+03  0.12221E-04
 0.11463000E+03  0.36682E-05
 0.11468000E+03  0.54926E-07
 0.11473000E+03  0.36447E-05
 0.11478000E+03  0.11538E-04
 0.11483000E+03  0.18895E-04
 0.11488000E+03  0.22369E-04
 0.11493000E+03  0.19460E-04
 0.11498000E+03  0.11384E-04
 0.11503000E+03  0.72973E-06
 0.11508000E+03 -0.11387E-04
 0.11513000E+03 -0.22744E-04
 0.11518000E+03 -0.31908E-04
 0.11523000E+03 -0.37785E-04
 0.11528000E+03 -0.37927E-04
 0.11533000E+03 -0.30398E-04
 0.11538000E+03 -0.15487E-04
 0.11543000E+03  0.22689E-05
 0.11548000E+03  0.15944E-04
 0.11553000E+03  0.22537E-04
 0.11558000E+03  0.22440E-04
 0.11563000E+03  0.16322E-04
 0.11568000E+03  0.98192E-05
 0.11573000E+03  0.68482E-05
 0.11578000E+03  0.39687E-05
 0.11583000E+03  0.66780E-07
 0.11588000E+03 -0.31119E-05
 0.11593000E+03 -0.42985E-05
 0.11598000E+03 -0.31943E-05
 0.11603000E+03 -0.52628E-06
 0.11608000E+03  0.28132E-05
 0.11613000E+03  0.66180E-05
 0.11618000E+03  0.10064E-04
 0.11623000E+03  0.10446E-04
 0.11628000E+03  0.48777E-05
 0.11633000E+03 -0.82979E-05
 0.11638000E+03 -0.25223E-04
 0.11643000E+03 -0.37961E-04
 0.11648000E+03 -0.40386E-04
 0.11653000E+03 -0.29768E-04
 0.11658000E+03 -0.87171E-05
 0.11663000E+03  0.14378E-04
 0.11668000E+03  0.30873E-04
 0.11673000E+03  0.37046E-04
 0.11678000E+03  0.33683E-04
 0.11683000E+03  0.23973E-04
 0.11688000E+03  0.11056E-04
 0.11693000E+03 -0.17124E-05
 0.11698000E+03 -0.10526E-04
 0.11703000E+03 -0.12293E-04
 0.11708000E+03 -0.50750E-05
 0.11713000E+03  0.89486E-05
 0.11718000E+03  0.22710E-04
 0.11723000E+03  0.27571E-04
 0.11728000E+03  0.17480E-04
 0.11733000E+03 -0.68741E-05
 0.11738000E+03 -0.36620E-04
 0.11743000E+03 -0.61493E-04
 0.11748000E+03 -0.73641E-04
 0.11753000E+03 -0.67252E-04
 0.11758000E+03 -0.44179E-04
 0.11763000E+03 -0.12609E-04
 0.11768000E+03  0.18186E-04
 0.11773000E+03  0.41368E-04
 0.11778000E+03  0.54043E-04
 0.11783000E+03  0.54766E-04
 0.11788000E+03  0.43917E-04
 0.11793000E+03  0.26065E-04
 0.11798000E+03  0.83053E-05
 0.11803000E+03 -0.37087E-05
 0.11808000E+03 -0.78891E-05
 0.11813000E+03 -0.56670E-05
 0.11818000E+03  0.10048E-05
 0.11823000E+03  0.84592E-05
 0.11828000E+03  0.14327E-04
 0.11833000E+03  0.19047E-04
 0.11838000E+03  0.21243E-04
 0.11843000E+03  0.21183E-04
 0.11848000E+03  0.19376E-04
 0.11853000E+03  0.15091E-04
 0.11858000E+03  0.65604E-05
 0.11863000E+03 -0.90291E-05
 0.11868000E+03 -0.31304E-04
 0.11873000E+03 -0.54730E-04
 0.11878000E+03 -0.70962E-04
 0.11883000E+03 -0.74977E-04
 0.11888000E+03 -0.67249E-04
 0.11893000E+03 -0.51064E-04
 0.11898000E+03 -0.29634E-04
 0.11903000E+03 -0.71347E-05
 0.11908000E+03  0.12652E-04
 0.11913000E+03  0.26906E-04
 0.11918000E+03  0.32905E-04
 0.11923000E+03  0.30414E-04
 0.11928000E+03  0.22806E-04
 0.11933000E+03  0.16763E-04
 0.11938000E+03  0.17766E-04
 0.11943000E+03  0.26793E-04
 0.11948000E+03  0.38847E-04
 0.11953000E+03  0.47798E-04
 0.11958000E+03  0.49854E-04
 0.11963000E+03  0.43135E-04
 0.11968000E+03  0.30819E-04
 0.11973000E+03  0.16982E-04
 0.11978000E+03  0.37692E-05
 0.11983000E+03 -0.80929E-05
 0.11988000E+03 -0.17264E-04
 0.11993000E+03 -0.20735E-04
 0.11998000E+03 -0.17961E-04
 0.12003000E+03 -0.10350E-04
 0.12008000E+03 -0.21868E-05
 0.12013000E+03  0.37799E-06
 0.12018000E+03 -0.37293E-05
 0.12023000E+03 -0.11521E-04
 0.12028000E+03 -0.20427E-04
 0.12033000E+03 -0.28693E-04
 0.12038000E+03 -0.35527E-04
 0.12043000E+03 -0.39499E-04
 0.12048000E+03 -0.38371E-04
 0.12053000E+03 -0.30683E-04
 0.12058000E+03 -0.17166E-04
 0.12063000E+03 -0.16480E-05
 0.12068000E+03  0.11374E-04
 0.12073000E+03  0.19327E-04
 0.12078000E+03  0.23508E-04
 0.12083000E+03  0.22786E-04
 0.12088000E+03  0.17208E-04
 0.12093000E+03  0.13851E-04
 0.12098000E+03  0.13982E-04
 0.12103000E+03  0.12940E-04
 0.12108000E+03  0.82062E-05
 0.12113000E+03  0.30649E-06
 0.12118000E+03 -0.60881E-05
 0.12123000E+03 -0.40496E-05
 0.12128000E+03  0.66108E-05
 0.12133000E+03  0.20609E-04
 0.12138000E+03  0.31212E-04
 0.12143000E+03  0.28599E-04
 0.12148000E+03  0.10880E-04
 0.12153000E+03 -0.16154E-04
 0.12158000E+03 -0.42859E-04
 0.12163000E+03 -0.56652E-04
 0.12168000E+03 -0.52636E-04
 0.12173000E+03 -0.31897E-04
 0.12178000E+03  0.11251E-05
 0.12183000E+03  0.37835E-04
 0.12188000E+03  0.66329E-04
 0.12193000E+03  0.77268E-04
 0.12198000E+03  0.70034E-04
 0.12203000E+03  0.47228E-04
 0.12208000E+03  0.14263E-04
 0.12213000E+03 -0.20702E-04
 0.12218000E+03 -0.47947E-04
 0.12223000E+03 -0.61941E-04
 0.12228000E+03 -0.63078E-04
 0.12233000E+03 -0.52067E-04
 0.12238000E+03 -0.33356E-04
 0.12243000E+03 -0.14134E-04
 0.12248000E+03 -0.16989E-06
 0.12253000E+03  0.70810E-05
 0.12258000E+03  0.65736E-05
 0.12263000E+03 -0.17725E-05
 0.12268000E+03 -0.10882E-04
 0.12273000E+03 -0.13625E-04
 0.12278000E+03 -0.99489E-05
 0.12283000E+03 -0.36466E-05
 0.12288000E+03  0.46077E-05
 0.12293000E+03  0.14142E-04
 0.12298000E+03  0.21163E-04
 0.12303000E+03  0.23172E-04
 0.12308000E+03  0.19197E-04
 0.12313000E+03  0.98646E-05
 0.12318000E+03 -0.78552E-06
 0.12323000E+03 -0.59260E-05
 0.12328000E+03 -0.33636E-05
 0.12333000E+03  0.41357E-05
 0.12338000E+03  0.14852E-04
 0.12343000E+03  0.24212E-04
 0.12348000E+03  0.29544E-04
 0.12353000E+03  0.32498E-04
 0.12358000E+03  0.32859E-04
 0.12363000E+03  0.30519E-04
 0.12368000E+03  0.25558E-04
 0.12373000E+03  0.18365E-04
 0.12378000E+03  0.63129E-05
 0.12383000E+03 -0.14773E-04
 0.12388000E+03 -0.40706E-04
 0.12393000E+03 -0.63792E-04
 0.12398000E+03 -0.80174E-04
 0.12403000E+03 -0.84962E-04
 0.12408000E+03 -0.75275E-04
 0.12413000E+03 -0.53409E-04
 0.12418000E+03 -0.21788E-04
 0.12423000E+03  0.14175E-04
 0.12428000E+03  0.47462E-04
 0.12433000E+03  0.71110E-04
 0.12438000E+03  0.78270E-04
 0.12443000E+03  0.68870E-04
 0.12448000E+03  0.46804E-04
 0.12453000E+03  0.18451E-04
 0.12458000E+03 -0.93096E-05
 0.12463000E+03 -0.30720E-04
 0.12468000E+03 -0.39878E-04
 0.12473000E+03 -0.37086E-04
 0.12478000E+03 -0.25591E-04
 0.12483000E+03 -0.10847E-04
 0.12488000E+03  0.38416E-05
 0.12493000E+03  0.17182E-04
 0.12498000E+03  0.23939E-04
 0.12503000E+03  0.25078E-04
 0.12508000E+03  0.19529E-04
 0.12513000E+03  0.64968E-05
 0.12518000E+03 -0.61132E-05
 0.12523000E+03 -0.17866E-04
 0.12528000E+03 -0.24696E-04
 0.12533000E+03 -0.18940E-04
 0.12538000E+03 -0.98425E-05
 0.12543000E+03 -0.39200E-05
 0.12548000E+03  0.46855E-05
 0.12553000E+03  0.17337E-04
 0.12558000E+03  0.24698E-04
 0.12563000E+03  0.21440E-04
 0.12568000E+03  0.98101E-05
 0.12573000E+03 -0.35173E-05
 0.12578000E+03 -0.11855E-04
 0.12583000E+03 -0.23924E-04
 0.12588000E+03 -0.29029E-04
 0.12593000E+03 -0.16395E-04
 0.12598000E+03 -0.73023E-05
 0.12603000E+03 -0.37742E-06
 0.12608000E+03  0.12549E-04
 0.12613000E+03  0.20464E-04
 0.12618000E+03  0.20092E-04
 0.12623000E+03  0.13995E-04
 0.12628000E+03  0.87412E-05
 0.12633000E+03  0.43349E-05
 0.12638000E+03 -0.99330E-05
 0.12643000E+03 -0.28812E-04
 0.12648000E+03 -0.42144E-04
 0.12653000E+03 -0.47735E-04
 0.12658000E+03 -0.44849E-04
 0.12663000E+03 -0.36916E-04
 0.12668000E+03 -0.18649E-04
 0.12673000E+03  0.79139E-05
 0.12678000E+03  0.30997E-04
 0.12683000E+03  0.48976E-04
 0.12688000E+03  0.60049E-04
 0.12693000E+03  0.64113E-04
 0.12698000E+03  0.55386E-04
 0.12703000E+03  0.28902E-04
 0.12708000E+03  0.23274E-05
 0.12713000E+03 -0.97325E-05
 0.12718000E+03 -0.14614E-04
 0.12723000E+03 -0.11402E-04
 0.12728000E+03  0.19594E-05
 0.12733000E+03  0.17515E-04
 0.12738000E+03  0.30534E-04
 0.12743000E+03  0.28326E-04
 0.12748000E+03  0.19297E-04
 0.12753000E+03  0.13251E-04
 0.12758000E+03  0.38134E-06
 0.12763000E+03 -0.15453E-04
 0.12768000E+03 -0.26381E-04
 0.12773000E+03 -0.25126E-04
 0.12778000E+03 -0.21545E-04
 0.12783000E+03 -0.25140E-04
 0.12788000E+03 -0.24440E-04
 0.12793000E+03 -0.19542E-04
 0.12798000E+03 -0.17969E-04
 0.12803000E+03 -0.16030E-04
 0.12808000E+03 -0.99367E-05
 0.12813000E+03 -0.40352E-05
 0.12818001E+03  0.74475E-06
 0.12823000E+03  0.27665E-05
 0.12828000E+03  0.11131E-05
 0.12833000E+03  0.30052E-06
 0.12838000E+03 -0.24533E-05
 0.12843001E+03 -0.89410E-05
 0.12848000E+03 -0.12838E-04
 0.12853000E+03 -0.11969E-04
 0.12858000E+03 -0.12029E-04
 0.12863000E+03 -0.12787E-04
 0.12868001E+03 -0.96242E-05
 0.12873000E+03 -0.42816E-05
 0.12878000E+03  0.26838E-05
 0.12883000E+03  0.11225E-04
 0.12888000E+03  0.22496E-04
 0.12893001E+03  0.34454E-04
 0.12898000E+03  0.33443E-04
 0.12903000E+03  0.20456E-04
 0.12908000E+03  0.81159E-05
 0.12913000E+03 -0.49146E-05
 0.12918001E+03 -0.16645E-04
 0.12923000E+03 -0.24272E-04
 0.12928000E+03 -0.30433E-04
 0.12933000E+03 -0.25785E-04
 0.12938000E+03 -0.14099E-04
 0.12943001E+03 -0.83142E-05
 0.12948000E+03 -0.35989E-05
 0.12953000E+03 -0.18123E-06
 0.12958000E+03  0.32155E-05
 0.12963000E+03  0.11242E-04
 0.12968001E+03  0.17814E-04
 0.12973000E+03  0.21253E-04
 0.12978000E+03  0.22529E-04
 0.12983000E+03  0.16121E-04
 0.12988000E+03  0.64447E-05
 0.12993001E+03  0.97606E-07
 0.12998000E+03 -0.92929E-05
 0.13003000E+03 -0.18361E-04
 0.13008000E+03 -0.22685E-04
 0.13013000E+03 -0.21532E-04
 0.13018001E+03 -0.11399E-04
 0.13023000E+03  0.16593E-05
 0.13028000E+03  0.16021E-04
 0.13033000E+03  0.29336E-04
 0.13038000E+03  0.35449E-04
 0.13043001E+03  0.40036E-04
 0.13048000E+03  0.43960E-04
 0.13053000E+03  0.40956E-04
 0.13058000E+03  0.29924E-04
 0.13063000E+03  0.15329E-04
 0.13068001E+03  0.70229E-05
 0.13073000E+03  0.42595E-05
 0.13078000E+03 -0.39805E-05
 0.13083000E+03 -0.16129E-04
 0.13088000E+03 -0.24749E-04
 0.13093001E+03 -0.25925E-04
 0.13098000E+03 -0.27955E-04
 0.13103000E+03 -0.38960E-04
 0.13108000E+03 -0.49311E-04
 0.13113000E+03 -0.50766E-04
 0.13118001E+03 -0.36715E-04
 0.13123000E+03 -0.14617E-04
 0.13128000E+03  0.50938E-05
 0.13133000E+03  0.25024E-04
 0.13138000E+03  0.40603E-04
 0.13143001E+03  0.49141E-04
 0.13148000E+03  0.41576E-04
 0.13153000E+03  0.12412E-04
 0.13158000E+03 -0.17450E-04
 0.13163000E+03 -0.36996E-04
 0.13168001E+03 -0.52192E-04
 0.13173000E+03 -0.57186E-04
 0.13178000E+03 -0.46121E-04
 0.13183000E+03 -0.28728E-04
 0.13188000E+03 -0.11430E-04
 0.13193001E+03  0.10417E-04
 0.13198000E+03  0.34637E-04
 0.13203000E+03  0.47609E-04
 0.13208000E+03  0.43346E-04
 0.13213000E+03  0.35947E-04
 0.13218001E+03  0.34510E-04
 0.13223000E+03  0.34378E-04
 0.13228000E+03  0.29567E-04
 0.13233000E+03  0.17031E-04
 0.13238000E+03 -0.68817E-07
 0.13243001E+03 -0.16660E-04
 0.13248000E+03 -0.21730E-04
 0.13253000E+03 -0.22408E-04
 0.13258000E+03 -0.27046E-04
 0.13263000E+03 -0.20984E-04
 0.13268001E+03 -0.90679E-05
 0.13273000E+03 -0.22834E-05
 0.13278000E+03  0.12304E-05
 0.13283000E+03  0.27487E-05
 0.13288000E+03  0.22669E-05
 0.13293001E+03 -0.27126E-05
 0.13298000E+03 -0.83297E-05
 0.13303000E+03 -0.10975E-04
 0.13308000E+03 -0.14321E-04
 0.13313000E+03 -0.13790E-04
 0.13318001E+03 -0.55761E-05
 0.13323000E+03  0.45277E-05
 0.13328000E+03  0.11424E-04
 0.13333000E+03  0.14297E-04
 0.13338000E+03  0.13476E-04
 0.13343001E+03  0.59596E-05
 0.13348000E+03 -0.25326E-05
 0.13353000E+03 -0.38996E-05
 0.13358000E+03  0.52951E-06
 0.13363000E+03  0.87197E-05
 0.13368001E+03  0.17763E-04
 0.13373000E+03  0.24268E-04
 0.13378000E+03  0.29712E-04
 0.13383000E+03  0.29518E-04
 0.13388000E+03  0.19204E-04
 0.13393001E+03  0.11330E-04
 0.13398000E+03  0.72098E-05
 0.13403000E+03  0.10631E-05
 0.13408000E+03 -0.35514E-05
 0.13413000E+03 -0.60842E-05
 0.13418001E+03 -0.64078E-05
 0.13423000E+03 -0.10189E-04
 0.13428000E+03 -0.20150E-04
 0.13433000E+03 -0.29365E-04
 0.13438000E+03 -0.32742E-04
 0.13443001E+03 -0.31861E-04
 0.13448000E+03 -0.30638E-04
 0.13453000E+03 -0.23705E-04
 0.13458000E+03 -0.80756E-05
 0.13463000E+03  0.63981E-05
 0.13468001E+03  0.12095E-04
 0.13473000E+03  0.78259E-05
 0.13478000E+03 -0.28565E-05
 0.13483000E+03 -0.16570E-04
 0.13488000E+03 -0.28439E-04
 0.13493001E+03 -0.29838E-04
 0.13498000E+03 -0.21389E-04
 0.13503000E+03 -0.80179E-05
 0.13508000E+03  0.34355E-05
 0.13513000E+03  0.55853E-05
 0.13518001E+03  0.47192E-05
 0.13523000E+03  0.94951E-05
 0.13528000E+03  0.16612E-04
 0.13533000E+03  0.21102E-04
 0.13538000E+03  0.26034E-04
 0.13543001E+03  0.31432E-04
 0.13548000E+03  0.28692E-04
 0.13553000E+03  0.19928E-04
 0.13558000E+03  0.13634E-04
 0.13563000E+03  0.11366E-04
 0.13568001E+03  0.13341E-04
 0.13573000E+03  0.17975E-04
 0.13578000E+03  0.24438E-04
 0.13583000E+03  0.30406E-04
 0.13588000E+03  0.31227E-04
 0.13593001E+03  0.27313E-04
 0.13598000E+03  0.23323E-04
 0.13603000E+03  0.16633E-04
 0.13608000E+03 -0.46543E-07
 0.13613000E+03 -0.23691E-04
 0.13618001E+03 -0.44272E-04
 0.13623000E+03 -0.55891E-04
 0.13628000E+03 -0.59867E-04
 0.13633000E+03 -0.55502E-04
 0.13638000E+03 -0.47591E-04
 0.13643001E+03 -0.41786E-04
 0.13648000E+03 -0.29785E-04
 0.13653000E+03 -0.10205E-04
 0.13658000E+03  0.79480E-05
 0.13663000E+03  0.19209E-04
 0.13668001E+03  0.22505E-04
 0.13673000E+03  0.24398E-04
 0.13678000E+03  0.27351E-04
 0.13683000E+03  0.20491E-04
 0.13688000E+03  0.58497E-05
 0.13693001E+03 -0.58462E-05
 0.13698000E+03 -0.12724E-04
 0.13703000E+03 -0.15621E-04
 0.13708000E+03 -0.16707E-04
 0.13713000E+03 -0.10838E-04
 0.13718001E+03  0.39861E-05
 0.13723000E+03  0.18055E-04
 0.13728000E+03  0.24509E-04
 0.13733000E+03  0.25105E-04
 0.13738000E+03  0.23647E-04
 0.13743001E+03  0.18347E-04
 0.13748000E+03  0.85079E-05
 0.13753000E+03 -0.16991E-06
 0.13758000E+03 -0.31492E-05
 0.13763000E+03 -0.41539E-05
 0.13768001E+03 -0.50107E-05
 0.13773000E+03  0.13738E-05
 0.13778000E+03  0.89478E-05
 0.13783000E+03  0.69816E-05
 0.13788000E+03  0.21314E-05
 0.13793001E+03  0.23424E-05
 0.13798000E+03  0.76207E-05
 0.13803000E+03  0.78707E-05
 0.13808000E+03 -0.54019E-05
 0.13813000E+03 -0.21751E-04
 0.13818001E+03 -0.30764E-04
 0.13823000E+03 -0.33107E-04
 0.13828000E+03 -0.28338E-04
 0.13833000E+03 -0.18891E-04
 0.13838000E+03 -0.10955E-04
 0.13843001E+03 -0.38194E-05
 0.13848000E+03  0.70238E-05
 0.13853000E+03  0.14729E-04
 0.13858000E+03  0.12593E-04
 0.13863000E+03  0.12628E-04
 0.13868001E+03  0.18230E-04
 0.13873000E+03  0.20694E-04
 0.13878000E+03  0.20048E-04
 0.13883000E+03  0.15083E-04
 0.13888000E+03  0.70896E-05
 0.13893001E+03  0.56852E-06
 0.13898000E+03 -0.10970E-05
 0.13903000E+03 -0.90723E-06
 0.13908000E+03 -0.72925E-05
 0.13913000E+03 -0.10408E-04
 0.13918001E+03 -0.99694E-05
 0.13923000E+03 -0.15298E-04
 0.13928000E+03 -0.16157E-04
 0.13933000E+03 -0.97416E-05
 0.13938000E+03 -0.80422E-05
 0.13943001E+03 -0.15918E-04
 0.13948000E+03 -0.20218E-04
 0.13953000E+03 -0.13353E-04
 0.13958000E+03 -0.28766E-05
 0.13963000E+03  0.11346E-04
 0.13968001E+03  0.31168E-04
 0.13973000E+03  0.43462E-04
 0.13978000E+03  0.38922E-04
 0.13983000E+03  0.24981E-04
 0.13988000E+03  0.10079E-04
 0.13993001E+03 -0.59343E-05
 0.13998000E+03 -0.26314E-04
 0.14003000E+03 -0.39514E-04
 0.14008000E+03 -0.33836E-04
 0.14013000E+03 -0.17971E-04
 0.14018001E+03 -0.40663E-05
 0.14023000E+03  0.44438E-05
 0.14028000E+03  0.13836E-04
 0.14033000E+03  0.24475E-04
 0.14038000E+03  0.29346E-04
 0.14043001E+03  0.25491E-04
 0.14048000E+03  0.14019E-04
 0.14053000E+03  0.38766E-05
 0.14058000E+03 -0.75923E-05
 0.14063000E+03 -0.27551E-04
 0.14068001E+03 -0.48647E-04
 0.14073000E+03 -0.56476E-04
 0.14078000E+03 -0.43861E-04
 0.14083000E+03 -0.24665E-04
 0.14088000E+03 -0.60437E-05
 0.14093001E+03  0.14042E-04
 0.14098000E+03  0.39698E-04
 0.14103000E+03  0.75623E-04
 0.14108000E+03  0.95277E-04
 0.14113000E+03  0.79050E-04
 0.14118001E+03  0.43881E-04
 0.14123000E+03  0.92204E-05
 0.14128000E+03 -0.18191E-04
 0.14133000E+03 -0.39083E-04
 0.14138000E+03 -0.51307E-04
 0.14143001E+03 -0.54432E-04
 0.14148000E+03 -0.45027E-04
 0.14153000E+03 -0.25715E-04
 0.14158000E+03 -0.33663E-05
 0.14163000E+03  0.18527E-04
 0.14168001E+03  0.28489E-04
 0.14173000E+03  0.31593E-04
 0.14178000E+03  0.33712E-04
 0.14183000E+03  0.27576E-04
 0.14188000E+03  0.15381E-04
 0.14193001E+03 -0.17894E-06
 0.14198000E+03 -0.17282E-04
 0.14203000E+03 -0.25281E-04
 0.14208000E+03 -0.18872E-04
 0.14213000E+03 -0.13985E-04
 0.14218001E+03 -0.15800E-04
 0.14223000E+03 -0.19872E-04
 0.14228000E+03 -0.29037E-04
 0.14233000E+03 -0.28672E-04
 0.14238000E+03 -0.16084E-04
 0.14243001E+03 -0.15483E-04
 0.14248000E+03 -0.28650E-04
 0.14253000E+03 -0.34447E-04
 0.14258000E+03 -0.26359E-04
 0.14263000E+03 -0.10397E-04
 0.14268001E+03  0.41846E-05
 0.14273000E+03  0.18255E-04
 0.14278000E+03  0.37168E-04
 0.14283000E+03  0.48546E-04
 0.14288000E+03  0.45450E-04
 0.14293001E+03  0.33127E-04
 0.14298000E+03  0.19873E-04
 0.14303000E+03  0.62676E-05
 0.14308000E+03 -0.15966E-04
 0.14313000E+03 -0.37423E-04
 0.14318001E+03 -0.41320E-04
 0.14323000E+03 -0.29219E-04
 0.14328000E+03 -0.10720E-04
 0.14333000E+03  0.13845E-04
 0.14338000E+03  0.39235E-04
 0.14343001E+03  0.45877E-04
 0.14348000E+03  0.31231E-04
 0.14353000E+03  0.13077E-04
 0.14358000E+03  0.19736E-05
 0.14363000E+03  0.13996E-05
 0.14368001E+03  0.61177E-05
 0.14373000E+03  0.88725E-05
 0.14378000E+03  0.84104E-05
 0.14383000E+03  0.11214E-04
 0.14388000E+03  0.22529E-04
 0.14393001E+03  0.25574E-04
 0.14398000E+03  0.12824E-04
 0.14403000E+03  0.10383E-05
 0.14408000E+03 -0.49391E-05
 0.14413000E+03 -0.18710E-04
 0.14418001E+03 -0.36873E-04
 0.14423000E+03 -0.48705E-04
 0.14428000E+03 -0.57297E-04
 0.14433000E+03 -0.54741E-04
 0.14438000E+03 -0.42068E-04
 0.14443001E+03 -0.27214E-04
 0.14448000E+03 -0.54670E-05
 0.14453000E+03  0.17511E-04
 0.14458000E+03  0.33108E-04
 0.14463000E+03  0.36647E-04
 0.14468001E+03  0.26424E-04
 0.14473000E+03  0.13592E-04
 0.14478000E+03  0.13491E-04
 0.14483000E+03  0.26175E-04
 0.14488000E+03  0.34603E-04
 0.14493001E+03  0.28422E-04
 0.14498000E+03  0.13823E-04
 0.14503000E+03  0.41277E-05
 0.14508000E+03  0.47573E-05
 0.14513000E+03  0.32361E-05
 0.14518001E+03 -0.90562E-05
 0.14523000E+03 -0.22776E-04
 0.14528000E+03 -0.24671E-04
 0.14533000E+03 -0.18430E-04
 0.14538000E+03 -0.14846E-04
 0.14543001E+03 -0.11607E-04
 0.14548000E+03 -0.11676E-04
 0.14553000E+03 -0.13447E-04
 0.14558000E+03 -0.49085E-05
 0.14563000E+03  0.87178E-05
 0.14568001E+03  0.11790E-04
 0.14573000E+03  0.20208E-05
 0.14578000E+03 -0.78502E-05
 0.14583000E+03 -0.14802E-04
 0.14588000E+03 -0.16858E-04
 0.14593001E+03 -0.59437E-05
 0.14598000E+03  0.79925E-05
 0.14603000E+03  0.13699E-04
 0.14608000E+03  0.10555E-04
 0.14613000E+03 -0.65916E-06
 0.14618001E+03 -0.14232E-04
 0.14623000E+03 -0.18173E-04
 0.14628000E+03 -0.75437E-05
 0.14633000E+03  0.65738E-05
 0.14638000E+03  0.11752E-04
 0.14643001E+03  0.10263E-04
 0.14648000E+03  0.14635E-04
 0.14653000E+03  0.24136E-04
 0.14658000E+03  0.28063E-04
 0.14663000E+03  0.27548E-04
 0.14668001E+03  0.22706E-04
 0.14673000E+03  0.60610E-05
 0.14678000E+03 -0.15245E-04
 0.14683000E+03 -0.29727E-04
 0.14688000E+03 -0.35798E-04
 0.14693001E+03 -0.32456E-04
 0.14698000E+03 -0.24482E-04
 0.14703000E+03 -0.17517E-04
 0.14708000E+03 -0.98293E-05
 0.14713000E+03 -0.27862E-06
 0.14718001E+03  0.89802E-05
 0.14723000E+03  0.19351E-04
 0.14728000E+03  0.25405E-04
 0.14733000E+03  0.15906E-04
 0.14738000E+03 -0.25946E-06
 0.14743001E+03 -0.81333E-05
 0.14748000E+03 -0.47801E-05
 0.14753000E+03  0.39282E-05
 0.14758000E+03  0.11470E-04
 0.14763000E+03  0.16152E-04
 0.14768001E+03  0.15022E-04
 0.14773000E+03  0.46702E-05
 0.14778000E+03 -0.80558E-05
 0.14783000E+03 -0.59878E-05
 0.14788000E+03  0.66255E-05
 0.14793001E+03  0.12121E-04
 0.14798000E+03  0.65525E-05
 0.14803000E+03 -0.14122E-05
 0.14808000E+03  0.25178E-06
 0.14813000E+03  0.49763E-05
 0.14818001E+03  0.73406E-05
 0.14823000E+03  0.11316E-04
 0.14828000E+03  0.13258E-04
 0.14833000E+03  0.71987E-05
 0.14838000E+03 -0.85122E-05
 0.14843001E+03 -0.25265E-04
 0.14848000E+03 -0.36977E-04
 0.14853000E+03 -0.41403E-04
 0.14858000E+03 -0.34987E-04
 0.14863000E+03 -0.17361E-04
 0.14868001E+03  0.42473E-05
 0.14873000E+03  0.16992E-04
 0.14878000E+03  0.18948E-04
 0.14883000E+03  0.13956E-04
 0.14888000E+03  0.67123E-05
 0.14893001E+03  0.32525E-05
 0.14898000E+03  0.13030E-05
 0.14903000E+03 -0.28206E-05
 0.14908000E+03 -0.10492E-04
 0.14913000E+03 -0.19385E-04
 0.14918001E+03 -0.18974E-04
 0.14923000E+03 -0.74214E-05
 0.14928000E+03  0.46091E-05
 0.14933000E+03  0.83763E-05
 0.14938000E+03  0.43226E-05
 0.14943001E+03  0.11069E-05
 0.14948000E+03  0.26064E-05
 0.14953000E+03  0.81971E-05
 0.14958000E+03  0.15373E-04
 0.14963000E+03  0.22057E-04
 0.14968001E+03  0.28430E-04
 0.14973000E+03  0.28965E-04
 0.14978000E+03  0.18746E-04
 0.14983000E+03  0.70464E-06
 0.14988000E+03 -0.15776E-04
 0.14993001E+03 -0.25672E-04
 0.14998000E+03 -0.28182E-04
