-0.20000458E-01 -0.74819E-06
 0.29999543E-01 -0.25883E-06
 0.79999544E-01 -0.18574E-06
 0.12999955E+00  0.26679E-06
 0.17999955E+00  0.37650E-06
 0.22999954E+00  0.74953E-06
 0.27999955E+00  0.14975E-05
 0.32999954E+00  0.82389E-06
 0.37999955E+00 -0.64792E-06
 0.42999956E+00 -0.16594E-05
 0.47999954E+00 -0.16889E-05
 0.52999955E+00 -0.94849E-06
 0.57999957E+00  0.55423E-06
 0.62999958E+00  0.14503E-05
 0.67999953E+00  0.58689E-06
 0.72999954E+00 -0.81820E-06
 0.77999955E+00 -0.12832E-05
 0.82999957E+00 -0.61365E-06
 0.87999958E+00  0.77206E-07
 0.92999953E+00  0.62851E-06
 0.97999954E+00  0.70155E-06
 0.10299996E+01  0.57881E-06
 0.10799996E+01  0.68084E-06
 0.11299995E+01  0.11461E-05
 0.11799996E+01  0.16487E-05
 0.12299995E+01  0.49533E-06
 0.12799996E+01 -0.77933E-06
 0.13299996E+01 -0.10060E-05
 0.13799995E+01 -0.75553E-06
 0.14299996E+01  0.45881E-07
 0.14799995E+01  0.20334E-06
 0.15299996E+01 -0.29092E-06
 0.15799996E+01 -0.10426E-05
 0.16299995E+01 -0.14729E-05
 0.16799996E+01 -0.82754E-06
 0.17299995E+01 -0.15938E-06
 0.17799996E+01 -0.30015E-06
 0.18299996E+01 -0.83877E-06
 0.18799995E+01 -0.64318E-06
 0.19299996E+01  0.42899E-06
 0.19799995E+01  0.12628E-05
 0.20299995E+01  0.10291E-05
 0.20799997E+01  0.34759E-06
 0.21299996E+01  0.40329E-06
 0.21799996E+01  0.85036E-06
 0.22299995E+01  0.59353E-06
 0.22799995E+01 -0.26355E-06
 0.23299997E+01 -0.75181E-06
 0.23799996E+01 -0.94156E-06
 0.24299996E+01 -0.58853E-06
 0.24799995E+01 -0.20519E-06
 0.25299995E+01  0.16679E-06
 0.25799997E+01  0.11949E-05
 0.26299996E+01  0.86487E-06
 0.26799996E+01 -0.15269E-06
 0.27299995E+01 -0.32218E-06
 0.27799995E+01  0.31176E-07
 0.28299997E+01  0.80948E-06
 0.28799996E+01  0.18018E-05
 0.29299996E+01  0.22301E-05
 0.29799995E+01  0.10590E-05
 0.30299995E+01  0.10915E-06
 0.30799997E+01  0.26390E-06
 0.31299996E+01  0.50741E-06
 0.31799996E+01  0.56102E-06
 0.32299995E+01  0.35617E-06
 0.32799995E+01 -0.52705E-06
 0.33299997E+01 -0.18163E-05
 0.33799996E+01 -0.16488E-05
 0.34299996E+01 -0.85073E-06
 0.34799995E+01 -0.99100E-06
 0.35299995E+01 -0.83430E-06
 0.35799997E+01 -0.56232E-06
 0.36299996E+01 -0.11246E-05
 0.36799996E+01 -0.13745E-05
 0.37299995E+01 -0.10117E-05
 0.37799995E+01 -0.58172E-06
 0.38299997E+01 -0.13205E-06
 0.38799996E+01  0.26065E-06
 0.39299996E+01 -0.88134E-07
 0.39799995E+01 -0.11085E-05
 0.40299997E+01 -0.16575E-05
 0.40799994E+01 -0.85664E-06
 0.41299996E+01  0.83700E-06
 0.41799998E+01  0.15924E-05
 0.42299995E+01  0.14403E-05
 0.42799997E+01  0.62217E-06
 0.43299994E+01  0.30944E-06
 0.43799996E+01  0.12183E-05
 0.44299998E+01  0.14956E-05
 0.44799995E+01  0.13731E-05
 0.45299997E+01  0.13254E-05
 0.45799994E+01  0.11077E-05
 0.46299996E+01  0.97167E-06
 0.46799998E+01  0.23741E-06
 0.47299995E+01 -0.54443E-06
 0.47799997E+01 -0.41880E-08
 0.48299994E+01  0.18674E-06
 0.48799996E+01 -0.50719E-06
 0.49299998E+01 -0.78869E-06
 0.49799995E+01 -0.53868E-06
 0.50299997E+01  0.52572E-06
 0.50799994E+01  0.10844E-05
 0.51299996E+01  0.47689E-06
 0.51799998E+01 -0.74805E-06
 0.52299995E+01 -0.17570E-05
 0.52799997E+01 -0.17048E-05
 0.53299994E+01 -0.16975E-05
 0.53799996E+01 -0.12605E-05
 0.54299998E+01 -0.17855E-06
 0.54799995E+01  0.55245E-06
 0.55299997E+01  0.41993E-06
 0.55799994E+01 -0.66683E-06
 0.56299996E+01 -0.14881E-05
 0.56799998E+01 -0.16592E-05
 0.57299995E+01 -0.88654E-06
 0.57799997E+01  0.32174E-06
 0.58299994E+01  0.26825E-06
 0.58799996E+01 -0.47575E-06
 0.59299998E+01 -0.30709E-06
 0.59799995E+01  0.68574E-06
 0.60299997E+01  0.14735E-05
 0.60799994E+01  0.15179E-05
 0.61299996E+01  0.12431E-05
 0.61799998E+01  0.95016E-06
 0.62299995E+01  0.63933E-06
 0.62799997E+01  0.84553E-06
 0.63299994E+01  0.10287E-05
 0.63799996E+01  0.61016E-06
 0.64299998E+01  0.93224E-06
 0.64799995E+01  0.14224E-05
 0.65299997E+01  0.82383E-06
 0.65799994E+01 -0.15337E-07
 0.66299996E+01 -0.26285E-06
 0.66799998E+01  0.38574E-06
 0.67299995E+01  0.48846E-06
 0.67799997E+01  0.96464E-07
 0.68299994E+01  0.16703E-06
 0.68799996E+01 -0.59493E-06
 0.69299998E+01 -0.13851E-05
 0.69799995E+01 -0.11598E-05
 0.70299997E+01 -0.82966E-06
 0.70799994E+01  0.14405E-06
 0.71299996E+01  0.93320E-06
 0.71799998E+01 -0.27494E-07
 0.72299995E+01 -0.13754E-05
 0.72799997E+01 -0.18591E-05
 0.73299994E+01 -0.19028E-05
 0.73799996E+01 -0.21056E-05
 0.74299998E+01 -0.14721E-05
 0.74799995E+01 -0.25464E-06
 0.75299997E+01  0.49961E-06
 0.75799994E+01  0.55568E-06
 0.76299996E+01 -0.45372E-06
 0.76799998E+01 -0.11025E-05
 0.77299995E+01 -0.60837E-06
 0.77799997E+01  0.57078E-06
 0.78299994E+01  0.19051E-05
 0.78799996E+01  0.23376E-05
 0.79299998E+01  0.16772E-05
 0.79799995E+01  0.61095E-06
 0.80299997E+01 -0.25232E-06
 0.80799999E+01 -0.59286E-07
 0.81300001E+01  0.74945E-06
 0.81799994E+01  0.90771E-06
 0.82299995E+01  0.19512E-06
 0.82799997E+01 -0.83894E-06
 0.83299999E+01 -0.97664E-06
 0.83800001E+01 -0.54873E-06
 0.84299994E+01 -0.28642E-06
 0.84799995E+01  0.55628E-06
 0.85299997E+01  0.11190E-05
 0.85799999E+01 -0.66918E-06
 0.86300001E+01 -0.29169E-05
 0.86799994E+01 -0.23719E-05
 0.87299995E+01 -0.56459E-07
 0.87799997E+01  0.19777E-05
 0.88299999E+01  0.23193E-05
 0.88800001E+01  0.10029E-05
 0.89299994E+01 -0.37171E-06
 0.89799995E+01 -0.95951E-06
 0.90299997E+01 -0.81845E-06
 0.90799999E+01 -0.55459E-06
 0.91300001E+01  0.39319E-06
 0.91799994E+01  0.13618E-05
 0.92299995E+01  0.12592E-05
 0.92799997E+01  0.70033E-06
 0.93299999E+01  0.34868E-07
 0.93800001E+01 -0.55142E-06
 0.94299994E+01 -0.10231E-05
 0.94799995E+01 -0.25104E-06
 0.95299997E+01  0.16709E-05
 0.95799999E+01  0.23295E-05
 0.96300001E+01  0.16203E-05
 0.96799994E+01  0.36145E-06
 0.97299995E+01 -0.60969E-06
 0.97799997E+01  0.50404E-07
 0.98299999E+01  0.96927E-06
 0.98800001E+01  0.13667E-05
 0.99299994E+01  0.13615E-05
 0.99799995E+01  0.61062E-07
 0.10030000E+02 -0.12830E-05
 0.10080000E+02 -0.12450E-05
 0.10130000E+02 -0.81598E-06
 0.10179999E+02 -0.12356E-05
 0.10230000E+02 -0.21506E-05
 0.10280000E+02 -0.21712E-05
 0.10330000E+02 -0.99090E-06
 0.10380000E+02 -0.11618E-05
 0.10429999E+02 -0.22279E-05
 0.10480000E+02 -0.19560E-05
 0.10530000E+02 -0.12385E-05
 0.10580000E+02  0.15442E-06
 0.10630000E+02  0.56211E-06
 0.10679999E+02 -0.60425E-06
 0.10730000E+02 -0.11224E-05
 0.10780000E+02 -0.87966E-06
 0.10830000E+02  0.24213E-06
 0.10880000E+02  0.12276E-05
 0.10929999E+02  0.11961E-05
 0.10980000E+02  0.10032E-05
 0.11030000E+02  0.75587E-06
 0.11080000E+02  0.78816E-07
 0.11130000E+02 -0.13449E-06
 0.11179999E+02  0.36745E-06
 0.11230000E+02  0.11889E-05
 0.11280000E+02  0.28742E-05
 0.11330000E+02  0.34769E-05
 0.11380000E+02  0.13479E-05
 0.11429999E+02 -0.75618E-06
 0.11480000E+02 -0.19732E-06
 0.11530000E+02  0.16457E-05
 0.11580000E+02  0.17419E-05
 0.11630000E+02  0.17931E-06
 0.11679999E+02 -0.58131E-06
 0.11730000E+02 -0.49257E-06
 0.11780000E+02 -0.10077E-05
 0.11830000E+02 -0.17300E-05
 0.11880000E+02 -0.13310E-05
 0.11929999E+02  0.50096E-07
 0.11980000E+02  0.26401E-06
 0.12030000E+02 -0.12570E-05
 0.12080000E+02 -0.24701E-05
 0.12130000E+02 -0.22814E-05
 0.12179999E+02 -0.54613E-06
 0.12230000E+02  0.19993E-05
 0.12280000E+02  0.34485E-05
 0.12330000E+02  0.30013E-05
 0.12380000E+02  0.16696E-05
 0.12429999E+02  0.77268E-06
 0.12480000E+02  0.32277E-06
 0.12530000E+02  0.23913E-06
 0.12580000E+02  0.10083E-05
 0.12630000E+02  0.16870E-05
 0.12679999E+02  0.94332E-06
 0.12730000E+02 -0.62568E-06
 0.12780000E+02 -0.16646E-05
 0.12830000E+02 -0.22993E-05
 0.12880000E+02 -0.29618E-05
 0.12929999E+02 -0.28601E-05
 0.12980000E+02 -0.24415E-05
 0.13030000E+02 -0.20734E-05
 0.13080000E+02 -0.14060E-05
 0.13130000E+02 -0.19539E-05
 0.13179999E+02 -0.27794E-05
 0.13230000E+02 -0.19525E-05
 0.13280000E+02 -0.29370E-06
 0.13330000E+02  0.11255E-05
 0.13380000E+02  0.76075E-06
 0.13429999E+02 -0.64027E-06
 0.13480000E+02 -0.65171E-06
 0.13530000E+02  0.83020E-06
 0.13580000E+02  0.27254E-05
 0.13630000E+02  0.36709E-05
 0.13679999E+02  0.27768E-05
 0.13730000E+02  0.80014E-06
 0.13780000E+02 -0.93705E-07
 0.13830000E+02  0.51391E-06
 0.13880000E+02  0.19396E-05
 0.13929999E+02  0.28768E-05
 0.13980000E+02  0.19322E-05
 0.14030000E+02  0.10317E-05
 0.14080000E+02  0.10506E-05
 0.14130000E+02  0.56569E-06
 0.14179999E+02 -0.24786E-07
 0.14230000E+02  0.39749E-06
 0.14280000E+02  0.77513E-06
 0.14330000E+02 -0.38695E-06
 0.14380000E+02 -0.17486E-05
 0.14429999E+02 -0.16833E-05
 0.14480000E+02 -0.83996E-06
 0.14530000E+02 -0.47440E-06
 0.14580000E+02 -0.24610E-06
 0.14630000E+02  0.56479E-06
 0.14679999E+02  0.17750E-06
 0.14730000E+02 -0.12338E-05
 0.14780000E+02 -0.16997E-05
 0.14830000E+02 -0.20107E-05
 0.14880000E+02 -0.18070E-05
 0.14929999E+02 -0.93878E-06
 0.14980000E+02  0.35015E-06
 0.15030000E+02  0.11953E-05
 0.15080000E+02 -0.48728E-06
 0.15130000E+02 -0.21189E-05
 0.15179999E+02 -0.23525E-05
 0.15230000E+02 -0.17264E-05
 0.15280000E+02  0.99998E-07
 0.15330000E+02  0.11114E-05
 0.15380000E+02  0.97511E-06
 0.15429999E+02  0.38793E-06
 0.15480000E+02 -0.35154E-06
 0.15530000E+02 -0.12975E-05
 0.15580000E+02 -0.17043E-05
 0.15630000E+02  0.52999E-06
 0.15679999E+02  0.39127E-05
 0.15730000E+02  0.49082E-05
 0.15780000E+02  0.23843E-05
 0.15830000E+02 -0.12611E-05
 0.15880000E+02 -0.24190E-05
 0.15929999E+02  0.17290E-06
 0.15980000E+02  0.38909E-05
 0.16030001E+02  0.47828E-05
 0.16080000E+02  0.22881E-05
 0.16129999E+02 -0.15433E-05
 0.16180000E+02 -0.32180E-05
 0.16230000E+02 -0.15588E-05
 0.16280001E+02  0.11539E-05
 0.16330000E+02  0.26021E-05
 0.16379999E+02  0.90214E-06
 0.16430000E+02 -0.19072E-05
 0.16480000E+02 -0.36395E-05
 0.16530001E+02 -0.40411E-05
 0.16580000E+02 -0.18310E-05
 0.16629999E+02  0.11588E-05
 0.16680000E+02  0.23665E-05
 0.16730000E+02  0.86656E-06
 0.16780001E+02 -0.15912E-05
 0.16830000E+02 -0.24025E-05
 0.16879999E+02 -0.20210E-05
 0.16930000E+02  0.21249E-06
 0.16980000E+02  0.19887E-05
 0.17030001E+02  0.64169E-06
 0.17080000E+02 -0.88773E-06
 0.17129999E+02 -0.14596E-05
 0.17180000E+02 -0.14209E-05
 0.17230000E+02  0.19485E-06
 0.17280001E+02  0.20567E-05
 0.17330000E+02  0.18760E-05
 0.17379999E+02  0.59903E-06
 0.17430000E+02 -0.52880E-06
 0.17480000E+02 -0.96445E-06
 0.17530001E+02 -0.37298E-06
 0.17580000E+02  0.95572E-06
 0.17629999E+02  0.21685E-05
 0.17680000E+02  0.16286E-05
 0.17730000E+02 -0.39779E-06
 0.17780001E+02 -0.20666E-05
 0.17830000E+02 -0.17428E-05
 0.17879999E+02 -0.49295E-06
 0.17930000E+02  0.32474E-06
 0.17980000E+02  0.11915E-05
 0.18030001E+02  0.13578E-05
 0.18080000E+02  0.17327E-06
 0.18129999E+02 -0.12666E-05
 0.18180000E+02 -0.13527E-05
 0.18230000E+02 -0.46875E-06
 0.18280001E+02  0.68800E-06
 0.18330000E+02  0.15887E-05
 0.18379999E+02  0.31601E-06
 0.18430000E+02 -0.10112E-05
 0.18480000E+02 -0.26740E-06
 0.18530001E+02  0.80328E-06
 0.18580000E+02  0.14661E-05
 0.18629999E+02  0.15454E-05
 0.18680000E+02  0.15255E-05
 0.18730000E+02  0.80051E-06
 0.18780001E+02 -0.45677E-06
 0.18830000E+02 -0.81140E-06
 0.18879999E+02  0.27825E-06
 0.18930000E+02  0.13319E-05
 0.18980000E+02  0.47454E-06
 0.19030001E+02 -0.73661E-06
 0.19080000E+02 -0.19932E-05
 0.19129999E+02 -0.25406E-05
 0.19180000E+02 -0.15178E-05
 0.19230000E+02  0.11336E-06
 0.19280001E+02  0.10607E-05
 0.19330000E+02 -0.29961E-06
 0.19379999E+02 -0.14773E-05
 0.19430000E+02 -0.92819E-06
 0.19480000E+02  0.38882E-06
 0.19530001E+02  0.35350E-05
 0.19580000E+02  0.72703E-05
 0.19629999E+02  0.88291E-05
 0.19680000E+02  0.77397E-05
 0.19730000E+02  0.34741E-05
 0.19780001E+02 -0.49925E-05
 0.19830000E+02 -0.16070E-04
 0.19879999E+02 -0.24005E-04
 0.19930000E+02 -0.20964E-04
 0.19980000E+02  0.11706E-05
 0.20030001E+02  0.37089E-04
 0.20080000E+02  0.57864E-04
 0.20129999E+02  0.43359E-04
 0.20180000E+02 -0.16931E-05
 0.20230000E+02 -0.48603E-04
 0.20280001E+02 -0.48730E-04
 0.20330000E+02  0.50981E-05
 0.20379999E+02  0.44765E-04
 0.20430000E+02  0.27702E-04
 0.20480000E+02 -0.55627E-05
 0.20530001E+02 -0.41177E-04
 0.20580000E+02 -0.64577E-04
 0.20629999E+02 -0.35001E-04
 0.20680000E+02  0.12229E-04
 0.20730000E+02  0.36985E-04
 0.20780001E+02  0.35596E-04
 0.20830000E+02  0.15756E-04
 0.20879999E+02 -0.42938E-05
 0.20930000E+02 -0.31867E-04
 0.20980000E+02 -0.42523E-04
 0.21030001E+02 -0.10922E-04
 0.21080000E+02  0.40255E-04
 0.21129999E+02  0.49537E-04
 0.21180000E+02 -0.15408E-04
 0.21230000E+02 -0.51266E-04
 0.21280001E+02 -0.44216E-04
 0.21330000E+02 -0.35958E-04
 0.21379999E+02 -0.13661E-04
 0.21430000E+02  0.35783E-05
 0.21480000E+02  0.24619E-04
 0.21530001E+02  0.40575E-04
 0.21580000E+02  0.42109E-04
 0.21629999E+02  0.27430E-04
 0.21680000E+02  0.16205E-04
 0.21730000E+02  0.99270E-07
 0.21780001E+02  0.71765E-05
 0.21830000E+02  0.31981E-04
 0.21879999E+02 -0.33191E-04
 0.21930000E+02 -0.10130E-03
 0.21980000E+02 -0.73800E-04
 0.22030001E+02 -0.16744E-04
 0.22080000E+02  0.34589E-04
 0.22129999E+02  0.54496E-04
 0.22180000E+02  0.80897E-05
 0.22230000E+02 -0.73113E-05
 0.22280001E+02  0.48433E-04
 0.22330000E+02  0.89462E-04
 0.22379999E+02  0.86373E-04
 0.22430000E+02  0.19881E-04
 0.22480000E+02 -0.50664E-04
 0.22530001E+02 -0.35058E-04
 0.22580000E+02 -0.21858E-07
 0.22629999E+02 -0.60648E-05
 0.22680000E+02 -0.16318E-04
 0.22730000E+02 -0.32956E-04
 0.22780001E+02 -0.32379E-04
 0.22830000E+02 -0.50111E-05
 0.22879999E+02  0.50976E-06
 0.22930000E+02 -0.47852E-06
 0.22980000E+02 -0.64204E-05
 0.23030001E+02 -0.55323E-04
 0.23080000E+02 -0.56145E-04
 0.23129999E+02  0.13492E-04
 0.23180000E+02  0.56059E-04
 0.23230000E+02  0.75564E-04
 0.23280001E+02  0.47615E-04
 0.23330000E+02 -0.23214E-04
 0.23379999E+02 -0.94221E-04
 0.23430000E+02 -0.97856E-04
 0.23480000E+02  0.35214E-05
 0.23530001E+02  0.97733E-04
 0.23580000E+02  0.10854E-03
 0.23629999E+02  0.70276E-04
 0.23680000E+02  0.65085E-04
 0.23730000E+02  0.51794E-04
 0.23780001E+02 -0.43319E-04
 0.23830000E+02 -0.10299E-03
 0.23879999E+02 -0.42308E-04
 0.23930000E+02  0.12994E-04
 0.23980000E+02  0.88757E-05
 0.24030001E+02 -0.50893E-05
 0.24080000E+02 -0.51019E-04
 0.24129999E+02 -0.10309E-03
 0.24180000E+02 -0.10152E-03
 0.24230000E+02 -0.44596E-04
 0.24280001E+02  0.13999E-04
 0.24330000E+02  0.30975E-04
 0.24379999E+02  0.35089E-04
 0.24430000E+02  0.65526E-04
 0.24480000E+02  0.81283E-04
 0.24530001E+02  0.56538E-04
 0.24580000E+02  0.18062E-04
 0.24629999E+02 -0.41637E-04
 0.24680000E+02 -0.64007E-04
 0.24730000E+02 -0.27006E-04
 0.24780001E+02  0.12279E-04
 0.24830000E+02  0.48517E-04
 0.24879999E+02  0.59126E-04
 0.24930000E+02  0.46359E-04
 0.24980000E+02  0.14617E-04
 0.25030001E+02 -0.47916E-04
 0.25080000E+02 -0.87098E-04
 0.25129999E+02 -0.90132E-04
 0.25180000E+02 -0.66210E-04
 0.25230000E+02  0.72156E-05
 0.25280001E+02  0.48890E-04
 0.25330000E+02 -0.62344E-05
 0.25379999E+02 -0.34277E-04
 0.25430000E+02 -0.26859E-05
 0.25480000E+02  0.17614E-04
 0.25530001E+02  0.46782E-04
 0.25580000E+02  0.50126E-04
 0.25629999E+02  0.18165E-04
 0.25680000E+02  0.26582E-04
 0.25730000E+02  0.50420E-04
 0.25780001E+02  0.43791E-04
 0.25830000E+02  0.48861E-04
 0.25879999E+02  0.31303E-04
 0.25930000E+02 -0.19422E-04
 0.25980000E+02 -0.18736E-04
 0.26030001E+02 -0.24279E-05
 0.26080000E+02 -0.75638E-05
 0.26129999E+02 -0.17624E-04
 0.26180000E+02 -0.50638E-04
 0.26230000E+02 -0.61074E-04
 0.26280001E+02 -0.30504E-04
 0.26330000E+02 -0.26832E-04
 0.26379999E+02 -0.16448E-04
 0.26430000E+02  0.12821E-04
 0.26480000E+02  0.13012E-05
 0.26530001E+02 -0.10206E-04
 0.26580000E+02  0.78984E-05
 0.26629999E+02 -0.15315E-04
 0.26680000E+02 -0.71050E-04
 0.26730000E+02 -0.25866E-04
 0.26780001E+02  0.64914E-04
 0.26830000E+02  0.85558E-04
 0.26879999E+02  0.67570E-04
 0.26930000E+02  0.41638E-04
 0.26980000E+02  0.10037E-04
 0.27030001E+02 -0.24479E-04
 0.27080000E+02 -0.34031E-04
 0.27129999E+02 -0.71697E-04
 0.27180000E+02 -0.12377E-03
 0.27230000E+02 -0.11010E-03
 0.27280001E+02 -0.92764E-04
 0.27330000E+02 -0.80675E-04
 0.27379999E+02 -0.12814E-04
 0.27430000E+02  0.60372E-04
 0.27480000E+02  0.93996E-04
 0.27530001E+02  0.12502E-03
 0.27580000E+02  0.10636E-03
 0.27629999E+02  0.19849E-04
 0.27680000E+02 -0.18709E-04
 0.27730000E+02  0.27789E-04
 0.27780001E+02  0.82992E-04
 0.27830000E+02  0.10476E-03
 0.27879999E+02  0.89498E-04
 0.27930000E+02  0.53280E-04
 0.27980000E+02  0.68278E-04
 0.28030001E+02  0.80683E-04
 0.28080000E+02 -0.88865E-05
 0.28129999E+02 -0.57138E-04
 0.28180000E+02 -0.56653E-04
 0.28230000E+02 -0.10639E-03
 0.28280001E+02 -0.96498E-04
 0.28330000E+02 -0.45987E-04
 0.28379999E+02 -0.48049E-04
 0.28430000E+02 -0.88113E-04
 0.28480000E+02 -0.84159E-04
 0.28530001E+02 -0.31509E-04
 0.28580000E+02 -0.16801E-04
 0.28629999E+02  0.21741E-05
 0.28680000E+02  0.40181E-04
 0.28730000E+02  0.56813E-04
 0.28780001E+02  0.42339E-04
 0.28830000E+02 -0.31099E-04
 0.28879999E+02 -0.62223E-04
 0.28930000E+02  0.27664E-04
 0.28980000E+02  0.11521E-03
 0.29030001E+02  0.79936E-04
 0.29080000E+02 -0.26702E-04
 0.29129999E+02 -0.54742E-04
 0.29180000E+02 -0.11831E-04
 0.29230000E+02  0.18042E-04
 0.29280001E+02  0.10455E-05
 0.29330000E+02 -0.69150E-04
 0.29379999E+02 -0.92009E-04
 0.29430000E+02 -0.13572E-05
 0.29480000E+02  0.96192E-04
 0.29530001E+02  0.90725E-04
 0.29580000E+02  0.44991E-04
 0.29629999E+02  0.18705E-04
 0.29680000E+02 -0.18788E-04
 0.29730000E+02 -0.75545E-05
 0.29780001E+02  0.68975E-04
 0.29830000E+02  0.85235E-04
 0.29879999E+02  0.35120E-04
 0.29930000E+02  0.65584E-05
 0.29980000E+02 -0.28683E-05
 0.30030001E+02 -0.33793E-04
 0.30080000E+02 -0.49960E-04
 0.30129999E+02 -0.13123E-04
 0.30180000E+02 -0.26485E-04
 0.30230000E+02 -0.10498E-03
 0.30280001E+02 -0.13889E-03
 0.30330000E+02 -0.11835E-03
 0.30379999E+02 -0.56570E-04
 0.30430000E+02  0.10589E-04
 0.30480000E+02  0.16746E-04
 0.30530001E+02  0.14619E-04
 0.30580000E+02  0.59689E-04
 0.30629999E+02  0.67186E-04
 0.30680000E+02  0.40445E-05
 0.30730000E+02 -0.39244E-04
 0.30780001E+02 -0.12357E-04
 0.30830000E+02  0.31387E-04
 0.30879999E+02  0.51838E-04
 0.30930000E+02  0.52305E-04
 0.30980000E+02  0.43963E-04
 0.31030001E+02  0.92641E-04
 0.31080000E+02  0.16074E-03
 0.31129999E+02  0.13169E-03
 0.31180000E+02  0.53516E-04
 0.31230000E+02  0.97702E-05
 0.31280001E+02 -0.38890E-04
 0.31330000E+02 -0.10843E-03
 0.31379999E+02 -0.15247E-03
 0.31430000E+02 -0.12843E-03
 0.31480000E+02 -0.31172E-04
 0.31530001E+02  0.50597E-04
 0.31580000E+02  0.17853E-04
 0.31629999E+02 -0.10941E-03
 0.31680000E+02 -0.15679E-03
 0.31730000E+02 -0.68366E-04
 0.31780001E+02  0.61399E-04
 0.31830000E+02  0.15008E-03
 0.31879999E+02  0.88411E-04
 0.31930000E+02 -0.17545E-04
 0.31980000E+02 -0.31964E-05
 0.32029999E+02  0.39115E-04
 0.32080002E+02  0.12584E-04
 0.32130001E+02 -0.30342E-04
 0.32180000E+02 -0.59339E-04
 0.32230000E+02 -0.64553E-04
 0.32279999E+02 -0.23013E-04
 0.32330002E+02 -0.13998E-04
 0.32380001E+02 -0.66946E-04
 0.32430000E+02 -0.55417E-04
 0.32480000E+02  0.50800E-04
 0.32529999E+02  0.11690E-03
 0.32580002E+02  0.10066E-03
 0.32630001E+02  0.32203E-04
 0.32680000E+02 -0.73396E-04
 0.32730000E+02 -0.17566E-03
 0.32779999E+02 -0.25152E-03
 0.32830002E+02 -0.28679E-03
 0.32880001E+02 -0.26489E-03
 0.32930000E+02 -0.13833E-03
 0.32980000E+02  0.35088E-04
 0.33029999E+02  0.12491E-03
 0.33080002E+02  0.16628E-03
 0.33130001E+02  0.23134E-03
 0.33180000E+02  0.30475E-03
 0.33230000E+02  0.36190E-03
 0.33279999E+02  0.41166E-03
 0.33330002E+02  0.44060E-03
 0.33380001E+02  0.38954E-03
 0.33430000E+02  0.26625E-03
 0.33480000E+02  0.13072E-03
 0.33529999E+02  0.27088E-04
 0.33580002E+02 -0.14554E-04
 0.33630001E+02 -0.81700E-04
 0.33680000E+02 -0.25551E-03
 0.33730000E+02 -0.44745E-03
 0.33779999E+02 -0.55301E-03
 0.33830002E+02 -0.57247E-03
 0.33880001E+02 -0.59091E-03
 0.33930000E+02 -0.62209E-03
 0.33980000E+02 -0.62265E-03
 0.34029999E+02 -0.57517E-03
 0.34080002E+02 -0.45794E-03
 0.34130001E+02 -0.29331E-03
 0.34180000E+02 -0.10129E-03
 0.34230000E+02  0.13092E-03
 0.34279999E+02  0.38773E-03
 0.34330002E+02  0.60812E-03
 0.34380001E+02  0.76894E-03
 0.34430000E+02  0.85222E-03
 0.34480000E+02  0.84458E-03
 0.34529999E+02  0.81961E-03
 0.34580002E+02  0.77239E-03
 0.34630001E+02  0.67416E-03
 0.34680000E+02  0.59393E-03
 0.34730000E+02  0.50812E-03
 0.34779999E+02  0.28899E-03
 0.34830002E+02 -0.37338E-04
 0.34880001E+02 -0.26070E-03
 0.34930000E+02 -0.29061E-03
 0.34980000E+02 -0.25654E-03
 0.35029999E+02 -0.24548E-03
 0.35080002E+02 -0.25774E-03
 0.35130001E+02 -0.32063E-03
 0.35180000E+02 -0.38362E-03
 0.35230000E+02 -0.38260E-03
 0.35279999E+02 -0.35081E-03
 0.35330002E+02 -0.34328E-03
 0.35380001E+02 -0.31135E-03
 0.35430000E+02 -0.23371E-03
 0.35480000E+02 -0.31324E-03
 0.35529999E+02 -0.54721E-03
 0.35580002E+02 -0.66844E-03
 0.35630001E+02 -0.55682E-03
 0.35680000E+02 -0.26803E-03
 0.35730000E+02 -0.63252E-04
 0.35779999E+02 -0.60947E-04
 0.35830002E+02 -0.71356E-04
 0.35880001E+02 -0.49012E-04
 0.35930000E+02  0.75953E-05
 0.35980000E+02  0.17261E-03
 0.36029999E+02  0.29405E-03
 0.36080002E+02  0.19004E-03
 0.36130001E+02 -0.73325E-04
 0.36180000E+02 -0.21572E-03
 0.36230000E+02  0.55787E-04
 0.36279999E+02  0.46556E-03
 0.36330002E+02  0.44860E-03
 0.36380001E+02  0.97353E-04
 0.36430000E+02 -0.10579E-03
 0.36480000E+02  0.65146E-04
 0.36529999E+02  0.43643E-03
 0.36580002E+02  0.62876E-03
 0.36630001E+02  0.49365E-03
 0.36680000E+02  0.19814E-03
 0.36730000E+02  0.62614E-04
 0.36779999E+02  0.16077E-03
 0.36830002E+02  0.19838E-03
 0.36880001E+02  0.64030E-04
 0.36930000E+02 -0.65024E-04
 0.36980000E+02 -0.72994E-04
 0.37029999E+02 -0.49273E-04
 0.37080002E+02 -0.61768E-04
 0.37130001E+02 -0.40184E-04
 0.37180000E+02 -0.35378E-05
 0.37230000E+02  0.16403E-04
 0.37279999E+02  0.18960E-04
 0.37330002E+02 -0.62199E-05
 0.37380001E+02 -0.45056E-04
 0.37430000E+02 -0.91729E-04
 0.37480000E+02 -0.49586E-04
 0.37529999E+02  0.52306E-04
 0.37580002E+02  0.53705E-04
 0.37630001E+02  0.14491E-04
 0.37680000E+02  0.65760E-04
 0.37730000E+02  0.20483E-03
 0.37779999E+02  0.26604E-03
 0.37830002E+02  0.13544E-03
 0.37880001E+02 -0.36429E-04
 0.37930000E+02 -0.21853E-03
 0.37980000E+02 -0.47228E-03
 0.38029999E+02 -0.63789E-03
 0.38080002E+02 -0.74829E-03
 0.38130001E+02 -0.88379E-03
 0.38180000E+02 -0.85378E-03
 0.38230000E+02 -0.66457E-03
 0.38279999E+02 -0.37251E-03
 0.38330002E+02  0.10199E-04
 0.38380001E+02  0.29273E-03
 0.38430000E+02  0.42519E-03
 0.38480000E+02  0.47228E-03
 0.38529999E+02  0.42833E-03
 0.38580002E+02  0.37642E-03
 0.38630001E+02  0.45542E-03
 0.38680000E+02  0.59956E-03
 0.38730000E+02  0.66163E-03
 0.38779999E+02  0.59270E-03
 0.38830002E+02  0.45271E-03
 0.38880001E+02  0.36775E-03
 0.38930000E+02  0.28679E-03
 0.38980000E+02  0.16137E-03
 0.39029999E+02  0.42620E-04
 0.39080002E+02 -0.15070E-03
 0.39130001E+02 -0.36782E-03
 0.39180000E+02 -0.39534E-03
 0.39230000E+02 -0.25124E-03
 0.39279999E+02 -0.10225E-03
 0.39330002E+02 -0.66822E-04
 0.39380001E+02 -0.16931E-03
 0.39430000E+02 -0.29349E-03
 0.39480000E+02 -0.37631E-03
 0.39529999E+02 -0.46400E-03
 0.39580002E+02 -0.51178E-03
 0.39630001E+02 -0.48035E-03
 0.39680000E+02 -0.39335E-03
 0.39730000E+02 -0.26307E-03
 0.39779999E+02 -0.13353E-03
 0.39830002E+02  0.63502E-04
 0.39880001E+02  0.25283E-03
 0.39930000E+02  0.25482E-03
 0.39980000E+02  0.21663E-03
 0.40029999E+02  0.24014E-03
 0.40080002E+02  0.33468E-03
 0.40130001E+02  0.52567E-03
 0.40180000E+02  0.67318E-03
 0.40230000E+02  0.65267E-03
 0.40279999E+02  0.51136E-03
 0.40330002E+02  0.38725E-03
 0.40380001E+02  0.31875E-03
 0.40430000E+02  0.26966E-03
 0.40480000E+02  0.20009E-03
 0.40529999E+02  0.13719E-04
 0.40580002E+02 -0.36702E-03
 0.40630001E+02 -0.77226E-03
 0.40680000E+02 -0.88291E-03
 0.40730000E+02 -0.71982E-03
 0.40779999E+02 -0.53579E-03
 0.40830002E+02 -0.44183E-03
 0.40880001E+02 -0.40350E-03
 0.40930000E+02 -0.32382E-03
 0.40980000E+02 -0.17373E-03
 0.41029999E+02 -0.37469E-05
 0.41080002E+02  0.96597E-04
 0.41130001E+02  0.73808E-04
 0.41180000E+02  0.15679E-04
 0.41230000E+02  0.51080E-04
 0.41279999E+02  0.10825E-03
 0.41330002E+02  0.25795E-04
 0.41380001E+02 -0.63872E-04
 0.41430000E+02  0.48058E-05
 0.41480000E+02  0.13127E-03
 0.41529999E+02  0.25775E-03
 0.41580002E+02  0.41704E-03
 0.41630001E+02  0.51041E-03
 0.41680000E+02  0.47039E-03
 0.41730000E+02  0.39310E-03
 0.41779999E+02  0.28999E-03
 0.41830002E+02  0.15407E-03
 0.41880001E+02  0.10007E-03
 0.41930000E+02  0.21402E-03
 0.41980000E+02  0.40905E-03
 0.42029999E+02  0.47826E-03
 0.42080002E+02  0.34747E-03
 0.42130001E+02  0.98271E-04
 0.42180000E+02 -0.93539E-04
 0.42230000E+02 -0.12929E-03
 0.42279999E+02 -0.15237E-03
 0.42330002E+02 -0.24778E-03
 0.42380001E+02 -0.28964E-03
 0.42430000E+02 -0.25324E-03
 0.42480000E+02 -0.26465E-03
 0.42529999E+02 -0.35379E-03
 0.42580002E+02 -0.43691E-03
 0.42630001E+02 -0.43288E-03
 0.42680000E+02 -0.39231E-03
 0.42730000E+02 -0.40727E-03
 0.42779999E+02 -0.47924E-03
 0.42830002E+02 -0.56592E-03
 0.42880001E+02 -0.53133E-03
 0.42930000E+02 -0.29919E-03
 0.42980000E+02 -0.29803E-04
 0.43029999E+02  0.13949E-03
 0.43080002E+02  0.28129E-03
 0.43130001E+02  0.43346E-03
 0.43180000E+02  0.52865E-03
 0.43230000E+02  0.51203E-03
 0.43279999E+02  0.38056E-03
 0.43330002E+02  0.26036E-03
 0.43380001E+02  0.21399E-03
 0.43430000E+02  0.16160E-03
 0.43480000E+02  0.47951E-04
 0.43529999E+02 -0.64209E-04
 0.43580002E+02 -0.82642E-04
 0.43630001E+02 -0.86932E-04
 0.43680000E+02 -0.12995E-03
 0.43730000E+02 -0.20789E-03
 0.43779999E+02 -0.34779E-03
 0.43830002E+02 -0.36976E-03
 0.43880001E+02 -0.14650E-03
 0.43930000E+02  0.11965E-03
 0.43980000E+02  0.24606E-03
 0.44029999E+02  0.30215E-03
 0.44080002E+02  0.39936E-03
 0.44130001E+02  0.49990E-03
 0.44180000E+02  0.53729E-03
 0.44230000E+02  0.49149E-03
 0.44279999E+02  0.37585E-03
 0.44330002E+02  0.22003E-03
 0.44380001E+02  0.31634E-04
 0.44430000E+02 -0.77971E-04
 0.44480000E+02 -0.17933E-04
 0.44529999E+02  0.74533E-04
 0.44580002E+02  0.54127E-04
 0.44630001E+02 -0.88230E-04
 0.44680000E+02 -0.34498E-03
 0.44730000E+02 -0.61113E-03
 0.44779999E+02 -0.67222E-03
 0.44830002E+02 -0.56543E-03
 0.44880001E+02 -0.51469E-03
 0.44930000E+02 -0.58232E-03
 0.44980000E+02 -0.62957E-03
 0.45029999E+02 -0.45300E-03
 0.45080002E+02 -0.13443E-03
 0.45130001E+02  0.84653E-04
 0.45180000E+02  0.19248E-03
 0.45230000E+02  0.27117E-03
 0.45279999E+02  0.38673E-03
 0.45330002E+02  0.55804E-03
 0.45380001E+02  0.64238E-03
 0.45430000E+02  0.51954E-03
 0.45480000E+02  0.34692E-03
 0.45529999E+02  0.26051E-03
 0.45580002E+02  0.10433E-03
 0.45630001E+02 -0.17302E-03
 0.45680000E+02 -0.36427E-03
 0.45730000E+02 -0.35720E-03
 0.45779999E+02 -0.21828E-03
 0.45830002E+02 -0.74692E-04
 0.45880001E+02 -0.93145E-04
 0.45930000E+02 -0.25687E-03
 0.45980000E+02 -0.33651E-03
 0.46029999E+02 -0.26576E-03
 0.46080002E+02 -0.12621E-03
 0.46130001E+02  0.11559E-04
 0.46180000E+02  0.13178E-03
 0.46230000E+02  0.29294E-03
 0.46279999E+02  0.43624E-03
 0.46330002E+02  0.46445E-03
 0.46380001E+02  0.40942E-03
 0.46430000E+02  0.30410E-03
 0.46480000E+02  0.18662E-03
 0.46529999E+02  0.76812E-04
 0.46580002E+02 -0.83811E-04
 0.46630001E+02 -0.21702E-03
 0.46680000E+02 -0.18332E-03
 0.46730000E+02 -0.70797E-04
 0.46779999E+02 -0.68894E-04
 0.46830002E+02 -0.17909E-03
 0.46880001E+02 -0.27047E-03
 0.46930000E+02 -0.30036E-03
 0.46980000E+02 -0.25916E-03
 0.47029999E+02 -0.13586E-03
 0.47080002E+02 -0.26900E-04
 0.47130001E+02  0.45983E-05
 0.47180000E+02  0.60363E-04
 0.47230000E+02  0.19080E-03
 0.47279999E+02  0.31297E-03
 0.47330002E+02  0.34875E-03
 0.47380001E+02  0.27706E-03
 0.47430000E+02  0.16343E-03
 0.47480000E+02  0.11553E-03
 0.47529999E+02  0.17599E-03
 0.47580002E+02  0.24973E-03
 0.47630001E+02  0.23631E-03
 0.47680000E+02  0.15921E-03
 0.47730000E+02  0.17340E-04
 0.47779999E+02 -0.19981E-03
 0.47830002E+02 -0.39814E-03
 0.47880001E+02 -0.49683E-03
 0.47930000E+02 -0.46854E-03
 0.47980000E+02 -0.31144E-03
 0.48029999E+02 -0.12425E-03
 0.48080002E+02 -0.55603E-05
 0.48130001E+02  0.35638E-04
 0.48180000E+02  0.79148E-05
 0.48230000E+02 -0.58150E-04
 0.48279999E+02 -0.14407E-03
 0.48330002E+02 -0.18173E-03
 0.48380001E+02 -0.71270E-04
 0.48430000E+02  0.12099E-03
 0.48480000E+02  0.28603E-03
 0.48529999E+02  0.41563E-03
 0.48580002E+02  0.50316E-03
 0.48630001E+02  0.53111E-03
 0.48680000E+02  0.52414E-03
 0.48730000E+02  0.41404E-03
 0.48779999E+02  0.14927E-03
 0.48830002E+02 -0.11784E-03
 0.48880001E+02 -0.34028E-03
 0.48930000E+02 -0.54569E-03
 0.48980000E+02 -0.66480E-03
 0.49029999E+02 -0.64125E-03
 0.49080002E+02 -0.48227E-03
 0.49130001E+02 -0.27406E-03
 0.49180000E+02 -0.70372E-04
 0.49230000E+02  0.56320E-04
 0.49279999E+02  0.78875E-04
 0.49330002E+02  0.10493E-03
 0.49380001E+02  0.16163E-03
 0.49430000E+02  0.17897E-03
 0.49480000E+02  0.10120E-03
 0.49529999E+02 -0.10158E-04
 0.49580002E+02 -0.35737E-04
 0.49630001E+02  0.36428E-04
 0.49680000E+02  0.12030E-03
 0.49730000E+02  0.13157E-03
 0.49779999E+02  0.11883E-03
 0.49830002E+02  0.14221E-03
 0.49880001E+02  0.17989E-03
 0.49930000E+02  0.27425E-03
 0.49980000E+02  0.38871E-03
 0.50029999E+02  0.37394E-03
 0.50080002E+02  0.22760E-03
 0.50130001E+02  0.48891E-04
 0.50180000E+02 -0.12394E-03
 0.50230000E+02 -0.28271E-03
 0.50279999E+02 -0.40293E-03
 0.50330002E+02 -0.46821E-03
 0.50380001E+02 -0.45918E-03
 0.50430000E+02 -0.40037E-03
 0.50480000E+02 -0.37714E-03
 0.50529999E+02 -0.36983E-03
 0.50580002E+02 -0.25076E-03
 0.50630001E+02  0.17529E-04
 0.50680000E+02  0.28837E-03
 0.50730000E+02  0.37770E-03
 0.50779999E+02  0.27353E-03
 0.50830002E+02  0.13540E-03
 0.50880001E+02  0.10353E-03
 0.50930000E+02  0.12061E-03
 0.50980000E+02  0.52454E-04
 0.51029999E+02 -0.24366E-04
 0.51080002E+02  0.40352E-04
 0.51130001E+02  0.17198E-03
 0.51180000E+02  0.25685E-03
 0.51230000E+02  0.27124E-03
 0.51279999E+02  0.21197E-03
 0.51330002E+02  0.11810E-03
 0.51380001E+02  0.23246E-04
 0.51430000E+02 -0.36601E-04
 0.51480000E+02 -0.64746E-04
 0.51529999E+02 -0.98822E-04
 0.51580002E+02 -0.12115E-03
 0.51630001E+02 -0.10915E-03
 0.51680000E+02 -0.12027E-03
 0.51730000E+02 -0.17784E-03
 0.51779999E+02 -0.18610E-03
 0.51830002E+02 -0.15324E-03
 0.51880001E+02 -0.15954E-03
 0.51930000E+02 -0.20118E-03
 0.51980000E+02 -0.23592E-03
 0.52029999E+02 -0.20671E-03
 0.52080002E+02 -0.10103E-03
 0.52130001E+02  0.25022E-04
 0.52180000E+02  0.96712E-04
 0.52230000E+02  0.11862E-03
 0.52279999E+02  0.14399E-03
 0.52330002E+02  0.17259E-03
 0.52380001E+02  0.19651E-03
 0.52430000E+02  0.24679E-03
 0.52480000E+02  0.32922E-03
 0.52529999E+02  0.37383E-03
 0.52580002E+02  0.36602E-03
 0.52630001E+02  0.37116E-03
 0.52680000E+02  0.35882E-03
 0.52730000E+02  0.23582E-03
 0.52779999E+02  0.14163E-04
 0.52830002E+02 -0.19739E-03
 0.52880001E+02 -0.30084E-03
 0.52930000E+02 -0.29484E-03
 0.52980000E+02 -0.28162E-03
 0.53029999E+02 -0.34465E-03
 0.53080002E+02 -0.42300E-03
 0.53130001E+02 -0.42856E-03
 0.53180000E+02 -0.40552E-03
 0.53230000E+02 -0.37038E-03
 0.53279999E+02 -0.25655E-03
 0.53330002E+02 -0.98162E-04
 0.53380001E+02  0.29609E-04
 0.53430000E+02  0.12972E-03
 0.53480000E+02  0.21418E-03
 0.53529999E+02  0.25630E-03
 0.53580002E+02  0.21666E-03
 0.53630001E+02  0.89849E-04
 0.53680000E+02 -0.43473E-04
 0.53730000E+02 -0.82688E-04
 0.53779999E+02 -0.51516E-04
 0.53830002E+02 -0.25934E-04
 0.53880001E+02 -0.13226E-04
 0.53930000E+02  0.12185E-04
 0.53980000E+02  0.70361E-04
 0.54029999E+02  0.14278E-03
 0.54080002E+02  0.16831E-03
 0.54130001E+02  0.93010E-04
 0.54180000E+02 -0.33695E-04
 0.54230000E+02 -0.75570E-04
 0.54279999E+02 -0.10892E-04
 0.54330002E+02  0.55505E-04
 0.54380001E+02  0.79464E-04
 0.54430000E+02  0.87889E-04
 0.54480000E+02  0.10598E-03
 0.54529999E+02  0.15769E-03
 0.54580002E+02  0.26180E-03
 0.54630001E+02  0.39887E-03
 0.54680000E+02  0.50532E-03
 0.54730000E+02  0.53659E-03
 0.54779999E+02  0.48107E-03
 0.54830002E+02  0.36613E-03
 0.54880001E+02  0.23865E-03
 0.54930000E+02  0.89905E-04
 0.54980000E+02 -0.98857E-04
 0.55029999E+02 -0.30483E-03
 0.55080002E+02 -0.49373E-03
 0.55130001E+02 -0.63503E-03
 0.55180000E+02 -0.71043E-03
 0.55230000E+02 -0.72660E-03
 0.55279999E+02 -0.70090E-03
 0.55330002E+02 -0.63670E-03
 0.55380001E+02 -0.51514E-03
 0.55430000E+02 -0.34488E-03
 0.55480000E+02 -0.19672E-03
 0.55529999E+02 -0.10005E-03
 0.55580002E+02 -0.18970E-04
 0.55630001E+02  0.57465E-04
 0.55680000E+02  0.13438E-03
 0.55730000E+02  0.22346E-03
 0.55779999E+02  0.31509E-03
 0.55830002E+02  0.42744E-03
 0.55880001E+02  0.58673E-03
 0.55930000E+02  0.74740E-03
 0.55980000E+02  0.84007E-03
 0.56029999E+02  0.81576E-03
 0.56080002E+02  0.64220E-03
 0.56130001E+02  0.36918E-03
 0.56180000E+02  0.10767E-03
 0.56230000E+02 -0.76390E-04
 0.56279999E+02 -0.18627E-03
 0.56330002E+02 -0.27710E-03
 0.56380001E+02 -0.41123E-03
 0.56430000E+02 -0.57911E-03
 0.56480000E+02 -0.71009E-03
 0.56529999E+02 -0.75606E-03
 0.56580002E+02 -0.71740E-03
 0.56630001E+02 -0.60752E-03
 0.56680000E+02 -0.42487E-03
 0.56730000E+02 -0.16893E-03
 0.56779999E+02  0.10803E-03
 0.56830002E+02  0.29160E-03
 0.56880001E+02  0.32892E-03
 0.56930000E+02  0.30006E-03
 0.56980000E+02  0.27842E-03
 0.57029999E+02  0.22079E-03
 0.57080002E+02  0.99342E-04
 0.57130001E+02 -0.18737E-04
 0.57180000E+02 -0.86794E-04
 0.57230000E+02 -0.86387E-04
 0.57279999E+02 -0.24457E-04
 0.57330002E+02  0.49959E-04
 0.57380001E+02  0.11203E-03
 0.57430000E+02  0.15442E-03
 0.57480000E+02  0.18688E-03
 0.57529999E+02  0.23667E-03
 0.57580002E+02  0.28959E-03
 0.57630001E+02  0.30942E-03
 0.57680000E+02  0.29454E-03
 0.57730000E+02  0.24428E-03
 0.57779999E+02  0.13539E-03
 0.57830002E+02 -0.10450E-04
 0.57880001E+02 -0.14035E-03
 0.57930000E+02 -0.24556E-03
 0.57980000E+02 -0.33008E-03
 0.58029999E+02 -0.37778E-03
 0.58080002E+02 -0.38244E-03
 0.58130001E+02 -0.34125E-03
 0.58180000E+02 -0.26155E-03
 0.58230000E+02 -0.16088E-03
 0.58279999E+02 -0.24800E-04
 0.58330002E+02  0.16301E-03
 0.58380001E+02  0.36085E-03
 0.58430000E+02  0.47481E-03
 0.58480000E+02  0.45807E-03
 0.58529999E+02  0.34997E-03
 0.58580002E+02  0.21079E-03
 0.58630001E+02  0.93516E-04
 0.58680000E+02  0.18653E-04
 0.58730000E+02 -0.15451E-04
 0.58779999E+02 -0.17671E-04
 0.58830002E+02 -0.11241E-04
 0.58880001E+02 -0.26082E-04
 0.58930000E+02 -0.10342E-03
 0.58980000E+02 -0.23903E-03
 0.59029999E+02 -0.36031E-03
 0.59080002E+02 -0.41416E-03
 0.59130001E+02 -0.40185E-03
 0.59180000E+02 -0.33403E-03
 0.59230000E+02 -0.23140E-03
 0.59279999E+02 -0.12846E-03
 0.59330002E+02 -0.15299E-04
 0.59380001E+02  0.11260E-03
 0.59430000E+02  0.19496E-03
 0.59480000E+02  0.21659E-03
 0.59529999E+02  0.22811E-03
 0.59580002E+02  0.23146E-03
 0.59630001E+02  0.19655E-03
 0.59680000E+02  0.13520E-03
 0.59730000E+02  0.59740E-04
 0.59779999E+02 -0.17846E-04
 0.59830002E+02 -0.47041E-04
 0.59880001E+02 -0.81938E-05
 0.59930000E+02  0.46654E-04
 0.59980000E+02  0.74121E-04
 0.60029999E+02  0.65747E-04
 0.60080002E+02  0.14382E-04
 0.60130001E+02 -0.56632E-04
 0.60180000E+02 -0.14059E-03
 0.60230000E+02 -0.25632E-03
 0.60279999E+02 -0.35960E-03
 0.60330002E+02 -0.38350E-03
 0.60380001E+02 -0.29977E-03
 0.60430000E+02 -0.13338E-03
 0.60480000E+02  0.43091E-04
 0.60529999E+02  0.16561E-03
 0.60580002E+02  0.22971E-03
 0.60630001E+02  0.27713E-03
 0.60680000E+02  0.35104E-03
 0.60730000E+02  0.44189E-03
 0.60779999E+02  0.48199E-03
 0.60830002E+02  0.43611E-03
 0.60880001E+02  0.32422E-03
 0.60930000E+02  0.17816E-03
 0.60980000E+02  0.31627E-04
 0.61029999E+02 -0.84205E-04
 0.61080002E+02 -0.17127E-03
 0.61130001E+02 -0.26611E-03
 0.61180000E+02 -0.35920E-03
 0.61230000E+02 -0.42316E-03
 0.61279999E+02 -0.47206E-03
 0.61330002E+02 -0.48908E-03
 0.61380001E+02 -0.43781E-03
 0.61430000E+02 -0.31451E-03
 0.61480000E+02 -0.14245E-03
 0.61529999E+02  0.39490E-04
 0.61580002E+02  0.21012E-03
 0.61630001E+02  0.35014E-03
 0.61680000E+02  0.42390E-03
 0.61730000E+02  0.40093E-03
 0.61779999E+02  0.26635E-03
 0.61830002E+02  0.76867E-04
 0.61880001E+02 -0.43565E-04
 0.61930000E+02 -0.49654E-04
 0.61980000E+02  0.13351E-04
 0.62029999E+02  0.12160E-03
 0.62080002E+02  0.23161E-03
 0.62130001E+02  0.26405E-03
 0.62180000E+02  0.19598E-03
 0.62230000E+02  0.47366E-04
 0.62279999E+02 -0.15140E-03
 0.62330002E+02 -0.33495E-03
 0.62380001E+02 -0.44045E-03
 0.62430000E+02 -0.45301E-03
 0.62480000E+02 -0.38521E-03
 0.62529999E+02 -0.27111E-03
 0.62580002E+02 -0.14624E-03
 0.62630001E+02 -0.20987E-04
 0.62680000E+02  0.10527E-03
 0.62730000E+02  0.23421E-03
 0.62779999E+02  0.33169E-03
 0.62830002E+02  0.36064E-03
 0.62880001E+02  0.33470E-03
 0.62930000E+02  0.27136E-03
 0.62980000E+02  0.18546E-03
 0.63029999E+02  0.90814E-04
 0.63080002E+02 -0.12491E-04
 0.63130001E+02 -0.95630E-04
 0.63180000E+02 -0.12456E-03
 0.63230000E+02 -0.11951E-03
 0.63279999E+02 -0.10057E-03
 0.63330002E+02 -0.68762E-04
 0.63380001E+02 -0.44709E-04
 0.63430000E+02 -0.42826E-04
 0.63480000E+02 -0.59330E-04
 0.63529999E+02 -0.83915E-04
 0.63580002E+02 -0.11272E-03
 0.63630001E+02 -0.14259E-03
 0.63680000E+02 -0.16406E-03
 0.63730000E+02 -0.16629E-03
 0.63779999E+02 -0.12567E-03
 0.63830002E+02 -0.38598E-04
 0.63880001E+02  0.50691E-04
 0.63930000E+02  0.10996E-03
 0.63980000E+02  0.15757E-03
 0.64029999E+02  0.21340E-03
 0.64080002E+02  0.25511E-03
 0.64129997E+02  0.25573E-03
 0.64180000E+02  0.22166E-03
 0.64230003E+02  0.15739E-03
 0.64279999E+02  0.62521E-04
 0.64330002E+02 -0.30673E-04
 0.64379997E+02 -0.89188E-04
 0.64430000E+02 -0.11618E-03
 0.64480003E+02 -0.12744E-03
 0.64529999E+02 -0.14116E-03
 0.64580002E+02 -0.15623E-03
 0.64629997E+02 -0.14876E-03
 0.64680000E+02 -0.11124E-03
 0.64730003E+02 -0.51379E-04
 0.64779999E+02  0.13435E-04
 0.64830002E+02  0.70709E-04
 0.64879997E+02  0.11901E-03
 0.64930000E+02  0.14215E-03
 0.64980003E+02  0.11854E-03
 0.65029999E+02  0.52132E-04
 0.65080002E+02 -0.25247E-04
 0.65129997E+02 -0.81359E-04
 0.65180000E+02 -0.99511E-04
 0.65230003E+02 -0.85323E-04
 0.65279999E+02 -0.65608E-04
 0.65330002E+02 -0.47792E-04
 0.65379997E+02 -0.27634E-04
 0.65430000E+02 -0.32017E-04
 0.65480003E+02 -0.87846E-04
 0.65529999E+02 -0.17448E-03
 0.65580002E+02 -0.22874E-03
 0.65629997E+02 -0.21546E-03
 0.65680000E+02 -0.14589E-03
 0.65730003E+02 -0.47876E-04
 0.65779999E+02  0.38899E-04
 0.65830002E+02  0.10817E-03
 0.65879997E+02  0.16106E-03
 0.65930000E+02  0.16628E-03
 0.65980003E+02  0.12587E-03
 0.66029999E+02  0.91648E-04
 0.66080002E+02  0.95283E-04
 0.66129997E+02  0.12057E-03
 0.66180000E+02  0.15035E-03
 0.66230003E+02  0.18254E-03
 0.66279999E+02  0.20840E-03
 0.66330002E+02  0.20481E-03
 0.66379997E+02  0.15470E-03
 0.66430000E+02  0.62612E-04
 0.66480003E+02 -0.49517E-04
 0.66529999E+02 -0.13001E-03
 0.66580002E+02 -0.13657E-03
 0.66629997E+02 -0.86439E-04
 0.66680000E+02 -0.21837E-04
 0.66730003E+02  0.32226E-04
 0.66779999E+02  0.78925E-04
 0.66830002E+02  0.14346E-03
 0.66879997E+02  0.22374E-03
 0.66930000E+02  0.26611E-03
 0.66980003E+02  0.22750E-03
 0.67029999E+02  0.13379E-03
 0.67080002E+02  0.33575E-04
 0.67129997E+02 -0.66831E-04
 0.67180000E+02 -0.17392E-03
 0.67230003E+02 -0.28330E-03
 0.67279999E+02 -0.38462E-03
 0.67330002E+02 -0.44957E-03
 0.67379997E+02 -0.45706E-03
 0.67430000E+02 -0.41905E-03
 0.67480003E+02 -0.35525E-03
 0.67529999E+02 -0.28374E-03
 0.67580002E+02 -0.22055E-03
 0.67629997E+02 -0.16379E-03
 0.67680000E+02 -0.10654E-03
 0.67730003E+02 -0.27588E-04
 0.67779999E+02  0.85161E-04
 0.67830002E+02  0.19352E-03
 0.67879997E+02  0.25907E-03
 0.67930000E+02  0.27189E-03
 0.67980003E+02  0.23560E-03
 0.68029999E+02  0.17756E-03
 0.68080002E+02  0.13131E-03
 0.68129997E+02  0.11091E-03
 0.68180000E+02  0.12046E-03
 0.68230003E+02  0.15468E-03
 0.68279999E+02  0.19520E-03
 0.68330002E+02  0.22575E-03
 0.68379997E+02  0.24858E-03
 0.68430000E+02  0.25776E-03
 0.68480003E+02  0.22918E-03
 0.68529999E+02  0.15598E-03
 0.68580002E+02  0.64950E-04
 0.68629997E+02  0.24961E-05
 0.68680000E+02 -0.20399E-04
 0.68730003E+02 -0.41207E-04
 0.68779999E+02 -0.92646E-04
 0.68830002E+02 -0.16983E-03
 0.68879997E+02 -0.23019E-03
 0.68930000E+02 -0.23970E-03
 0.68980003E+02 -0.21854E-03
 0.69029999E+02 -0.19717E-03
 0.69080002E+02 -0.17770E-03
 0.69129997E+02 -0.14738E-03
 0.69180000E+02 -0.93898E-04
 0.69230003E+02 -0.21580E-04
 0.69279999E+02  0.56732E-04
 0.69330002E+02  0.11593E-03
 0.69379997E+02  0.12586E-03
 0.69430000E+02  0.88463E-04
 0.69480003E+02  0.37468E-04
 0.69529999E+02 -0.10846E-04
 0.69580002E+02 -0.70572E-04
 0.69629997E+02 -0.13523E-03
 0.69680000E+02 -0.17145E-03
 0.69730003E+02 -0.15163E-03
 0.69779999E+02 -0.79323E-04
 0.69830002E+02  0.16382E-04
 0.69879997E+02  0.10398E-03
 0.69930000E+02  0.15609E-03
 0.69980003E+02  0.16289E-03
 0.70029999E+02  0.13969E-03
 0.70080002E+02  0.11721E-03
 0.70129997E+02  0.10318E-03
 0.70180000E+02  0.69090E-04
 0.70230003E+02  0.11103E-04
 0.70279999E+02 -0.33444E-04
 0.70330002E+02 -0.45221E-04
 0.70379997E+02 -0.39688E-04
 0.70430000E+02 -0.30732E-04
 0.70480003E+02 -0.20698E-04
 0.70529999E+02 -0.15807E-04
 0.70580002E+02 -0.21613E-04
 0.70629997E+02 -0.44073E-04
 0.70680000E+02 -0.83981E-04
 0.70730003E+02 -0.12366E-03
 0.70779999E+02 -0.13486E-03
 0.70830002E+02 -0.96619E-04
 0.70879997E+02 -0.18669E-04
 0.70930000E+02  0.67276E-04
 0.70980003E+02  0.13357E-03
 0.71029999E+02  0.16719E-03
 0.71080002E+02  0.16473E-03
 0.71129997E+02  0.13212E-03
 0.71180000E+02  0.86443E-04
 0.71230003E+02  0.38780E-04
 0.71279999E+02 -0.36979E-05
 0.71330002E+02 -0.30067E-04
 0.71379997E+02 -0.36225E-04
 0.71430000E+02 -0.28467E-04
 0.71480003E+02 -0.11361E-04
 0.71529999E+02  0.11909E-04
 0.71580002E+02  0.26179E-04
 0.71629997E+02  0.17820E-04
 0.71680000E+02 -0.65205E-05
 0.71730003E+02 -0.27815E-04
 0.71779999E+02 -0.40670E-04
 0.71830002E+02 -0.61845E-04
 0.71879997E+02 -0.98690E-04
 0.71930000E+02 -0.13697E-03
 0.71980003E+02 -0.16273E-03
 0.72029999E+02 -0.16449E-03
 0.72080002E+02 -0.12793E-03
 0.72129997E+02 -0.48906E-04
 0.72180000E+02  0.47398E-04
 0.72230003E+02  0.12945E-03
 0.72279999E+02  0.18413E-03
 0.72330002E+02  0.19299E-03
 0.72379997E+02  0.14152E-03
 0.72430000E+02  0.50390E-04
 0.72480003E+02 -0.44203E-04
 0.72529999E+02 -0.11928E-03
 0.72580002E+02 -0.15166E-03
 0.72629997E+02 -0.12877E-03
 0.72680000E+02 -0.73780E-04
 0.72730003E+02 -0.11514E-04
 0.72779999E+02  0.44603E-04
 0.72830002E+02  0.77401E-04
 0.72879997E+02  0.78444E-04
 0.72930000E+02  0.54232E-04
 0.72980003E+02  0.21563E-04
 0.73029999E+02 -0.30038E-05
 0.73080002E+02 -0.11872E-04
 0.73129997E+02 -0.42987E-05
 0.73180000E+02  0.14435E-04
 0.73230003E+02  0.33961E-04
 0.73279999E+02  0.46782E-04
 0.73330002E+02  0.54972E-04
 0.73379997E+02  0.52136E-04
 0.73430000E+02  0.27781E-04
 0.73480003E+02 -0.62419E-05
 0.73529999E+02 -0.31794E-04
 0.73580002E+02 -0.39200E-04
 0.73629997E+02 -0.24318E-04
 0.73680000E+02  0.91958E-05
 0.73730003E+02  0.41547E-04
 0.73779999E+02  0.45671E-04
 0.73830002E+02  0.19727E-04
 0.73879997E+02 -0.21314E-04
 0.73930000E+02 -0.71483E-04
 0.73980003E+02 -0.11861E-03
 0.74029999E+02 -0.13070E-03
 0.74080002E+02 -0.87934E-04
 0.74129997E+02 -0.11577E-04
 0.74180000E+02  0.59163E-04
 0.74230003E+02  0.10124E-03
 0.74279999E+02  0.11502E-03
 0.74330002E+02  0.11787E-03
 0.74379997E+02  0.13070E-03
 0.74430000E+02  0.15174E-03
 0.74480003E+02  0.15408E-03
 0.74529999E+02  0.12456E-03
 0.74580002E+02  0.75460E-04
 0.74629997E+02  0.21710E-04
 0.74680000E+02 -0.26944E-04
 0.74730003E+02 -0.76637E-04
 0.74779999E+02 -0.14119E-03
 0.74830002E+02 -0.20629E-03
 0.74879997E+02 -0.24133E-03
 0.74930000E+02 -0.23640E-03
 0.74980003E+02 -0.19391E-03
 0.75029999E+02 -0.11279E-03
 0.75080002E+02 -0.35304E-05
 0.75129997E+02  0.10728E-03
 0.75180000E+02  0.19078E-03
 0.75230003E+02  0.22447E-03
 0.75279999E+02  0.20255E-03
 0.75330002E+02  0.13463E-03
 0.75379997E+02  0.41971E-04
 0.75430000E+02 -0.47316E-04
 0.75480003E+02 -0.11713E-03
 0.75529999E+02 -0.16457E-03
 0.75580002E+02 -0.19049E-03
 0.75629997E+02 -0.19632E-03
 0.75680000E+02 -0.18616E-03
 0.75730003E+02 -0.16167E-03
 0.75779999E+02 -0.11498E-03
 0.75830002E+02 -0.47089E-04
 0.75879997E+02  0.22830E-04
 0.75930000E+02  0.75628E-04
 0.75980003E+02  0.11290E-03
 0.76029999E+02  0.14989E-03
 0.76080002E+02  0.18580E-03
 0.76129997E+02  0.20696E-03
 0.76180000E+02  0.20970E-03
 0.76230003E+02  0.19801E-03
 0.76279999E+02  0.17104E-03
 0.76330002E+02  0.11971E-03
 0.76379997E+02  0.39504E-04
 0.76430000E+02 -0.47567E-04
 0.76480003E+02 -0.12084E-03
 0.76529999E+02 -0.18211E-03
 0.76580002E+02 -0.22156E-03
 0.76629997E+02 -0.22594E-03
 0.76680000E+02 -0.19640E-03
 0.76730003E+02 -0.14129E-03
 0.76779999E+02 -0.77394E-04
 0.76830002E+02 -0.21000E-04
 0.76879997E+02  0.16322E-04
 0.76930000E+02  0.28444E-04
 0.76980003E+02  0.25340E-04
 0.77029999E+02  0.22525E-04
 0.77080002E+02  0.22062E-04
 0.77129997E+02  0.26034E-04
 0.77180000E+02  0.42027E-04
 0.77230003E+02  0.69242E-04
 0.77279999E+02  0.10978E-03
 0.77330002E+02  0.16610E-03
 0.77379997E+02  0.22836E-03
 0.77430000E+02  0.28238E-03
 0.77480003E+02  0.30850E-03
 0.77529999E+02  0.28841E-03
 0.77580002E+02  0.21379E-03
 0.77629997E+02  0.99304E-04
 0.77680000E+02 -0.22796E-04
 0.77730003E+02 -0.13703E-03
 0.77779999E+02 -0.23039E-03
 0.77830002E+02 -0.29129E-03
 0.77879997E+02 -0.33411E-03
 0.77930000E+02 -0.36712E-03
 0.77980003E+02 -0.37087E-03
 0.78029999E+02 -0.32239E-03
 0.78080002E+02 -0.21222E-03
 0.78129997E+02 -0.55317E-04
 0.78180000E+02  0.10295E-03
 0.78230003E+02  0.21480E-03
 0.78279999E+02  0.26057E-03
 0.78330002E+02  0.24477E-03
 0.78379997E+02  0.18811E-03
 0.78430000E+02  0.12105E-03
 0.78480003E+02  0.60313E-04
 0.78529999E+02  0.60845E-05
 0.78580002E+02 -0.35390E-04
 0.78629997E+02 -0.57644E-04
 0.78680000E+02 -0.64070E-04
 0.78730003E+02 -0.62818E-04
 0.78779999E+02 -0.66370E-04
 0.78830002E+02 -0.82860E-04
 0.78879997E+02 -0.11248E-03
 0.78930000E+02 -0.13793E-03
 0.78980003E+02 -0.13514E-03
 0.79029999E+02 -0.10619E-03
 0.79080002E+02 -0.65094E-04
 0.79129997E+02 -0.16733E-04
 0.79180000E+02  0.46097E-04
 0.79230003E+02  0.12948E-03
 0.79279999E+02  0.20665E-03
 0.79330002E+02  0.23532E-03
 0.79379997E+02  0.20784E-03
 0.79430000E+02  0.14804E-03
 0.79480003E+02  0.79408E-04
 0.79529999E+02  0.13870E-04
 0.79580002E+02 -0.47463E-04
 0.79629997E+02 -0.10397E-03
 0.79680000E+02 -0.14252E-03
 0.79730003E+02 -0.14645E-03
 0.79779999E+02 -0.10952E-03
 0.79830002E+02 -0.35665E-04
 0.79879997E+02  0.48320E-04
 0.79930000E+02  0.10591E-03
 0.79980003E+02  0.12480E-03
 0.80029999E+02  0.11268E-03
 0.80080002E+02  0.84850E-04
 0.80129997E+02  0.52405E-04
 0.80180000E+02  0.13445E-04
 0.80230003E+02 -0.34155E-04
 0.80279999E+02 -0.82050E-04
 0.80330002E+02 -0.11514E-03
 0.80379997E+02 -0.12107E-03
 0.80430000E+02 -0.95228E-04
 0.80480003E+02 -0.45651E-04
 0.80529999E+02  0.11422E-04
 0.80580002E+02  0.64919E-04
 0.80629997E+02  0.10374E-03
 0.80680000E+02  0.12268E-03
 0.80730003E+02  0.12421E-03
 0.80779999E+02  0.10393E-03
 0.80830002E+02  0.60634E-04
 0.80879997E+02  0.14561E-05
 0.80930000E+02 -0.61468E-04
 0.80980003E+02 -0.11709E-03
 0.81029999E+02 -0.16172E-03
 0.81080002E+02 -0.18556E-03
 0.81129997E+02 -0.17616E-03
 0.81180000E+02 -0.13503E-03
 0.81230003E+02 -0.71329E-04
 0.81279999E+02  0.25557E-05
 0.81330002E+02  0.69469E-04
 0.81379997E+02  0.11592E-03
 0.81430000E+02  0.13450E-03
 0.81480003E+02  0.12375E-03
 0.81529999E+02  0.95651E-04
 0.81580002E+02  0.67548E-04
 0.81629997E+02  0.41179E-04
 0.81680000E+02  0.11297E-04
 0.81730003E+02 -0.21264E-04
 0.81779999E+02 -0.52741E-04
 0.81830002E+02 -0.71537E-04
 0.81879997E+02 -0.70651E-04
 0.81930000E+02 -0.59655E-04
 0.81980003E+02 -0.49423E-04
 0.82029999E+02 -0.42079E-04
 0.82080002E+02 -0.35444E-04
 0.82129997E+02 -0.28703E-04
 0.82180000E+02 -0.20486E-04
 0.82230003E+02 -0.40874E-05
 0.82279999E+02  0.30021E-04
 0.82330002E+02  0.83551E-04
 0.82379997E+02  0.14018E-03
 0.82430000E+02  0.18083E-03
 0.82480003E+02  0.20256E-03
 0.82529999E+02  0.19525E-03
 0.82580002E+02  0.14186E-03
 0.82629997E+02  0.49616E-04
 0.82680000E+02 -0.54649E-04
 0.82730003E+02 -0.14620E-03
 0.82779999E+02 -0.21072E-03
 0.82830002E+02 -0.23626E-03
 0.82879997E+02 -0.22008E-03
 0.82930000E+02 -0.17271E-03
 0.82980003E+02 -0.10737E-03
 0.83029999E+02 -0.38389E-04
 0.83080002E+02  0.21832E-04
 0.83129997E+02  0.69653E-04
 0.83180000E+02  0.10687E-03
 0.83230003E+02  0.12242E-03
 0.83279999E+02  0.10754E-03
 0.83330002E+02  0.74789E-04
 0.83379997E+02  0.35355E-04
 0.83430000E+02 -0.46977E-05
 0.83480003E+02 -0.36339E-04
 0.83529999E+02 -0.51790E-04
 0.83580002E+02 -0.45576E-04
 0.83629997E+02 -0.21954E-04
 0.83680000E+02  0.38090E-05
 0.83730003E+02  0.15207E-04
 0.83779999E+02  0.38529E-05
 0.83830002E+02 -0.20357E-04
 0.83879997E+02 -0.42115E-04
 0.83930000E+02 -0.57503E-04
 0.83980003E+02 -0.63680E-04
 0.84029999E+02 -0.57341E-04
 0.84080002E+02 -0.40086E-04
 0.84129997E+02 -0.19702E-04
 0.84180000E+02 -0.47830E-05
 0.84230003E+02  0.61422E-05
 0.84279999E+02  0.17797E-04
 0.84330002E+02  0.28901E-04
 0.84379997E+02  0.39437E-04
 0.84430000E+02  0.56773E-04
 0.84480003E+02  0.82043E-04
 0.84529999E+02  0.10602E-03
 0.84580002E+02  0.11928E-03
 0.84629997E+02  0.11759E-03
 0.84680000E+02  0.10291E-03
 0.84730003E+02  0.73190E-04
 0.84779999E+02  0.25252E-04
 0.84830002E+02 -0.33822E-04
 0.84879997E+02 -0.87967E-04
 0.84930000E+02 -0.11901E-03
 0.84980003E+02 -0.12291E-03
 0.85029999E+02 -0.11248E-03
 0.85080002E+02 -0.10120E-03
 0.85129997E+02 -0.89987E-04
 0.85180000E+02 -0.71870E-04
 0.85230003E+02 -0.43881E-04
 0.85279999E+02 -0.11585E-04
 0.85330002E+02  0.12604E-04
 0.85379997E+02  0.23601E-04
 0.85430000E+02  0.23471E-04
 0.85480003E+02  0.14133E-04
 0.85529999E+02  0.22351E-05
 0.85580002E+02 -0.14106E-05
 0.85629997E+02  0.14169E-04
 0.85680000E+02  0.53038E-04
 0.85730003E+02  0.10667E-03
 0.85779999E+02  0.15988E-03
 0.85830002E+02  0.20149E-03
 0.85879997E+02  0.22293E-03
 0.85930000E+02  0.21201E-03
 0.85980003E+02  0.16806E-03
 0.86029999E+02  0.10736E-03
 0.86080002E+02  0.39209E-04
 0.86129997E+02 -0.30624E-04
 0.86180000E+02 -0.88240E-04
 0.86230003E+02 -0.12492E-03
 0.86279999E+02 -0.14330E-03
 0.86330002E+02 -0.15389E-03
 0.86379997E+02 -0.16329E-03
 0.86430000E+02 -0.16901E-03
 0.86480003E+02 -0.16650E-03
 0.86529999E+02 -0.15333E-03
 0.86580002E+02 -0.13266E-03
 0.86629997E+02 -0.11198E-03
 0.86680000E+02 -0.96553E-04
 0.86730003E+02 -0.85461E-04
 0.86779999E+02 -0.72415E-04
 0.86830002E+02 -0.51562E-04
 0.86879997E+02 -0.23033E-04
 0.86930000E+02  0.11164E-04
 0.86980003E+02  0.51724E-04
 0.87029999E+02  0.94979E-04
 0.87080002E+02  0.12870E-03
 0.87129997E+02  0.14101E-03
 0.87180000E+02  0.13197E-03
 0.87230003E+02  0.11186E-03
 0.87279999E+02  0.86102E-04
 0.87330002E+02  0.57747E-04
 0.87379997E+02  0.36184E-04
 0.87430000E+02  0.26794E-04
 0.87480003E+02  0.28729E-04
 0.87529999E+02  0.48389E-04
 0.87580002E+02  0.91872E-04
 0.87629997E+02  0.13945E-03
 0.87680000E+02  0.15991E-03
 0.87730003E+02  0.14120E-03
 0.87779999E+02  0.90613E-04
 0.87830002E+02  0.22798E-04
 0.87879997E+02 -0.52628E-04
 0.87930000E+02 -0.13184E-03
 0.87980003E+02 -0.20590E-03
 0.88029999E+02 -0.25613E-03
 0.88080002E+02 -0.27262E-03
 0.88129997E+02 -0.26074E-03
 0.88180000E+02 -0.22582E-03
 0.88230003E+02 -0.17343E-03
 0.88279999E+02 -0.10998E-03
 0.88330002E+02 -0.41607E-04
 0.88379997E+02  0.28810E-04
 0.88430000E+02  0.95216E-04
 0.88480003E+02  0.14678E-03
 0.88529999E+02  0.18439E-03
 0.88580002E+02  0.21071E-03
 0.88629997E+02  0.22257E-03
 0.88680000E+02  0.21911E-03
 0.88730003E+02  0.20008E-03
 0.88779999E+02  0.16124E-03
 0.88830002E+02  0.10193E-03
 0.88879997E+02  0.35498E-04
 0.88930000E+02 -0.24435E-04
 0.88980003E+02 -0.71971E-04
 0.89029999E+02 -0.10255E-03
 0.89080002E+02 -0.12217E-03
 0.89129997E+02 -0.14268E-03
 0.89180000E+02 -0.16148E-03
 0.89230003E+02 -0.16883E-03
 0.89279999E+02 -0.16095E-03
 0.89330002E+02 -0.14042E-03
 0.89379997E+02 -0.11337E-03
 0.89430000E+02 -0.87453E-04
 0.89480003E+02 -0.66555E-04
 0.89529999E+02 -0.43713E-04
 0.89580002E+02 -0.10400E-04
 0.89629997E+02  0.38353E-04
 0.89680000E+02  0.93380E-04
 0.89730003E+02  0.13213E-03
 0.89779999E+02  0.15211E-03
 0.89830002E+02  0.16413E-03
 0.89879997E+02  0.17006E-03
 0.89930000E+02  0.16767E-03
 0.89980003E+02  0.15506E-03
 0.90029999E+02  0.13724E-03
 0.90080002E+02  0.12072E-03
 0.90129997E+02  0.10172E-03
 0.90180000E+02  0.74017E-04
 0.90230003E+02  0.36759E-04
 0.90279999E+02 -0.12286E-04
 0.90330002E+02 -0.70647E-04
 0.90379997E+02 -0.12716E-03
 0.90430000E+02 -0.17370E-03
 0.90480003E+02 -0.20874E-03
 0.90529999E+02 -0.22945E-03
 0.90580002E+02 -0.22757E-03
 0.90629997E+02 -0.20298E-03
 0.90680000E+02 -0.16013E-03
 0.90730003E+02 -0.10158E-03
 0.90779999E+02 -0.36431E-04
 0.90830002E+02  0.25350E-04
 0.90879997E+02  0.77034E-04
 0.90930000E+02  0.11613E-03
 0.90980003E+02  0.13945E-03
 0.91029999E+02  0.14482E-03
 0.91080002E+02  0.13862E-03
 0.91129997E+02  0.12496E-03
 0.91180000E+02  0.10312E-03
 0.91230003E+02  0.75645E-04
 0.91279999E+02  0.46908E-04
 0.91330002E+02  0.18449E-04
 0.91379997E+02 -0.86875E-05
 0.91430000E+02 -0.33021E-04
 0.91480003E+02 -0.50783E-04
 0.91529999E+02 -0.54720E-04
 0.91580002E+02 -0.41029E-04
 0.91629997E+02 -0.14354E-04
 0.91680000E+02  0.91008E-05
 0.91730003E+02  0.14802E-04
 0.91779999E+02  0.41851E-05
 0.91830002E+02 -0.14135E-04
 0.91879997E+02 -0.33976E-04
 0.91930000E+02 -0.50941E-04
 0.91980003E+02 -0.59218E-04
 0.92029999E+02 -0.62598E-04
 0.92080002E+02 -0.69363E-04
 0.92129997E+02 -0.74218E-04
 0.92180000E+02 -0.69719E-04
 0.92230003E+02 -0.54955E-04
 0.92279999E+02 -0.32005E-04
 0.92330002E+02 -0.47001E-05
 0.92379997E+02  0.20249E-04
 0.92430000E+02  0.38516E-04
 0.92480003E+02  0.54681E-04
 0.92529999E+02  0.74011E-04
 0.92580002E+02  0.94198E-04
 0.92629997E+02  0.10752E-03
 0.92680000E+02  0.10763E-03
 0.92730003E+02  0.93243E-04
 0.92779999E+02  0.66214E-04
 0.92830002E+02  0.29240E-04
 0.92879997E+02 -0.85297E-05
 0.92930000E+02 -0.34301E-04
 0.92980003E+02 -0.46366E-04
 0.93029999E+02 -0.49418E-04
 0.93080002E+02 -0.46277E-04
 0.93129997E+02 -0.42927E-04
 0.93180000E+02 -0.43837E-04
 0.93230003E+02 -0.46506E-04
 0.93279999E+02 -0.43249E-04
 0.93330002E+02 -0.28520E-04
 0.93379997E+02 -0.53212E-05
 0.93430000E+02  0.23158E-04
 0.93480003E+02  0.57581E-04
 0.93529999E+02  0.92778E-04
 0.93580002E+02  0.11364E-03
 0.93629997E+02  0.10536E-03
 0.93680000E+02  0.65270E-04
 0.93730003E+02  0.75847E-05
 0.93779999E+02 -0.45943E-04
 0.93830002E+02 -0.79849E-04
 0.93879997E+02 -0.89943E-04
 0.93930000E+02 -0.83665E-04
 0.93980003E+02 -0.65223E-04
 0.94029999E+02 -0.32883E-04
 0.94080002E+02  0.27545E-05
 0.94129997E+02  0.27041E-04
 0.94180000E+02  0.36585E-04
 0.94230003E+02  0.34456E-04
 0.94279999E+02  0.26733E-04
 0.94330002E+02  0.17650E-04
 0.94379997E+02  0.74146E-05
 0.94430000E+02 -0.46002E-05
 0.94480003E+02 -0.19085E-04
 0.94529999E+02 -0.34389E-04
 0.94580002E+02 -0.50360E-04
 0.94629997E+02 -0.66810E-04
 0.94680000E+02 -0.81957E-04
 0.94730003E+02 -0.96324E-04
 0.94779999E+02 -0.10924E-03
 0.94830002E+02 -0.11894E-03
 0.94879997E+02 -0.12153E-03
 0.94930000E+02 -0.11048E-03
 0.94980003E+02 -0.80724E-04
 0.95029999E+02 -0.33413E-04
 0.95080002E+02  0.27498E-04
 0.95129997E+02  0.99941E-04
 0.95180000E+02  0.17474E-03
 0.95230003E+02  0.23746E-03
 0.95279999E+02  0.27491E-03
 0.95330002E+02  0.27832E-03
 0.95379997E+02  0.24963E-03
 0.95430000E+02  0.19617E-03
 0.95480003E+02  0.12859E-03
 0.95529999E+02  0.61614E-04
 0.95580002E+02  0.48745E-05
 0.95629997E+02 -0.40850E-04
 0.95680000E+02 -0.77892E-04
 0.95730003E+02 -0.10851E-03
 0.95779999E+02 -0.13683E-03
 0.95830002E+02 -0.16631E-03
 0.95879997E+02 -0.19536E-03
 0.95930000E+02 -0.21606E-03
 0.95980003E+02 -0.22007E-03
 0.96029999E+02 -0.20604E-03
 0.96080002E+02 -0.17828E-03
 0.96129997E+02 -0.14100E-03
 0.96180000E+02 -0.93897E-04
 0.96230003E+02 -0.39617E-04
 0.96279999E+02  0.14821E-04
 0.96330002E+02  0.65235E-04
 0.96379997E+02  0.10715E-03
 0.96430000E+02  0.13755E-03
 0.96480003E+02  0.15818E-03
 0.96529999E+02  0.17224E-03
 0.96580002E+02  0.18251E-03
 0.96629997E+02  0.18640E-03
 0.96680000E+02  0.17846E-03
 0.96730003E+02  0.15906E-03
 0.96779999E+02  0.13151E-03
 0.96830002E+02  0.10028E-03
 0.96879997E+02  0.69155E-04
 0.96930000E+02  0.37563E-04
 0.96980003E+02  0.54729E-05
 0.97029999E+02 -0.26182E-04
 0.97080002E+02 -0.55495E-04
 0.97129997E+02 -0.78854E-04
 0.97180000E+02 -0.95365E-04
 0.97230003E+02 -0.10553E-03
 0.97279999E+02 -0.11060E-03
 0.97330002E+02 -0.11307E-03
 0.97379997E+02 -0.11409E-03
 0.97430000E+02 -0.10982E-03
 0.97480003E+02 -0.96442E-04
 0.97529999E+02 -0.77800E-04
 0.97580002E+02 -0.56565E-04
 0.97629997E+02 -0.34452E-04
 0.97680000E+02 -0.17139E-04
 0.97730003E+02 -0.96221E-05
 0.97779999E+02 -0.15758E-04
 0.97830002E+02 -0.34483E-04
 0.97879997E+02 -0.58549E-04
 0.97930000E+02 -0.77851E-04
 0.97980003E+02 -0.79444E-04
 0.98029999E+02 -0.57361E-04
 0.98080002E+02 -0.19319E-04
 0.98129997E+02  0.23731E-04
 0.98180000E+02  0.62170E-04
 0.98230003E+02  0.90268E-04
 0.98279999E+02  0.10917E-03
 0.98330002E+02  0.12401E-03
 0.98379997E+02  0.13760E-03
 0.98430000E+02  0.14425E-03
 0.98480003E+02  0.13663E-03
 0.98529999E+02  0.11437E-03
 0.98580002E+02  0.83739E-04
 0.98629997E+02  0.54189E-04
 0.98680000E+02  0.35631E-04
 0.98730003E+02  0.27198E-04
 0.98779999E+02  0.15918E-04
 0.98830002E+02 -0.16924E-05
 0.98879997E+02 -0.20823E-04
 0.98930000E+02 -0.41145E-04
 0.98980003E+02 -0.62331E-04
 0.99029999E+02 -0.84578E-04
 0.99080002E+02 -0.10786E-03
 0.99129997E+02 -0.12956E-03
 0.99180000E+02 -0.14720E-03
 0.99230003E+02 -0.15585E-03
 0.99279999E+02 -0.14721E-03
 0.99330002E+02 -0.11621E-03
 0.99379997E+02 -0.68853E-04
 0.99430000E+02 -0.17386E-04
 0.99480003E+02  0.29684E-04
 0.99529999E+02  0.66685E-04
 0.99580002E+02  0.89151E-04
 0.99629997E+02  0.97171E-04
 0.99680000E+02  0.94727E-04
 0.99730003E+02  0.87013E-04
 0.99779999E+02  0.77861E-04
 0.99830002E+02  0.64503E-04
 0.99879997E+02  0.45384E-04
 0.99930000E+02  0.26190E-04
 0.99980003E+02  0.12269E-04
 0.10003000E+03  0.35619E-05
 0.10008000E+03 -0.45504E-06
 0.10013000E+03  0.10428E-05
 0.10018000E+03  0.22044E-05
 0.10023000E+03  0.51840E-06
 0.10028000E+03  0.30116E-05
 0.10033000E+03  0.12875E-04
 0.10038000E+03  0.23365E-04
 0.10043000E+03  0.23004E-04
 0.10048000E+03  0.10883E-04
 0.10053000E+03  0.10995E-05
 0.10058000E+03  0.26948E-05
 0.10063000E+03  0.12395E-04
 0.10068000E+03  0.26327E-04
 0.10073000E+03  0.39473E-04
 0.10078000E+03  0.47055E-04
 0.10083000E+03  0.48001E-04
 0.10088000E+03  0.41287E-04
 0.10093000E+03  0.27559E-04
 0.10098000E+03  0.67489E-05
 0.10103000E+03 -0.23452E-04
 0.10108000E+03 -0.61905E-04
 0.10113000E+03 -0.99742E-04
 0.10118000E+03 -0.12525E-03
 0.10123000E+03 -0.13355E-03
 0.10128000E+03 -0.12678E-03
 0.10133000E+03 -0.10925E-03
 0.10138000E+03 -0.87944E-04
 0.10143000E+03 -0.73204E-04
 0.10148000E+03 -0.69094E-04
 0.10153000E+03 -0.65977E-04
 0.10158000E+03 -0.51193E-04
 0.10163000E+03 -0.20742E-04
 0.10168000E+03  0.21886E-04
 0.10173000E+03  0.66654E-04
 0.10178000E+03  0.10172E-03
 0.10183000E+03  0.12005E-03
 0.10188000E+03  0.11919E-03
 0.10193000E+03  0.10748E-03
 0.10198000E+03  0.99480E-04
 0.10203000E+03  0.98061E-04
 0.10208000E+03  0.92268E-04
 0.10213000E+03  0.73293E-04
 0.10218000E+03  0.45384E-04
 0.10223000E+03  0.16925E-04
 0.10228000E+03 -0.92036E-05
 0.10233000E+03 -0.32943E-04
 0.10238000E+03 -0.53575E-04
 0.10243000E+03 -0.68857E-04
 0.10248000E+03 -0.74714E-04
 0.10253000E+03 -0.70551E-04
 0.10258000E+03 -0.59460E-04
 0.10263000E+03 -0.39833E-04
 0.10268000E+03 -0.14234E-04
 0.10273000E+03  0.62739E-05
 0.10278000E+03  0.20954E-04
 0.10283000E+03  0.33930E-04
 0.10288000E+03  0.40079E-04
 0.10293000E+03  0.33432E-04
 0.10298000E+03  0.12584E-04
 0.10303000E+03 -0.17642E-04
 0.10308000E+03 -0.45845E-04
 0.10313000E+03 -0.61712E-04
 0.10318000E+03 -0.65020E-04
 0.10323000E+03 -0.61273E-04
 0.10328000E+03 -0.53273E-04
 0.10333000E+03 -0.40543E-04
 0.10338000E+03 -0.24939E-04
 0.10343000E+03 -0.11844E-04
 0.10348000E+03 -0.16150E-05
 0.10353000E+03  0.97424E-05
 0.10358000E+03  0.25732E-04
 0.10363000E+03  0.44872E-04
 0.10368000E+03  0.63583E-04
 0.10373000E+03  0.79631E-04
 0.10378000E+03  0.87142E-04
 0.10383000E+03  0.81568E-04
 0.10388000E+03  0.65874E-04
 0.10393000E+03  0.46651E-04
 0.10398000E+03  0.28074E-04
 0.10403000E+03  0.11344E-04
 0.10408000E+03 -0.43030E-05
 0.10413000E+03 -0.20017E-04
 0.10418000E+03 -0.36231E-04
 0.10423000E+03 -0.54415E-04
 0.10428000E+03 -0.74875E-04
 0.10433000E+03 -0.90547E-04
 0.10438000E+03 -0.91161E-04
 0.10443000E+03 -0.74370E-04
 0.10448000E+03 -0.43740E-04
 0.10453000E+03 -0.64628E-05
 0.10458000E+03  0.25265E-04
 0.10463000E+03  0.44344E-04
 0.10468000E+03  0.51930E-04
 0.10473000E+03  0.50740E-04
 0.10478000E+03  0.43960E-04
 0.10483000E+03  0.36252E-04
 0.10488000E+03  0.36027E-04
 0.10493000E+03  0.45900E-04
 0.10498000E+03  0.56908E-04
 0.10503000E+03  0.63750E-04
 0.10508000E+03  0.66791E-04
 0.10513000E+03  0.65221E-04
 0.10518000E+03  0.57910E-04
 0.10523000E+03  0.44450E-04
 0.10528000E+03  0.25007E-04
 0.10533000E+03  0.17065E-05
 0.10538000E+03 -0.18179E-04
 0.10543000E+03 -0.30434E-04
 0.10548000E+03 -0.39386E-04
 0.10553000E+03 -0.47376E-04
 0.10558000E+03 -0.54555E-04
 0.10563000E+03 -0.62707E-04
 0.10568000E+03 -0.68289E-04
 0.10573000E+03 -0.66982E-04
 0.10578000E+03 -0.61579E-04
 0.10583000E+03 -0.57730E-04
 0.10588000E+03 -0.56767E-04
 0.10593000E+03 -0.56420E-04
 0.10598000E+03 -0.52972E-04
 0.10603000E+03 -0.41515E-04
 0.10608000E+03 -0.21498E-04
 0.10613000E+03  0.60550E-05
 0.10618000E+03  0.39490E-04
 0.10623000E+03  0.71371E-04
 0.10628000E+03  0.93674E-04
 0.10633000E+03  0.10332E-03
 0.10638000E+03  0.98147E-04
 0.10643000E+03  0.74252E-04
 0.10648000E+03  0.33591E-04
 0.10653000E+03 -0.15187E-04
 0.10658000E+03 -0.64878E-04
 0.10663000E+03 -0.10732E-03
 0.10668000E+03 -0.13404E-03
 0.10673000E+03 -0.14270E-03
 0.10678000E+03 -0.13737E-03
 0.10683000E+03 -0.12514E-03
 0.10688000E+03 -0.10854E-03
 0.10693000E+03 -0.85534E-04
 0.10698000E+03 -0.54101E-04
 0.10703000E+03 -0.13227E-04
 0.10708000E+03  0.32423E-04
 0.10713000E+03  0.73504E-04
 0.10718000E+03  0.10381E-03
 0.10723000E+03  0.12145E-03
 0.10728000E+03  0.12718E-03
 0.10733000E+03  0.12594E-03
 0.10738000E+03  0.12372E-03
 0.10743000E+03  0.11970E-03
 0.10748000E+03  0.11042E-03
 0.10753000E+03  0.96811E-04
 0.10758000E+03  0.80341E-04
 0.10763000E+03  0.63108E-04
 0.10768000E+03  0.44838E-04
 0.10773000E+03  0.23201E-04
 0.10778000E+03  0.48329E-06
 0.10783000E+03 -0.18418E-04
 0.10788000E+03 -0.28418E-04
 0.10793000E+03 -0.31557E-04
 0.10798000E+03 -0.35269E-04
 0.10803000E+03 -0.42306E-04
 0.10808000E+03 -0.51565E-04
 0.10813000E+03 -0.59042E-04
 0.10818000E+03 -0.61828E-04
 0.10823000E+03 -0.61594E-04
 0.10828000E+03 -0.61362E-04
 0.10833000E+03 -0.63024E-04
 0.10838000E+03 -0.64531E-04
 0.10843000E+03 -0.61206E-04
 0.10848000E+03 -0.53077E-04
 0.10853000E+03 -0.43377E-04
 0.10858000E+03 -0.34004E-04
 0.10863000E+03 -0.25803E-04
 0.10868000E+03 -0.15362E-04
 0.10873000E+03 -0.17621E-05
 0.10878000E+03  0.12070E-04
 0.10883000E+03  0.24732E-04
 0.10888000E+03  0.33134E-04
 0.10893000E+03  0.36692E-04
 0.10898000E+03  0.37225E-04
 0.10903000E+03  0.37315E-04
 0.10908000E+03  0.39381E-04
 0.10913000E+03  0.44903E-04
 0.10918000E+03  0.53530E-04
 0.10923000E+03  0.60067E-04
 0.10928000E+03  0.63570E-04
 0.10933000E+03  0.66274E-04
 0.10938000E+03  0.66306E-04
 0.10943000E+03  0.60763E-04
 0.10948000E+03  0.47268E-04
 0.10953000E+03  0.28723E-04
 0.10958000E+03  0.12477E-04
 0.10963000E+03 -0.59756E-07
 0.10968000E+03 -0.14202E-04
 0.10973000E+03 -0.33557E-04
 0.10978000E+03 -0.53397E-04
 0.10983000E+03 -0.67379E-04
 0.10988000E+03 -0.76035E-04
 0.10993000E+03 -0.82311E-04
 0.10998000E+03 -0.88520E-04
 0.11003000E+03 -0.96314E-04
 0.11008000E+03 -0.10551E-03
 0.11013000E+03 -0.11159E-03
 0.11018000E+03 -0.10690E-03
 0.11023000E+03 -0.87766E-04
 0.11028000E+03 -0.57801E-04
 0.11033000E+03 -0.24341E-04
 0.11038000E+03  0.69256E-05
 0.11043000E+03  0.34277E-04
 0.11048000E+03  0.59681E-04
 0.11053000E+03  0.84059E-04
 0.11058000E+03  0.10484E-03
 0.11063000E+03  0.11925E-03
 0.11068000E+03  0.12584E-03
 0.11073000E+03  0.12693E-03
 0.11078000E+03  0.12399E-03
 0.11083000E+03  0.11169E-03
 0.11088000E+03  0.88112E-04
 0.11093000E+03  0.58206E-04
 0.11098000E+03  0.27486E-04
 0.11103000E+03  0.17392E-05
 0.11108000E+03 -0.15460E-04
 0.11113000E+03 -0.22719E-04
 0.11118000E+03 -0.22270E-04
 0.11123000E+03 -0.21519E-04
 0.11128000E+03 -0.27242E-04
 0.11133000E+03 -0.42222E-04
 0.11138000E+03 -0.63257E-04
 0.11143000E+03 -0.83091E-04
 0.11148000E+03 -0.97619E-04
 0.11153000E+03 -0.10554E-03
 0.11158000E+03 -0.10122E-03
 0.11163000E+03 -0.81053E-04
 0.11168000E+03 -0.50921E-04
 0.11173000E+03 -0.19945E-04
 0.11178000E+03  0.45127E-05
 0.11183000E+03  0.20284E-04
 0.11188000E+03  0.30319E-04
 0.11193000E+03  0.36871E-04
 0.11198000E+03  0.37303E-04
 0.11203000E+03  0.28649E-04
 0.11208000E+03  0.13965E-04
 0.11213000E+03 -0.77583E-06
 0.11218000E+03 -0.88321E-05
 0.11223000E+03 -0.74522E-05
 0.11228000E+03 -0.52436E-06
 0.11233000E+03  0.82449E-05
 0.11238000E+03  0.17429E-04
 0.11243000E+03  0.27548E-04
 0.11248000E+03  0.35656E-04
 0.11253000E+03  0.36306E-04
 0.11258000E+03  0.30772E-04
 0.11263000E+03  0.22208E-04
 0.11268000E+03  0.13500E-04
 0.11273000E+03  0.88742E-05
 0.11278000E+03  0.83139E-05
 0.11283000E+03  0.10874E-04
 0.11288000E+03  0.16169E-04
 0.11293000E+03  0.20426E-04
 0.11298000E+03  0.18355E-04
 0.11303000E+03  0.62995E-05
 0.11308000E+03 -0.14496E-04
 0.11313000E+03 -0.37887E-04
 0.11318000E+03 -0.56842E-04
 0.11323000E+03 -0.70327E-04
 0.11328000E+03 -0.80689E-04
 0.11333000E+03 -0.86492E-04
 0.11338000E+03 -0.84490E-04
 0.11343000E+03 -0.70917E-04
 0.11348000E+03 -0.44591E-04
 0.11353000E+03 -0.96813E-05
 0.11358000E+03  0.25515E-04
 0.11363000E+03  0.54916E-04
 0.11368000E+03  0.78892E-04
 0.11373000E+03  0.96458E-04
 0.11378000E+03  0.10360E-03
 0.11383000E+03  0.99933E-04
 0.11388000E+03  0.87344E-04
 0.11393000E+03  0.66987E-04
 0.11398000E+03  0.41897E-04
 0.11403000E+03  0.16970E-04
 0.11408000E+03 -0.35108E-05
 0.11413000E+03 -0.18224E-04
 0.11418000E+03 -0.27108E-04
 0.11423000E+03 -0.28287E-04
 0.11428000E+03 -0.24517E-04
 0.11433000E+03 -0.19240E-04
 0.11438000E+03 -0.10558E-04
 0.11443000E+03 -0.35729E-06
 0.11448000E+03  0.82370E-05
 0.11453000E+03  0.12050E-04
 0.11458000E+03  0.80713E-05
 0.11463000E+03 -0.12992E-05
 0.11468000E+03 -0.12929E-04
 0.11473000E+03 -0.23194E-04
 0.11478000E+03 -0.31282E-04
 0.11483000E+03 -0.38361E-04
 0.11488000E+03 -0.43427E-04
 0.11493000E+03 -0.46836E-04
 0.11498000E+03 -0.47501E-04
 0.11503000E+03 -0.44789E-04
 0.11508000E+03 -0.38336E-04
 0.11513000E+03 -0.26995E-04
 0.11518000E+03 -0.14589E-04
 0.11523000E+03 -0.52980E-05
 0.11528000E+03  0.20834E-06
 0.11533000E+03  0.21638E-05
 0.11538000E+03  0.20624E-05
 0.11543000E+03  0.20055E-05
 0.11548000E+03  0.28289E-05
 0.11553000E+03  0.44467E-05
 0.11558000E+03  0.82679E-05
 0.11563000E+03  0.16451E-04
 0.11568000E+03  0.26819E-04
 0.11573000E+03  0.34994E-04
 0.11578000E+03  0.40288E-04
 0.11583000E+03  0.44195E-04
 0.11588000E+03  0.43427E-04
 0.11593000E+03  0.31783E-04
 0.11598000E+03  0.11122E-04
 0.11603000E+03 -0.10156E-04
 0.11608000E+03 -0.28147E-04
 0.11613000E+03 -0.42138E-04
 0.11618000E+03 -0.47387E-04
 0.11623000E+03 -0.42689E-04
 0.11628000E+03 -0.31729E-04
 0.11633000E+03 -0.17093E-04
 0.11638000E+03 -0.17753E-05
 0.11643000E+03  0.14228E-04
 0.11648000E+03  0.29943E-04
 0.11653000E+03  0.40739E-04
 0.11658000E+03  0.45756E-04
 0.11663000E+03  0.45167E-04
 0.11668000E+03  0.37994E-04
 0.11673000E+03  0.27743E-04
 0.11678000E+03  0.19338E-04
 0.11683000E+03  0.15323E-04
 0.11688000E+03  0.15853E-04
 0.11693000E+03  0.19528E-04
 0.11698000E+03  0.26528E-04
 0.11703000E+03  0.35021E-04
 0.11708000E+03  0.42012E-04
 0.11713000E+03  0.45651E-04
 0.11718000E+03  0.43694E-04
 0.11723000E+03  0.35201E-04
 0.11728000E+03  0.20056E-04
 0.11733000E+03 -0.15885E-06
 0.11738000E+03 -0.20228E-04
 0.11743000E+03 -0.37172E-04
 0.11748000E+03 -0.53042E-04
 0.11753000E+03 -0.66592E-04
 0.11758000E+03 -0.74719E-04
 0.11763000E+03 -0.76348E-04
 0.11768000E+03 -0.71794E-04
 0.11773000E+03 -0.64544E-04
 0.11778000E+03 -0.58207E-04
 0.11783000E+03 -0.53565E-04
 0.11788000E+03 -0.50090E-04
 0.11793000E+03 -0.47028E-04
 0.11798000E+03 -0.44022E-04
 0.11803000E+03 -0.39978E-04
 0.11808000E+03 -0.31147E-04
 0.11813000E+03 -0.17195E-04
 0.11818000E+03  0.73022E-06
 0.11823000E+03  0.22443E-04
 0.11828000E+03  0.44384E-04
 0.11833000E+03  0.60890E-04
 0.11838000E+03  0.68184E-04
 0.11843000E+03  0.67802E-04
 0.11848000E+03  0.60703E-04
 0.11853000E+03  0.47428E-04
 0.11858000E+03  0.31213E-04
 0.11863000E+03  0.16894E-04
 0.11868000E+03  0.86636E-05
 0.11873000E+03  0.60762E-05
 0.11878000E+03  0.78861E-05
 0.11883000E+03  0.11153E-04
 0.11888000E+03  0.12922E-04
 0.11893000E+03  0.13031E-04
 0.11898000E+03  0.10302E-04
 0.11903000E+03  0.75635E-05
 0.11908000E+03  0.80988E-05
 0.11913000E+03  0.87499E-05
 0.11918000E+03  0.54752E-05
 0.11923000E+03 -0.23978E-05
 0.11928000E+03 -0.14174E-04
 0.11933000E+03 -0.27508E-04
 0.11938000E+03 -0.38927E-04
 0.11943000E+03 -0.49099E-04
 0.11948000E+03 -0.55761E-04
 0.11953000E+03 -0.53642E-04
 0.11958000E+03 -0.41770E-04
 0.11963000E+03 -0.20959E-04
 0.11968000E+03  0.55184E-05
 0.11973000E+03  0.32216E-04
 0.11978000E+03  0.52976E-04
 0.11983000E+03  0.63726E-04
 0.11988000E+03  0.63964E-04
 0.11993000E+03  0.55784E-04
 0.11998000E+03  0.43238E-04
 0.12003000E+03  0.31024E-04
 0.12008000E+03  0.20584E-04
 0.12013000E+03  0.73273E-05
 0.12018000E+03 -0.12088E-04
 0.12023000E+03 -0.35660E-04
 0.12028000E+03 -0.59927E-04
 0.12033000E+03 -0.82796E-04
 0.12038000E+03 -0.10111E-03
 0.12043000E+03 -0.10956E-03
 0.12048000E+03 -0.10425E-03
 0.12053000E+03 -0.83943E-04
 0.12058000E+03 -0.51157E-04
 0.12063000E+03 -0.11113E-04
 0.12068000E+03  0.30675E-04
 0.12073000E+03  0.68814E-04
 0.12078000E+03  0.98619E-04
 0.12083000E+03  0.11642E-03
 0.12088000E+03  0.12103E-03
 0.12093000E+03  0.11570E-03
 0.12098000E+03  0.10418E-03
 0.12103000E+03  0.88016E-04
 0.12108000E+03  0.70327E-04
 0.12113000E+03  0.56045E-04
 0.12118000E+03  0.46271E-04
 0.12123000E+03  0.35932E-04
 0.12128000E+03  0.20668E-04
 0.12133000E+03  0.81823E-06
 0.12138000E+03 -0.20942E-04
 0.12143000E+03 -0.43698E-04
 0.12148000E+03 -0.67441E-04
 0.12153000E+03 -0.87363E-04
 0.12158000E+03 -0.99109E-04
 0.12163000E+03 -0.10442E-03
 0.12168000E+03 -0.10506E-03
 0.12173000E+03 -0.10061E-03
 0.12178000E+03 -0.89962E-04
 0.12183000E+03 -0.73314E-04
 0.12188000E+03 -0.53854E-04
 0.12193000E+03 -0.32399E-04
 0.12198000E+03 -0.10916E-04
 0.12203000E+03  0.67390E-05
 0.12208000E+03  0.20426E-04
 0.12213000E+03  0.31055E-04
 0.12218000E+03  0.39239E-04
 0.12223000E+03  0.44905E-04
 0.12228000E+03  0.47848E-04
 0.12233000E+03  0.47853E-04
 0.12238000E+03  0.44250E-04
 0.12243000E+03  0.38191E-04
 0.12248000E+03  0.32387E-04
 0.12253000E+03  0.28591E-04
 0.12258000E+03  0.27037E-04
 0.12263000E+03  0.24263E-04
 0.12268000E+03  0.17595E-04
 0.12273000E+03  0.95220E-05
 0.12278000E+03  0.41247E-05
 0.12283000E+03  0.36509E-05
 0.12288000E+03  0.58410E-05
 0.12293000E+03  0.62992E-05
 0.12298000E+03  0.26379E-05
 0.12303000E+03 -0.87470E-06
 0.12308000E+03 -0.13120E-06
 0.12313000E+03  0.28353E-05
 0.12318000E+03  0.65047E-05
 0.12323000E+03  0.96449E-05
 0.12328000E+03  0.11151E-04
 0.12333000E+03  0.98935E-05
 0.12338000E+03  0.39694E-05
 0.12343000E+03 -0.86619E-05
 0.12348000E+03 -0.27378E-04
 0.12353000E+03 -0.46541E-04
 0.12358000E+03 -0.62328E-04
 0.12363000E+03 -0.71749E-04
 0.12368000E+03 -0.72102E-04
 0.12373000E+03 -0.63055E-04
 0.12378000E+03 -0.43610E-04
 0.12383000E+03 -0.17381E-04
 0.12388000E+03  0.97644E-05
 0.12393000E+03  0.34836E-04
 0.12398000E+03  0.54818E-04
 0.12403000E+03  0.67080E-04
 0.12408000E+03  0.68591E-04
 0.12413000E+03  0.59804E-04
 0.12418000E+03  0.45186E-04
 0.12423000E+03  0.27930E-04
 0.12428000E+03  0.12273E-04
 0.12433000E+03 -0.22029E-05
 0.12438000E+03 -0.16597E-04
 0.12443000E+03 -0.27696E-04
 0.12448000E+03 -0.34766E-04
 0.12453000E+03 -0.37340E-04
 0.12458000E+03 -0.36150E-04
 0.12463000E+03 -0.33397E-04
 0.12468000E+03 -0.28002E-04
 0.12473000E+03 -0.18022E-04
 0.12478000E+03 -0.83647E-05
 0.12483000E+03  0.11219E-05
 0.12488000E+03  0.11207E-04
 0.12493000E+03  0.17798E-04
 0.12498000E+03  0.23326E-04
 0.12503000E+03  0.24929E-04
 0.12508000E+03  0.23286E-04
 0.12513000E+03  0.25351E-04
 0.12518000E+03  0.29343E-04
 0.12523000E+03  0.31995E-04
 0.12528000E+03  0.32720E-04
 0.12533000E+03  0.26965E-04
 0.12538000E+03  0.15676E-04
 0.12543000E+03  0.46604E-05
 0.12548000E+03 -0.79701E-05
 0.12553000E+03 -0.19453E-04
 0.12558000E+03 -0.28592E-04
 0.12563000E+03 -0.38606E-04
 0.12568000E+03 -0.46841E-04
 0.12573000E+03 -0.51408E-04
 0.12578000E+03 -0.50294E-04
 0.12583000E+03 -0.41448E-04
 0.12588000E+03 -0.24373E-04
 0.12593000E+03 -0.32731E-05
 0.12598000E+03  0.19119E-04
 0.12603000E+03  0.44254E-04
 0.12608000E+03  0.67069E-04
 0.12613000E+03  0.80758E-04
 0.12618000E+03  0.80015E-04
 0.12623000E+03  0.67627E-04
 0.12628000E+03  0.51857E-04
 0.12633000E+03  0.33107E-04
 0.12638000E+03  0.11622E-04
 0.12643000E+03 -0.79030E-05
 0.12648000E+03 -0.21057E-04
 0.12653000E+03 -0.30667E-04
 0.12658000E+03 -0.40343E-04
 0.12663000E+03 -0.48380E-04
 0.12668000E+03 -0.55493E-04
 0.12673000E+03 -0.60856E-04
 0.12678000E+03 -0.65337E-04
 0.12683000E+03 -0.70150E-04
 0.12688000E+03 -0.69627E-04
 0.12693000E+03 -0.62899E-04
 0.12698000E+03 -0.53478E-04
 0.12703000E+03 -0.41761E-04
 0.12708000E+03 -0.30435E-04
 0.12713000E+03 -0.18599E-04
 0.12718000E+03  0.11491E-05
 0.12723000E+03  0.26136E-04
 0.12728000E+03  0.49255E-04
 0.12733000E+03  0.70742E-04
 0.12738000E+03  0.86115E-04
 0.12743000E+03  0.90431E-04
 0.12748000E+03  0.86363E-04
 0.12753000E+03  0.75151E-04
 0.12758000E+03  0.56941E-04
 0.12763000E+03  0.36396E-04
 0.12768000E+03  0.17053E-04
 0.12773000E+03  0.39192E-06
 0.12778000E+03 -0.11821E-04
 0.12783000E+03 -0.22061E-04
 0.12788000E+03 -0.29613E-04
 0.12793000E+03 -0.33246E-04
 0.12798000E+03 -0.36013E-04
 0.12803000E+03 -0.37204E-04
 0.12808000E+03 -0.34467E-04
 0.12813000E+03 -0.26363E-04
 0.12818001E+03 -0.15630E-04
 0.12823000E+03 -0.48585E-05
 0.12828000E+03  0.54392E-05
 0.12833000E+03  0.11968E-04
 0.12838000E+03  0.14407E-04
 0.12843001E+03  0.11943E-04
 0.12848000E+03  0.38154E-05
 0.12853000E+03 -0.31811E-05
 0.12858000E+03 -0.54344E-05
 0.12863000E+03 -0.66571E-05
 0.12868001E+03 -0.68152E-05
 0.12873000E+03 -0.26832E-05
 0.12878000E+03  0.40306E-05
 0.12883000E+03  0.12473E-04
 0.12888000E+03  0.23213E-04
 0.12893001E+03  0.30371E-04
 0.12898000E+03  0.29537E-04
 0.12903000E+03  0.23395E-04
 0.12908000E+03  0.17644E-04
 0.12913000E+03  0.99562E-05
 0.12918001E+03 -0.23003E-05
 0.12923000E+03 -0.13978E-04
 0.12928000E+03 -0.27903E-04
 0.12933000E+03 -0.42535E-04
 0.12938000E+03 -0.49936E-04
 0.12943001E+03 -0.52258E-04
 0.12948000E+03 -0.51818E-04
 0.12953000E+03 -0.45286E-04
 0.12958000E+03 -0.33564E-04
 0.12963000E+03 -0.20446E-04
 0.12968001E+03 -0.40496E-05
 0.12973000E+03  0.16084E-04
 0.12978000E+03  0.36356E-04
 0.12983000E+03  0.54206E-04
 0.12988000E+03  0.68129E-04
 0.12993001E+03  0.78694E-04
 0.12998000E+03  0.83330E-04
 0.13003000E+03  0.74970E-04
 0.13008000E+03  0.56637E-04
 0.13013000E+03  0.36098E-04
 0.13018001E+03  0.14514E-04
 0.13023000E+03 -0.70485E-05
 0.13028000E+03 -0.28421E-04
 0.13033000E+03 -0.49470E-04
 0.13038000E+03 -0.68019E-04
 0.13043001E+03 -0.79974E-04
 0.13048000E+03 -0.80712E-04
 0.13053000E+03 -0.69166E-04
 0.13058000E+03 -0.50053E-04
 0.13063000E+03 -0.27788E-04
 0.13068001E+03 -0.52988E-05
 0.13073000E+03  0.12324E-04
 0.13078000E+03  0.25440E-04
 0.13083000E+03  0.35844E-04
 0.13088000E+03  0.40987E-04
 0.13093001E+03  0.39609E-04
 0.13098000E+03  0.33111E-04
 0.13103000E+03  0.23789E-04
 0.13108000E+03  0.16669E-04
 0.13113000E+03  0.13061E-04
 0.13118001E+03  0.89740E-05
 0.13123000E+03  0.39681E-05
 0.13128000E+03 -0.18788E-05
 0.13133000E+03 -0.88600E-05
 0.13138000E+03 -0.16090E-04
 0.13143001E+03 -0.23267E-04
 0.13148000E+03 -0.32197E-04
 0.13153000E+03 -0.43699E-04
 0.13158000E+03 -0.53991E-04
 0.13163000E+03 -0.61568E-04
 0.13168001E+03 -0.64624E-04
 0.13173000E+03 -0.59816E-04
 0.13178000E+03 -0.50506E-04
 0.13183000E+03 -0.38053E-04
 0.13188000E+03 -0.18132E-04
 0.13193001E+03  0.68059E-05
 0.13198000E+03  0.28037E-04
 0.13203000E+03  0.43874E-04
 0.13208000E+03  0.56879E-04
 0.13213000E+03  0.65545E-04
 0.13218001E+03  0.68308E-04
 0.13223000E+03  0.66043E-04
 0.13228000E+03  0.62843E-04
 0.13233000E+03  0.60158E-04
 0.13238000E+03  0.54156E-04
 0.13243001E+03  0.42257E-04
 0.13248000E+03  0.26406E-04
 0.13253000E+03  0.10351E-04
 0.13258000E+03 -0.17057E-05
 0.13263000E+03 -0.74115E-05
 0.13268001E+03 -0.98902E-05
 0.13273000E+03 -0.96560E-05
 0.13278000E+03 -0.84375E-05
 0.13283000E+03 -0.72118E-05
 0.13288000E+03 -0.28095E-05
 0.13293001E+03 -0.81688E-06
 0.13298000E+03 -0.36728E-05
 0.13303000E+03 -0.80792E-05
 0.13308000E+03 -0.14698E-04
 0.13313000E+03 -0.22674E-04
 0.13318001E+03 -0.29575E-04
 0.13323000E+03 -0.34851E-04
 0.13328000E+03 -0.38841E-04
 0.13333000E+03 -0.40492E-04
 0.13338000E+03 -0.39472E-04
 0.13343001E+03 -0.36392E-04
 0.13348000E+03 -0.30680E-04
 0.13353000E+03 -0.23205E-04
 0.13358000E+03 -0.16975E-04
 0.13363000E+03 -0.10898E-04
 0.13368001E+03 -0.31070E-05
 0.13373000E+03  0.55793E-05
 0.13378000E+03  0.14611E-04
 0.13383000E+03  0.20355E-04
 0.13388000E+03  0.22208E-04
 0.13393001E+03  0.25196E-04
 0.13398000E+03  0.30846E-04
 0.13403000E+03  0.36262E-04
 0.13408000E+03  0.36648E-04
 0.13413000E+03  0.29793E-04
 0.13418001E+03  0.21100E-04
 0.13423000E+03  0.14329E-04
 0.13428000E+03  0.79850E-05
 0.13433000E+03  0.27861E-05
 0.13438000E+03  0.15059E-06
 0.13443001E+03 -0.62485E-06
 0.13448000E+03 -0.99344E-06
 0.13453000E+03 -0.15699E-05
 0.13458000E+03 -0.38735E-05
 0.13463000E+03 -0.65225E-05
 0.13468001E+03 -0.71405E-05
 0.13473000E+03 -0.63983E-05
 0.13478000E+03 -0.38510E-05
 0.13483000E+03  0.32124E-06
 0.13488000E+03  0.89258E-05
 0.13493001E+03  0.21916E-04
 0.13498000E+03  0.33728E-04
 0.13503000E+03  0.43942E-04
 0.13508000E+03  0.52351E-04
 0.13513000E+03  0.54637E-04
 0.13518001E+03  0.44657E-04
 0.13523000E+03  0.22220E-04
 0.13528000E+03 -0.51364E-05
 0.13533000E+03 -0.30683E-04
 0.13538000E+03 -0.51261E-04
 0.13543001E+03 -0.65607E-04
 0.13548000E+03 -0.73184E-04
 0.13553000E+03 -0.74795E-04
 0.13558000E+03 -0.71219E-04
 0.13563000E+03 -0.63655E-04
 0.13568001E+03 -0.52546E-04
 0.13573000E+03 -0.38123E-04
 0.13578000E+03 -0.22607E-04
 0.13583000E+03 -0.67921E-05
 0.13588000E+03  0.10847E-04
 0.13593001E+03  0.27024E-04
 0.13598000E+03  0.35221E-04
 0.13603000E+03  0.32749E-04
 0.13608000E+03  0.19785E-04
 0.13613000E+03  0.22043E-05
 0.13618001E+03 -0.13502E-04
 0.13623000E+03 -0.24763E-04
 0.13628000E+03 -0.31769E-04
 0.13633000E+03 -0.36770E-04
 0.13638000E+03 -0.37618E-04
 0.13643001E+03 -0.30767E-04
 0.13648000E+03 -0.17274E-04
 0.13653000E+03 -0.25330E-05
 0.13658000E+03  0.77424E-05
 0.13663000E+03  0.14595E-04
 0.13668001E+03  0.22074E-04
 0.13673000E+03  0.29970E-04
 0.13678000E+03  0.38201E-04
 0.13683000E+03  0.46221E-04
 0.13688000E+03  0.49494E-04
 0.13693001E+03  0.48382E-04
 0.13698000E+03  0.47826E-04
 0.13703000E+03  0.46082E-04
 0.13708000E+03  0.40586E-04
 0.13713000E+03  0.32546E-04
 0.13718001E+03  0.24588E-04
 0.13723000E+03  0.18994E-04
 0.13728000E+03  0.13282E-04
 0.13733000E+03  0.60631E-05
 0.13738000E+03 -0.23039E-05
 0.13743001E+03 -0.10333E-04
 0.13748000E+03 -0.16463E-04
 0.13753000E+03 -0.21438E-04
 0.13758000E+03 -0.24115E-04
 0.13763000E+03 -0.26210E-04
 0.13768001E+03 -0.29801E-04
 0.13773000E+03 -0.31668E-04
 0.13778000E+03 -0.28922E-04
 0.13783000E+03 -0.21274E-04
 0.13788000E+03 -0.11996E-04
 0.13793001E+03 -0.26213E-05
 0.13798000E+03  0.98540E-05
 0.13803000E+03  0.21388E-04
 0.13808000E+03  0.24640E-04
 0.13813000E+03  0.19186E-04
 0.13818001E+03  0.94583E-05
 0.13823000E+03  0.16545E-05
 0.13828000E+03 -0.34228E-05
 0.13833000E+03 -0.73690E-05
 0.13838000E+03 -0.89200E-05
 0.13843001E+03 -0.86428E-05
 0.13848000E+03 -0.50420E-05
 0.13853000E+03  0.13328E-05
 0.13858000E+03  0.56575E-05
 0.13863000E+03  0.79053E-05
 0.13868001E+03  0.70673E-05
 0.13873000E+03  0.34925E-05
 0.13878000E+03  0.23853E-05
 0.13883000E+03  0.15988E-05
 0.13888000E+03 -0.49451E-06
 0.13893001E+03  0.28630E-05
 0.13898000E+03  0.97645E-05
 0.13903000E+03  0.11437E-04
 0.13908000E+03  0.91167E-05
 0.13913000E+03  0.76602E-05
 0.13918001E+03  0.91268E-05
 0.13923000E+03  0.16045E-04
 0.13928000E+03  0.20770E-04
 0.13933000E+03  0.13661E-04
 0.13938000E+03  0.45034E-06
 0.13943001E+03 -0.11321E-04
 0.13948000E+03 -0.21764E-04
 0.13953000E+03 -0.31668E-04
 0.13958000E+03 -0.38752E-04
 0.13963000E+03 -0.44926E-04
 0.13968001E+03 -0.50192E-04
 0.13973000E+03 -0.49834E-04
 0.13978000E+03 -0.47960E-04
 0.13983000E+03 -0.47592E-04
 0.13988000E+03 -0.44099E-04
 0.13993001E+03 -0.35387E-04
 0.13998000E+03 -0.22795E-04
 0.14003000E+03 -0.70703E-05
 0.14008000E+03  0.80056E-05
 0.14013000E+03  0.22402E-04
 0.14018001E+03  0.39723E-04
 0.14023000E+03  0.54328E-04
 0.14028000E+03  0.61034E-04
 0.14033000E+03  0.60998E-04
 0.14038000E+03  0.57554E-04
 0.14043001E+03  0.53188E-04
 0.14048000E+03  0.46818E-04
 0.14053000E+03  0.37001E-04
 0.14058000E+03  0.25512E-04
 0.14063000E+03  0.14076E-04
 0.14068001E+03  0.47621E-05
 0.14073000E+03 -0.19844E-06
 0.14078000E+03 -0.69095E-05
 0.14083000E+03 -0.21234E-04
 0.14088000E+03 -0.36968E-04
 0.14093001E+03 -0.41955E-04
 0.14098000E+03 -0.35302E-04
 0.14103000E+03 -0.28352E-04
 0.14108000E+03 -0.26809E-04
 0.14113000E+03 -0.26954E-04
 0.14118001E+03 -0.22729E-04
 0.14123000E+03 -0.12203E-04
 0.14128000E+03  0.11284E-05
 0.14133000E+03  0.11066E-04
 0.14138000E+03  0.13579E-04
 0.14143001E+03  0.13426E-04
 0.14148000E+03  0.16889E-04
 0.14153000E+03  0.23630E-04
 0.14158000E+03  0.29124E-04
 0.14163000E+03  0.28512E-04
 0.14168001E+03  0.21938E-04
 0.14173000E+03  0.11277E-04
 0.14178000E+03 -0.26586E-05
 0.14183000E+03 -0.13730E-04
 0.14188000E+03 -0.18459E-04
 0.14193001E+03 -0.23901E-04
 0.14198000E+03 -0.32216E-04
 0.14203000E+03 -0.34288E-04
 0.14208000E+03 -0.26811E-04
 0.14213000E+03 -0.18203E-04
 0.14218001E+03 -0.90144E-05
 0.14223000E+03  0.38732E-05
 0.14228000E+03  0.12179E-04
 0.14233000E+03  0.14995E-04
 0.14238000E+03  0.18601E-04
 0.14243001E+03  0.20351E-04
 0.14248000E+03  0.17723E-04
 0.14253000E+03  0.10745E-04
 0.14258000E+03 -0.46936E-07
 0.14263000E+03 -0.77256E-05
 0.14268001E+03 -0.10486E-04
 0.14273000E+03 -0.12943E-04
 0.14278000E+03 -0.16526E-04
 0.14283000E+03 -0.19643E-04
 0.14288000E+03 -0.17634E-04
 0.14293001E+03 -0.14356E-04
 0.14298000E+03 -0.13891E-04
 0.14303000E+03 -0.13061E-04
 0.14308000E+03 -0.13595E-04
 0.14313000E+03 -0.13824E-04
 0.14318001E+03 -0.59306E-05
 0.14323000E+03  0.10528E-04
 0.14328000E+03  0.25974E-04
 0.14333000E+03  0.36904E-04
 0.14338000E+03  0.45809E-04
 0.14343001E+03  0.52412E-04
 0.14348000E+03  0.58536E-04
 0.14353000E+03  0.60646E-04
 0.14358000E+03  0.50410E-04
 0.14363000E+03  0.32820E-04
 0.14368001E+03  0.18060E-04
 0.14373000E+03  0.41020E-05
 0.14378000E+03 -0.10663E-04
 0.14383000E+03 -0.24119E-04
 0.14388000E+03 -0.34164E-04
 0.14393001E+03 -0.38087E-04
 0.14398000E+03 -0.40540E-04
 0.14403000E+03 -0.43370E-04
 0.14408000E+03 -0.42640E-04
 0.14413000E+03 -0.41334E-04
 0.14418001E+03 -0.45933E-04
 0.14423000E+03 -0.50971E-04
 0.14428000E+03 -0.45545E-04
 0.14433000E+03 -0.35234E-04
 0.14438000E+03 -0.26397E-04
 0.14443001E+03 -0.12977E-04
 0.14448000E+03  0.65505E-05
 0.14453000E+03  0.25824E-04
 0.14458000E+03  0.40492E-04
 0.14463000E+03  0.52792E-04
 0.14468001E+03  0.61998E-04
 0.14473000E+03  0.65288E-04
 0.14478000E+03  0.63364E-04
 0.14483000E+03  0.55260E-04
 0.14488000E+03  0.40083E-04
 0.14493001E+03  0.20059E-04
 0.14498000E+03 -0.49240E-07
 0.14503000E+03 -0.16143E-04
 0.14508000E+03 -0.27101E-04
 0.14513000E+03 -0.33402E-04
 0.14518001E+03 -0.35425E-04
 0.14523000E+03 -0.32153E-04
 0.14528000E+03 -0.22125E-04
 0.14533000E+03 -0.11819E-04
 0.14538000E+03 -0.68219E-05
 0.14543001E+03 -0.31300E-05
 0.14548000E+03 -0.22967E-06
 0.14553000E+03  0.15233E-05
 0.14558000E+03  0.31018E-05
 0.14563000E+03  0.29746E-05
 0.14568001E+03  0.25933E-07
 0.14573000E+03 -0.58363E-05
 0.14578000E+03 -0.12750E-04
 0.14583000E+03 -0.19939E-04
 0.14588000E+03 -0.25559E-04
 0.14593001E+03 -0.24156E-04
 0.14598000E+03 -0.19260E-04
 0.14603000E+03 -0.16593E-04
 0.14608000E+03 -0.10081E-04
 0.14613000E+03  0.30295E-05
 0.14618001E+03  0.16978E-04
 0.14623000E+03  0.27511E-04
 0.14628000E+03  0.32956E-04
 0.14633000E+03  0.33299E-04
 0.14638000E+03  0.31157E-04
 0.14643001E+03  0.27101E-04
 0.14648000E+03  0.20725E-04
 0.14653000E+03  0.14715E-04
 0.14658000E+03  0.88758E-05
 0.14663000E+03  0.18441E-05
 0.14668001E+03 -0.64531E-05
 0.14673000E+03 -0.13857E-04
 0.14678000E+03 -0.17140E-04
 0.14683000E+03 -0.18499E-04
 0.14688000E+03 -0.20234E-04
 0.14693001E+03 -0.21037E-04
 0.14698000E+03 -0.20379E-04
 0.14703000E+03 -0.20325E-04
 0.14708000E+03 -0.19806E-04
 0.14713000E+03 -0.15325E-04
 0.14718001E+03 -0.11580E-04
 0.14723000E+03 -0.10585E-04
 0.14728000E+03 -0.73338E-05
 0.14733000E+03 -0.18250E-05
 0.14738000E+03  0.54756E-05
 0.14743001E+03  0.13650E-04
 0.14748000E+03  0.18812E-04
 0.14753000E+03  0.20468E-04
 0.14758000E+03  0.24656E-04
 0.14763000E+03  0.34294E-04
 0.14768001E+03  0.42096E-04
 0.14773000E+03  0.42039E-04
 0.14778000E+03  0.33733E-04
 0.14783000E+03  0.22106E-04
 0.14788000E+03  0.12834E-04
 0.14793001E+03  0.37782E-05
 0.14798000E+03 -0.78025E-05
 0.14803000E+03 -0.18193E-04
 0.14808000E+03 -0.22656E-04
 0.14813000E+03 -0.23314E-04
 0.14818001E+03 -0.24892E-04
 0.14823000E+03 -0.25050E-04
 0.14828000E+03 -0.19395E-04
 0.14833000E+03 -0.10728E-04
 0.14838000E+03 -0.29478E-05
 0.14843001E+03  0.35333E-05
 0.14848000E+03  0.69197E-05
 0.14853000E+03  0.69385E-05
 0.14858000E+03  0.60396E-05
 0.14863000E+03  0.22831E-05
 0.14868001E+03 -0.70344E-05
 0.14873000E+03 -0.18116E-04
 0.14878000E+03 -0.27776E-04
 0.14883000E+03 -0.36937E-04
 0.14888000E+03 -0.43151E-04
 0.14893001E+03 -0.42140E-04
 0.14898000E+03 -0.36443E-04
 0.14903000E+03 -0.29704E-04
 0.14908000E+03 -0.18407E-04
 0.14913000E+03 -0.12602E-05
 0.14918001E+03  0.16458E-04
 0.14923000E+03  0.30916E-04
 0.14928000E+03  0.42669E-04
 0.14933000E+03  0.52186E-04
 0.14938000E+03  0.56479E-04
 0.14943001E+03  0.56278E-04
 0.14948000E+03  0.54643E-04
 0.14953000E+03  0.47611E-04
 0.14958000E+03  0.31460E-04
 0.14963000E+03  0.10753E-04
 0.14968001E+03 -0.89514E-05
 0.14973000E+03 -0.26536E-04
 0.14978000E+03 -0.41177E-04
 0.14983000E+03 -0.51763E-04
 0.14988000E+03 -0.57483E-04
 0.14993001E+03 -0.58378E-04
 0.14998000E+03 -0.55980E-04
