-0.20000458E-01 -0.32939E-06
 0.29999543E-01 -0.23284E-06
 0.79999544E-01 -0.11407E-06
 0.12999955E+00  0.36884E-08
 0.17999955E+00  0.67473E-07
 0.22999954E+00  0.13315E-06
 0.27999955E+00  0.11309E-06
 0.32999954E+00  0.16452E-07
 0.37999955E+00 -0.49394E-07
 0.42999956E+00 -0.11149E-06
 0.47999954E+00 -0.21261E-06
 0.52999955E+00 -0.27245E-06
 0.57999957E+00 -0.23142E-06
 0.62999958E+00 -0.16649E-06
 0.67999953E+00 -0.56340E-08
 0.72999954E+00  0.18889E-06
 0.77999955E+00  0.29116E-06
 0.82999957E+00  0.37436E-06
 0.87999958E+00  0.43134E-06
 0.92999953E+00  0.48695E-06
 0.97999954E+00  0.58107E-06
 0.10299996E+01  0.66182E-06
 0.10799996E+01  0.67124E-06
 0.11299995E+01  0.60398E-06
 0.11799996E+01  0.49992E-06
 0.12299995E+01  0.32882E-06
 0.12799996E+01  0.93192E-07
 0.13299996E+01 -0.12581E-06
 0.13799995E+01 -0.33434E-06
 0.14299996E+01 -0.45013E-06
 0.14799995E+01 -0.48950E-06
 0.15299996E+01 -0.61654E-06
 0.15799996E+01 -0.72827E-06
 0.16299995E+01 -0.75700E-06
 0.16799996E+01 -0.77500E-06
 0.17299995E+01 -0.74622E-06
 0.17799996E+01 -0.65001E-06
 0.18299996E+01 -0.55198E-06
 0.18799995E+01 -0.42220E-06
 0.19299996E+01 -0.27422E-06
 0.19799995E+01 -0.19066E-06
 0.20299995E+01 -0.53096E-07
 0.20799997E+01  0.68001E-07
 0.21299996E+01  0.42311E-07
 0.21799996E+01  0.67250E-07
 0.22299995E+01  0.11153E-06
 0.22799995E+01  0.12144E-06
 0.23299997E+01  0.24358E-06
 0.23799996E+01  0.36814E-06
 0.24299996E+01  0.44515E-06
 0.24799995E+01  0.54937E-06
 0.25299995E+01  0.64867E-06
 0.25799997E+01  0.72922E-06
 0.26299996E+01  0.79762E-06
 0.26799996E+01  0.86991E-06
 0.27299995E+01  0.89724E-06
 0.27799995E+01  0.84841E-06
 0.28299997E+01  0.73019E-06
 0.28799996E+01  0.48923E-06
 0.29299996E+01  0.22642E-06
 0.29799995E+01 -0.49950E-07
 0.30299995E+01 -0.38242E-06
 0.30799997E+01 -0.61865E-06
 0.31299996E+01 -0.79705E-06
 0.31799996E+01 -0.93930E-06
 0.32299995E+01 -0.96969E-06
 0.32799995E+01 -0.91319E-06
 0.33299997E+01 -0.79755E-06
 0.33799996E+01 -0.63040E-06
 0.34299996E+01 -0.40390E-06
 0.34799995E+01 -0.18805E-06
 0.35299995E+01 -0.50075E-07
 0.35799997E+01  0.62019E-08
 0.36299996E+01 -0.47515E-07
 0.36799996E+01 -0.13695E-06
 0.37299995E+01 -0.21159E-06
 0.37799995E+01 -0.30890E-06
 0.38299997E+01 -0.27879E-06
 0.38799996E+01 -0.13442E-06
 0.39299996E+01  0.42070E-07
 0.39799995E+01  0.30444E-06
 0.40299997E+01  0.54901E-06
 0.40799994E+01  0.70722E-06
 0.41299996E+01  0.82020E-06
 0.41799998E+01  0.90242E-06
 0.42299995E+01  0.88806E-06
 0.42799997E+01  0.73568E-06
 0.43299994E+01  0.50129E-06
 0.43799996E+01  0.22965E-06
 0.44299998E+01 -0.51687E-07
 0.44799995E+01 -0.33095E-06
 0.45299997E+01 -0.56261E-06
 0.45799994E+01 -0.65678E-06
 0.46299996E+01 -0.67903E-06
 0.46799998E+01 -0.64034E-06
 0.47299995E+01 -0.46778E-06
 0.47799997E+01 -0.25469E-06
 0.48299994E+01 -0.18746E-07
 0.48799996E+01  0.19606E-06
 0.49299998E+01  0.29106E-06
 0.49799995E+01  0.28348E-06
 0.50299997E+01  0.26983E-06
 0.50799994E+01  0.23812E-06
 0.51299996E+01  0.95363E-07
 0.51799998E+01 -0.44539E-07
 0.52299995E+01 -0.13164E-06
 0.52799997E+01 -0.19314E-06
 0.53299994E+01 -0.19100E-06
 0.53799996E+01 -0.14886E-06
 0.54299998E+01 -0.92395E-07
 0.54799995E+01 -0.56068E-07
 0.55299997E+01 -0.55281E-07
 0.55799994E+01 -0.18552E-07
 0.56299996E+01  0.44317E-07
 0.56799998E+01  0.41666E-07
 0.57299995E+01  0.10239E-07
 0.57799997E+01  0.25493E-07
 0.58299994E+01  0.38632E-07
 0.58799996E+01  0.43002E-07
 0.59299998E+01  0.11037E-06
 0.59799995E+01  0.19651E-06
 0.60299997E+01  0.24170E-06
 0.60799994E+01  0.23219E-06
 0.61299996E+01  0.13561E-06
 0.61799998E+01 -0.18277E-07
 0.62299995E+01 -0.11963E-06
 0.62799997E+01 -0.14134E-06
 0.63299994E+01 -0.15249E-06
 0.63799996E+01 -0.14548E-06
 0.64299998E+01 -0.10196E-06
 0.64799995E+01 -0.33763E-07
 0.65299997E+01  0.10232E-06
 0.65799994E+01  0.20935E-06
 0.66299996E+01  0.22653E-06
 0.66799998E+01  0.23937E-06
 0.67299995E+01  0.19183E-06
 0.67799997E+01  0.11192E-06
 0.68299994E+01  0.45320E-07
 0.68799996E+01 -0.59198E-07
 0.69299998E+01 -0.15485E-06
 0.69799995E+01 -0.21074E-06
 0.70299997E+01 -0.28592E-06
 0.70799994E+01 -0.39412E-06
 0.71299996E+01 -0.43472E-06
 0.71799998E+01 -0.44617E-06
 0.72299995E+01 -0.51716E-06
 0.72799997E+01 -0.53989E-06
 0.73299994E+01 -0.46533E-06
 0.73799996E+01 -0.31561E-06
 0.74299998E+01 -0.67735E-07
 0.74799995E+01  0.22985E-06
 0.75299997E+01  0.50237E-06
 0.75799994E+01  0.71529E-06
 0.76299996E+01  0.81378E-06
 0.76799998E+01  0.78646E-06
 0.77299995E+01  0.69146E-06
 0.77799997E+01  0.54510E-06
 0.78299994E+01  0.39950E-06
 0.78799996E+01  0.27212E-06
 0.79299998E+01  0.14409E-06
 0.79799995E+01  0.20528E-07
 0.80299997E+01 -0.66090E-07
 0.80799999E+01 -0.16337E-06
 0.81300001E+01 -0.36838E-06
 0.81799994E+01 -0.49856E-06
 0.82299995E+01 -0.51593E-06
 0.82799997E+01 -0.48754E-06
 0.83299999E+01 -0.40600E-06
 0.83800001E+01 -0.33826E-06
 0.84299994E+01 -0.25906E-06
 0.84799995E+01 -0.17823E-06
 0.85299997E+01 -0.81882E-07
 0.85799999E+01 -0.14464E-07
 0.86300001E+01  0.53774E-07
 0.86799994E+01  0.11451E-06
 0.87299995E+01  0.84518E-07
 0.87799997E+01  0.78513E-07
 0.88299999E+01  0.53735E-07
 0.88800001E+01  0.50053E-07
 0.89299994E+01  0.77362E-07
 0.89799995E+01  0.10964E-06
 0.90299997E+01  0.17461E-06
 0.90799999E+01  0.23372E-06
 0.91300001E+01  0.27319E-06
 0.91799994E+01  0.18217E-06
 0.92299995E+01  0.80549E-07
 0.92799997E+01  0.41959E-07
 0.93299999E+01  0.11614E-07
 0.93800001E+01 -0.24990E-07
 0.94299994E+01 -0.92863E-07
 0.94799995E+01 -0.10732E-06
 0.95299997E+01 -0.11115E-06
 0.95799999E+01 -0.12788E-06
 0.96300001E+01 -0.10450E-06
 0.96799994E+01 -0.51548E-07
 0.97299995E+01  0.46305E-07
 0.97799997E+01  0.11837E-06
 0.98299999E+01  0.15191E-06
 0.98800001E+01  0.18982E-06
 0.99299994E+01  0.19411E-06
 0.99799995E+01  0.16983E-06
 0.10030000E+02  0.72920E-07
 0.10080000E+02 -0.81863E-07
 0.10130000E+02 -0.24257E-06
 0.10179999E+02 -0.38909E-06
 0.10230000E+02 -0.49058E-06
 0.10280000E+02 -0.51944E-06
 0.10330000E+02 -0.38911E-06
 0.10380000E+02 -0.21514E-06
 0.10429999E+02 -0.22085E-07
 0.10480000E+02  0.19536E-06
 0.10530000E+02  0.32072E-06
 0.10580000E+02  0.47547E-06
 0.10630000E+02  0.55813E-06
 0.10679999E+02  0.51673E-06
 0.10730000E+02  0.43023E-06
 0.10780000E+02  0.27345E-06
 0.10830000E+02  0.19384E-06
 0.10880000E+02  0.96694E-07
 0.10929999E+02 -0.67774E-07
 0.10980000E+02 -0.15414E-06
 0.11030000E+02 -0.22703E-06
 0.11080000E+02 -0.33182E-06
 0.11130000E+02 -0.45342E-06
 0.11179999E+02 -0.47591E-06
 0.11230000E+02 -0.40506E-06
 0.11280000E+02 -0.33853E-06
 0.11330000E+02 -0.25277E-06
 0.11380000E+02 -0.15076E-06
 0.11429999E+02 -0.47804E-07
 0.11480000E+02  0.55760E-07
 0.11530000E+02  0.19557E-06
 0.11580000E+02  0.29559E-06
 0.11630000E+02  0.32550E-06
 0.11679999E+02  0.31918E-06
 0.11730000E+02  0.28884E-06
 0.11780000E+02  0.31325E-06
 0.11830000E+02  0.32090E-06
 0.11880000E+02  0.23995E-06
 0.11929999E+02  0.13444E-06
 0.11980000E+02  0.44766E-08
 0.12030000E+02 -0.14979E-06
 0.12080000E+02 -0.29614E-06
 0.12130000E+02 -0.38464E-06
 0.12179999E+02 -0.46199E-06
 0.12230000E+02 -0.48338E-06
 0.12280000E+02 -0.35371E-06
 0.12330000E+02 -0.18428E-06
 0.12380000E+02 -0.11863E-07
 0.12429999E+02  0.11556E-06
 0.12480000E+02  0.20421E-06
 0.12530000E+02  0.20938E-06
 0.12580000E+02  0.14693E-06
 0.12630000E+02  0.10493E-06
 0.12679999E+02  0.14890E-07
 0.12730000E+02  0.12524E-07
 0.12780000E+02  0.10758E-06
 0.12830000E+02  0.19104E-06
 0.12880000E+02  0.26959E-06
 0.12929999E+02  0.23570E-06
 0.12980000E+02  0.17183E-06
 0.13030000E+02  0.21114E-06
 0.13080000E+02  0.18411E-06
 0.13130000E+02  0.74112E-07
 0.13179999E+02 -0.52923E-07
 0.13230000E+02 -0.16479E-06
 0.13280000E+02 -0.19819E-06
 0.13330000E+02 -0.17604E-06
 0.13380000E+02 -0.16517E-06
 0.13429999E+02 -0.20436E-06
 0.13480000E+02 -0.12854E-06
 0.13530000E+02 -0.42570E-07
 0.13580000E+02 -0.30416E-07
 0.13630000E+02 -0.10643E-07
 0.13679999E+02 -0.32068E-07
 0.13730000E+02 -0.54109E-08
 0.13780000E+02 -0.16485E-07
 0.13830000E+02 -0.50868E-07
 0.13880000E+02 -0.42135E-07
 0.13929999E+02 -0.54974E-08
 0.13980000E+02  0.68660E-07
 0.14030000E+02  0.10244E-06
 0.14080000E+02  0.12923E-06
 0.14130000E+02  0.12744E-06
 0.14179999E+02  0.12528E-06
 0.14230000E+02  0.80452E-07
 0.14280000E+02 -0.44707E-07
 0.14330000E+02 -0.14522E-06
 0.14380000E+02 -0.20947E-06
 0.14429999E+02 -0.20841E-06
 0.14480000E+02 -0.14491E-06
 0.14530000E+02 -0.91270E-07
 0.14580000E+02 -0.61296E-07
 0.14630000E+02  0.16286E-08
 0.14679999E+02  0.78459E-08
 0.14730000E+02 -0.11045E-07
 0.14780000E+02  0.42882E-07
 0.14830000E+02  0.14395E-06
 0.14880000E+02  0.26999E-06
 0.14929999E+02  0.34916E-06
 0.14980000E+02  0.36426E-06
 0.15030000E+02  0.25537E-06
 0.15080000E+02  0.80470E-07
 0.15130000E+02 -0.87746E-07
 0.15179999E+02 -0.28584E-06
 0.15230000E+02 -0.44142E-06
 0.15280000E+02 -0.52321E-06
 0.15330000E+02 -0.48851E-06
 0.15380000E+02 -0.31990E-06
 0.15429999E+02 -0.14443E-06
 0.15480000E+02 -0.27912E-07
 0.15530000E+02  0.10531E-06
 0.15580000E+02  0.26080E-06
 0.15630000E+02  0.39011E-06
 0.15679999E+02  0.48461E-06
 0.15730000E+02  0.51519E-06
 0.15780000E+02  0.46068E-06
 0.15830000E+02  0.33181E-06
 0.15880000E+02  0.15958E-06
 0.15929999E+02  0.38304E-09
 0.15980000E+02 -0.12686E-06
 0.16030001E+02 -0.28441E-06
 0.16080000E+02 -0.39788E-06
 0.16129999E+02 -0.42980E-06
 0.16180000E+02 -0.40843E-06
 0.16230000E+02 -0.33458E-06
 0.16280001E+02 -0.25462E-06
 0.16330000E+02 -0.14538E-06
 0.16379999E+02 -0.34711E-07
 0.16430000E+02  0.14712E-06
 0.16480000E+02  0.32946E-06
 0.16530001E+02  0.38499E-06
 0.16580000E+02  0.41096E-06
 0.16629999E+02  0.39016E-06
 0.16680000E+02  0.34674E-06
 0.16730000E+02  0.29422E-06
 0.16780001E+02  0.20131E-06
 0.16830000E+02  0.60385E-07
 0.16879999E+02 -0.82839E-07
 0.16930000E+02 -0.17821E-06
 0.16980000E+02 -0.25335E-06
 0.17030001E+02 -0.30661E-06
 0.17080000E+02 -0.37145E-06
 0.17129999E+02 -0.46678E-06
 0.17180000E+02 -0.52030E-06
 0.17230000E+02 -0.48613E-06
 0.17280001E+02 -0.47442E-06
 0.17330000E+02 -0.41673E-06
 0.17379999E+02 -0.26170E-06
 0.17430000E+02 -0.93262E-07
 0.17480000E+02  0.15957E-06
 0.17530001E+02  0.41442E-06
 0.17580000E+02  0.61005E-06
 0.17629999E+02  0.73451E-06
 0.17680000E+02  0.74420E-06
 0.17730000E+02  0.63755E-06
 0.17780001E+02  0.46390E-06
 0.17830000E+02  0.30319E-06
 0.17879999E+02  0.12713E-06
 0.17930000E+02 -0.14433E-07
 0.17980000E+02 -0.15492E-06
 0.18030001E+02 -0.36384E-06
 0.18080000E+02 -0.51119E-06
 0.18129999E+02 -0.52618E-06
 0.18180000E+02 -0.46809E-06
 0.18230000E+02 -0.33507E-06
 0.18280001E+02 -0.18628E-06
 0.18330000E+02 -0.34579E-07
 0.18379999E+02  0.15481E-06
 0.18430000E+02  0.20344E-06
 0.18480000E+02  0.17157E-06
 0.18530001E+02  0.14879E-06
 0.18580000E+02  0.72963E-07
 0.18629999E+02  0.28004E-07
 0.18680000E+02  0.36014E-07
 0.18730000E+02  0.28722E-07
 0.18780001E+02 -0.57720E-07
 0.18830000E+02 -0.16859E-06
 0.18879999E+02 -0.23188E-06
 0.18930000E+02 -0.24971E-06
 0.18980000E+02 -0.20326E-06
 0.19030001E+02 -0.13553E-06
 0.19080000E+02 -0.78026E-07
 0.19129999E+02  0.44264E-07
 0.19180000E+02  0.22816E-06
 0.19230000E+02  0.35510E-06
 0.19280001E+02  0.39687E-06
 0.19330000E+02  0.35745E-06
 0.19379999E+02  0.25482E-06
 0.19430000E+02  0.21716E-06
 0.19480000E+02  0.20543E-06
 0.19530001E+02  0.13088E-06
 0.19580000E+02  0.42669E-07
 0.19629999E+02 -0.34812E-07
 0.19680000E+02 -0.12684E-06
 0.19730000E+02 -0.21064E-06
 0.19780001E+02 -0.22902E-06
 0.19830000E+02 -0.26437E-06
 0.19879999E+02 -0.25150E-06
 0.19930000E+02 -0.16996E-06
 0.19980000E+02 -0.12881E-06
 0.20030001E+02 -0.10382E-06
 0.20080000E+02 -0.11538E-06
 0.20129999E+02 -0.79826E-07
 0.20180000E+02  0.24655E-08
 0.20230000E+02  0.73798E-07
 0.20280001E+02  0.10472E-06
 0.20330000E+02  0.12345E-06
 0.20379999E+02  0.14747E-06
 0.20430000E+02  0.13514E-06
 0.20480000E+02  0.20347E-06
 0.20530001E+02  0.31199E-06
 0.20580000E+02  0.41087E-06
 0.20629999E+02  0.45337E-06
 0.20680000E+02  0.38095E-06
 0.20730000E+02  0.22603E-06
 0.20780001E+02  0.59253E-07
 0.20830000E+02 -0.74720E-07
 0.20879999E+02 -0.24808E-06
 0.20930000E+02 -0.40354E-06
 0.20980000E+02 -0.50198E-06
 0.21030001E+02 -0.53368E-06
 0.21080000E+02 -0.51146E-06
 0.21129999E+02 -0.45867E-06
 0.21180000E+02 -0.42642E-06
 0.21230000E+02 -0.42233E-06
 0.21280001E+02 -0.35623E-06
 0.21330000E+02 -0.33702E-06
 0.21379999E+02 -0.27792E-06
 0.21430000E+02 -0.23613E-06
 0.21480000E+02 -0.28570E-06
 0.21530001E+02 -0.23225E-06
 0.21580000E+02 -0.21586E-06
 0.21629999E+02 -0.20454E-06
 0.21680000E+02 -0.70240E-07
 0.21730000E+02  0.12769E-06
 0.21780001E+02  0.39186E-06
 0.21830000E+02  0.65598E-06
 0.21879999E+02  0.81272E-06
 0.21930000E+02  0.97732E-06
 0.21980000E+02  0.11353E-05
 0.22030001E+02  0.11556E-05
 0.22080000E+02  0.11406E-05
 0.22129999E+02  0.10429E-05
 0.22180000E+02  0.90756E-06
 0.22230000E+02  0.70399E-06
 0.22280001E+02  0.42788E-06
 0.22330000E+02  0.21420E-06
 0.22379999E+02 -0.64641E-07
 0.22430000E+02 -0.33681E-06
 0.22480000E+02 -0.58984E-06
 0.22530001E+02 -0.84680E-06
 0.22580000E+02 -0.10952E-05
 0.22629999E+02 -0.12765E-05
 0.22680000E+02 -0.13442E-05
 0.22730000E+02 -0.14132E-05
 0.22780001E+02 -0.13639E-05
 0.22830000E+02 -0.11706E-05
 0.22879999E+02 -0.85886E-06
 0.22930000E+02 -0.49201E-06
 0.22980000E+02 -0.14474E-06
 0.23030001E+02  0.19767E-06
 0.23080000E+02  0.48975E-06
 0.23129999E+02  0.71815E-06
 0.23180000E+02  0.88036E-06
 0.23230000E+02  0.97184E-06
 0.23280001E+02  0.93623E-06
 0.23330000E+02  0.85470E-06
 0.23379999E+02  0.77476E-06
 0.23430000E+02  0.54873E-06
 0.23480000E+02  0.24495E-06
 0.23530001E+02  0.28534E-07
 0.23580000E+02 -0.13322E-06
 0.23629999E+02 -0.24024E-06
 0.23680000E+02 -0.29943E-06
 0.23730000E+02 -0.31366E-06
 0.23780001E+02 -0.23878E-06
 0.23830000E+02 -0.13630E-06
 0.23879999E+02 -0.20533E-07
 0.23930000E+02  0.58227E-07
 0.23980000E+02  0.11836E-06
 0.24030001E+02  0.16904E-06
 0.24080000E+02  0.16348E-06
 0.24129999E+02  0.14647E-06
 0.24180000E+02  0.27490E-07
 0.24230000E+02 -0.15655E-06
 0.24280001E+02 -0.28743E-06
 0.24330000E+02 -0.37467E-06
 0.24379999E+02 -0.35570E-06
 0.24430000E+02 -0.28826E-06
 0.24480000E+02 -0.26444E-06
 0.24530001E+02 -0.19233E-06
 0.24580000E+02 -0.85175E-07
 0.24629999E+02 -0.18509E-07
 0.24680000E+02  0.79766E-07
 0.24730000E+02  0.15673E-06
 0.24780001E+02  0.17761E-06
 0.24830000E+02  0.25237E-06
 0.24879999E+02  0.29944E-06
 0.24930000E+02  0.30875E-06
 0.24980000E+02  0.31344E-06
 0.25030001E+02  0.32241E-06
 0.25080000E+02  0.33468E-06
 0.25129999E+02  0.25973E-06
 0.25180000E+02  0.18253E-06
 0.25230000E+02  0.97697E-07
 0.25280001E+02 -0.75803E-07
 0.25330000E+02 -0.29382E-06
 0.25379999E+02 -0.51652E-06
 0.25430000E+02 -0.69540E-06
 0.25480000E+02 -0.81338E-06
 0.25530001E+02 -0.88410E-06
 0.25580000E+02 -0.86923E-06
 0.25629999E+02 -0.69198E-06
 0.25680000E+02 -0.43467E-06
 0.25730000E+02 -0.12475E-06
 0.25780001E+02  0.25026E-06
 0.25830000E+02  0.56190E-06
 0.25879999E+02  0.80689E-06
 0.25930000E+02  0.96117E-06
 0.25980000E+02  0.96828E-06
 0.26030001E+02  0.82800E-06
 0.26080000E+02  0.64132E-06
 0.26129999E+02  0.46117E-06
 0.26180000E+02  0.27457E-06
 0.26230000E+02  0.16812E-06
 0.26280001E+02  0.64098E-07
 0.26330000E+02 -0.39870E-07
 0.26379999E+02 -0.83323E-07
 0.26430000E+02 -0.10418E-06
 0.26480000E+02 -0.81855E-07
 0.26530001E+02 -0.17735E-07
 0.26580000E+02  0.30852E-07
 0.26629999E+02  0.42054E-07
 0.26680000E+02  0.22341E-07
 0.26730000E+02 -0.50579E-07
 0.26780001E+02 -0.16003E-06
 0.26830000E+02 -0.28380E-06
 0.26879999E+02 -0.37788E-06
 0.26930000E+02 -0.47302E-06
 0.26980000E+02 -0.54626E-06
 0.27030001E+02 -0.55507E-06
 0.27080000E+02 -0.53107E-06
 0.27129999E+02 -0.45807E-06
 0.27180000E+02 -0.39829E-06
 0.27230000E+02 -0.31493E-06
 0.27280001E+02 -0.21487E-06
 0.27330000E+02 -0.78766E-07
 0.27379999E+02  0.11052E-06
 0.27430000E+02  0.28979E-06
 0.27480000E+02  0.43646E-06
 0.27530001E+02  0.48117E-06
 0.27580000E+02  0.46833E-06
 0.27629999E+02  0.42120E-06
 0.27680000E+02  0.33934E-06
 0.27730000E+02  0.23574E-06
 0.27780001E+02  0.13446E-06
 0.27830000E+02 -0.10433E-08
 0.27879999E+02 -0.17241E-06
 0.27930000E+02 -0.28182E-06
 0.27980000E+02 -0.37480E-06
 0.28030001E+02 -0.43610E-06
 0.28080000E+02 -0.46772E-06
 0.28129999E+02 -0.44598E-06
 0.28180000E+02 -0.30753E-06
 0.28230000E+02 -0.18704E-06
 0.28280001E+02 -0.78207E-07
 0.28330000E+02  0.49045E-07
 0.28379999E+02  0.13911E-06
 0.28430000E+02  0.23179E-06
 0.28480000E+02  0.29899E-06
 0.28530001E+02  0.31680E-06
 0.28580000E+02  0.36856E-06
 0.28629999E+02  0.52821E-06
 0.28680000E+02  0.70322E-06
 0.28730000E+02  0.80951E-06
 0.28780001E+02  0.82059E-06
 0.28830000E+02  0.70870E-06
 0.28879999E+02  0.57333E-06
 0.28930000E+02  0.43505E-06
 0.28980000E+02  0.23482E-06
 0.29030001E+02  0.47806E-07
 0.29080000E+02 -0.36564E-07
 0.29129999E+02 -0.97273E-07
 0.29180000E+02 -0.18529E-06
 0.29230000E+02 -0.24719E-06
 0.29280001E+02 -0.29914E-06
 0.29330000E+02 -0.36849E-06
 0.29379999E+02 -0.42564E-06
 0.29430000E+02 -0.50502E-06
 0.29480000E+02 -0.60213E-06
 0.29530001E+02 -0.64687E-06
 0.29580000E+02 -0.70591E-06
 0.29629999E+02 -0.73062E-06
 0.29680000E+02 -0.67220E-06
 0.29730000E+02 -0.60806E-06
 0.29780001E+02 -0.54446E-06
 0.29830000E+02 -0.47423E-06
 0.29879999E+02 -0.38887E-06
 0.29930000E+02 -0.36614E-06
 0.29980000E+02 -0.35297E-06
 0.30030001E+02 -0.29265E-06
 0.30080000E+02 -0.21425E-06
 0.30129999E+02 -0.30740E-07
 0.30180000E+02  0.17969E-06
 0.30230000E+02  0.36568E-06
 0.30280001E+02  0.57129E-06
 0.30330000E+02  0.79425E-06
 0.30379999E+02  0.97896E-06
 0.30430000E+02  0.10947E-05
 0.30480000E+02  0.11770E-05
 0.30530001E+02  0.11648E-05
 0.30580000E+02  0.10609E-05
 0.30629999E+02  0.82571E-06
 0.30680000E+02  0.48079E-06
 0.30730000E+02  0.14879E-06
 0.30780001E+02 -0.17620E-06
 0.30830000E+02 -0.47632E-06
 0.30879999E+02 -0.69728E-06
 0.30930000E+02 -0.78711E-06
 0.30980000E+02 -0.75384E-06
 0.31030001E+02 -0.61664E-06
 0.31080000E+02 -0.44256E-06
 0.31129999E+02 -0.26803E-06
 0.31180000E+02 -0.62411E-07
 0.31230000E+02  0.10149E-06
 0.31280001E+02  0.16985E-06
 0.31330000E+02  0.16954E-06
 0.31379999E+02  0.14364E-06
 0.31430000E+02  0.11422E-06
 0.31480000E+02  0.57253E-07
 0.31530001E+02 -0.48721E-07
 0.31580000E+02 -0.14996E-06
 0.31629999E+02 -0.21047E-06
 0.31680000E+02 -0.24795E-06
 0.31730000E+02 -0.28544E-06
 0.31780001E+02 -0.29259E-06
 0.31830000E+02 -0.22282E-06
 0.31879999E+02 -0.55284E-07
 0.31930000E+02  0.15609E-06
 0.31980000E+02  0.26576E-06
 0.32029999E+02  0.32683E-06
 0.32080002E+02  0.37852E-06
 0.32130001E+02  0.34280E-06
 0.32180000E+02  0.30761E-06
 0.32230000E+02  0.23300E-06
 0.32279999E+02  0.75844E-07
 0.32330002E+02 -0.22459E-07
 0.32380001E+02 -0.12057E-06
 0.32430000E+02 -0.27552E-06
 0.32480000E+02 -0.42173E-06
 0.32529999E+02 -0.52866E-06
 0.32580002E+02 -0.67110E-06
 0.32630001E+02 -0.10137E-05
 0.32680000E+02 -0.14469E-05
 0.32730000E+02 -0.17261E-05
 0.32779999E+02 -0.15621E-05
 0.32830002E+02 -0.95169E-06
 0.32880001E+02 -0.42650E-06
 0.32930000E+02 -0.15935E-06
 0.32980000E+02 -0.28287E-06
 0.33029999E+02 -0.10853E-05
 0.33080002E+02 -0.23671E-05
 0.33130001E+02 -0.38432E-05
 0.33180000E+02 -0.40009E-05
 0.33230000E+02 -0.25650E-05
 0.33279999E+02 -0.10178E-05
 0.33330002E+02  0.14630E-05
 0.33380001E+02  0.40611E-05
 0.33430000E+02  0.56557E-05
 0.33480000E+02  0.68702E-05
 0.33529999E+02  0.67838E-05
 0.33580002E+02  0.52344E-05
 0.33630001E+02  0.15944E-05
 0.33680000E+02 -0.19721E-05
 0.33730000E+02 -0.26892E-05
 0.33779999E+02 -0.37009E-05
 0.33830002E+02 -0.19710E-05
 0.33880001E+02  0.41406E-05
 0.33930000E+02  0.67046E-05
 0.33980000E+02  0.93868E-05
 0.34029999E+02  0.12597E-04
 0.34080002E+02  0.87385E-05
 0.34130001E+02  0.45879E-05
 0.34180000E+02  0.26062E-05
 0.34230000E+02 -0.78497E-06
 0.34279999E+02 -0.73700E-05
 0.34330002E+02 -0.93756E-05
 0.34380001E+02 -0.26093E-05
 0.34430000E+02 -0.12448E-05
 0.34480000E+02  0.19888E-05
 0.34529999E+02  0.73426E-05
 0.34580002E+02  0.52892E-05
 0.34630001E+02  0.21336E-05
 0.34680000E+02 -0.34526E-05
 0.34730000E+02 -0.75873E-05
 0.34779999E+02 -0.12890E-04
 0.34830002E+02 -0.16238E-04
 0.34880001E+02 -0.12716E-04
 0.34930000E+02 -0.11153E-04
 0.34980000E+02 -0.76927E-05
 0.35029999E+02 -0.44701E-05
 0.35080002E+02  0.34871E-05
 0.35130001E+02  0.10392E-04
 0.35180000E+02  0.78499E-06
 0.35230000E+02 -0.61863E-05
 0.35279999E+02 -0.10403E-04
 0.35330002E+02 -0.13109E-04
 0.35380001E+02 -0.72920E-05
 0.35430000E+02 -0.10222E-05
 0.35480000E+02  0.11293E-04
 0.35529999E+02  0.17708E-04
 0.35580002E+02  0.11360E-04
 0.35630001E+02  0.35017E-05
 0.35680000E+02 -0.42434E-05
 0.35730000E+02 -0.58071E-05
 0.35779999E+02 -0.25927E-05
 0.35830002E+02 -0.15285E-05
 0.35880001E+02 -0.27909E-05
 0.35930000E+02 -0.38583E-05
 0.35980000E+02  0.66277E-06
 0.36029999E+02  0.10439E-04
 0.36080002E+02  0.16999E-04
 0.36130001E+02  0.16693E-04
 0.36180000E+02  0.10734E-04
 0.36230000E+02  0.12553E-05
 0.36279999E+02 -0.55339E-05
 0.36330002E+02 -0.58088E-05
 0.36380001E+02 -0.14267E-06
 0.36430000E+02  0.11357E-04
 0.36480000E+02  0.16446E-04
 0.36529999E+02  0.90660E-05
 0.36580002E+02  0.19899E-05
 0.36630001E+02 -0.50996E-05
 0.36680000E+02 -0.13589E-04
 0.36730000E+02 -0.17622E-04
 0.36779999E+02 -0.19065E-04
 0.36830002E+02 -0.18780E-04
 0.36880001E+02 -0.96135E-05
 0.36930000E+02  0.66433E-05
 0.36980000E+02  0.15919E-04
 0.37029999E+02  0.19048E-04
 0.37080002E+02  0.19157E-04
 0.37130001E+02  0.11389E-04
 0.37180000E+02 -0.49620E-05
 0.37230000E+02 -0.16012E-04
 0.37279999E+02 -0.11578E-04
 0.37330002E+02 -0.55468E-05
 0.37380001E+02  0.51565E-05
 0.37430000E+02  0.10674E-04
 0.37480000E+02  0.17636E-05
 0.37529999E+02  0.16284E-05
 0.37580002E+02 -0.23965E-05
 0.37630001E+02 -0.10689E-04
 0.37680000E+02 -0.99122E-05
 0.37730000E+02 -0.89616E-05
 0.37779999E+02 -0.55289E-05
 0.37830002E+02 -0.65351E-05
 0.37880001E+02 -0.46514E-05
 0.37930000E+02  0.89359E-05
 0.37980000E+02  0.16780E-04
 0.38029999E+02  0.16144E-04
 0.38080002E+02  0.10750E-04
 0.38130001E+02  0.75276E-06
 0.38180000E+02 -0.31805E-05
 0.38230000E+02 -0.46079E-06
 0.38279999E+02 -0.89161E-06
 0.38330002E+02 -0.86989E-05
 0.38380001E+02 -0.17774E-04
 0.38430000E+02 -0.13299E-04
 0.38480000E+02 -0.19771E-05
 0.38529999E+02  0.41622E-06
 0.38580002E+02 -0.39828E-05
 0.38630001E+02 -0.57716E-05
 0.38680000E+02 -0.21514E-05
 0.38730000E+02  0.46213E-05
 0.38779999E+02  0.14808E-04
 0.38830002E+02  0.16954E-04
 0.38880001E+02  0.86356E-05
 0.38930000E+02  0.17440E-05
 0.38980000E+02 -0.10174E-05
 0.39029999E+02 -0.21435E-05
 0.39080002E+02 -0.91348E-05
 0.39130001E+02 -0.82158E-05
 0.39180000E+02  0.25409E-05
 0.39230000E+02  0.19570E-05
 0.39279999E+02  0.25198E-05
 0.39330002E+02  0.93320E-05
 0.39380001E+02  0.13275E-04
 0.39430000E+02  0.10673E-04
 0.39480000E+02  0.29686E-05
 0.39529999E+02 -0.16920E-05
 0.39580002E+02 -0.10450E-04
 0.39630001E+02 -0.13943E-04
 0.39680000E+02 -0.57303E-05
 0.39730000E+02 -0.38599E-05
 0.39779999E+02 -0.96544E-05
 0.39830002E+02 -0.17092E-04
 0.39880001E+02 -0.18400E-04
 0.39930000E+02 -0.34504E-05
 0.39980000E+02  0.10028E-04
 0.40029999E+02  0.71922E-05
 0.40080002E+02  0.40733E-05
 0.40130001E+02  0.70511E-05
 0.40180000E+02  0.11323E-04
 0.40230000E+02  0.11544E-04
 0.40279999E+02  0.79211E-05
 0.40330002E+02  0.42352E-05
 0.40380001E+02  0.28161E-05
 0.40430000E+02  0.53668E-05
 0.40480000E+02  0.35077E-05
 0.40529999E+02 -0.34599E-05
 0.40580002E+02 -0.10528E-04
 0.40630001E+02 -0.12722E-04
 0.40680000E+02 -0.96165E-05
 0.40730000E+02 -0.85247E-05
 0.40779999E+02 -0.31305E-05
 0.40830002E+02  0.71480E-05
 0.40880001E+02  0.15806E-04
 0.40930000E+02  0.16492E-04
 0.40980000E+02  0.75972E-05
 0.41029999E+02  0.10236E-04
 0.41080002E+02  0.16360E-04
 0.41130001E+02  0.36696E-05
 0.41180000E+02 -0.15788E-04
 0.41230000E+02 -0.30133E-04
 0.41279999E+02 -0.33289E-04
 0.41330002E+02 -0.21520E-04
 0.41380001E+02 -0.59801E-05
 0.41430000E+02 -0.64599E-07
 0.41480000E+02  0.24565E-05
 0.41529999E+02  0.60430E-05
 0.41580002E+02  0.99781E-05
 0.41630001E+02  0.19444E-04
 0.41680000E+02  0.20885E-04
 0.41730000E+02  0.80624E-05
 0.41779999E+02 -0.75152E-05
 0.41830002E+02 -0.15431E-04
 0.41880001E+02 -0.38908E-05
 0.41930000E+02  0.18002E-04
 0.41980000E+02  0.24090E-04
 0.42029999E+02  0.12369E-04
 0.42080002E+02 -0.62115E-05
 0.42130001E+02 -0.25450E-04
 0.42180000E+02 -0.33033E-04
 0.42230000E+02 -0.25085E-04
 0.42279999E+02 -0.10431E-04
 0.42330002E+02  0.50931E-05
 0.42380001E+02  0.16218E-04
 0.42430000E+02  0.16883E-04
 0.42480000E+02  0.16930E-04
 0.42529999E+02  0.20949E-04
 0.42580002E+02  0.18485E-04
 0.42630001E+02  0.12066E-04
 0.42680000E+02  0.55202E-05
 0.42730000E+02 -0.60266E-06
 0.42779999E+02 -0.57815E-06
 0.42830002E+02 -0.22056E-05
 0.42880001E+02 -0.15610E-04
 0.42930000E+02 -0.28956E-04
 0.42980000E+02 -0.29416E-04
 0.43029999E+02 -0.15805E-04
 0.43080002E+02 -0.47191E-05
 0.43130001E+02 -0.10625E-04
 0.43180000E+02 -0.10132E-04
 0.43230000E+02  0.95122E-05
 0.43279999E+02  0.25079E-04
 0.43330002E+02  0.27256E-04
 0.43380001E+02  0.25730E-04
 0.43430000E+02  0.12201E-04
 0.43480000E+02 -0.43952E-05
 0.43529999E+02  0.40483E-06
 0.43580002E+02  0.87428E-05
 0.43630001E+02  0.91490E-05
 0.43680000E+02  0.30845E-05
 0.43730000E+02 -0.11950E-04
 0.43779999E+02 -0.27672E-04
 0.43830002E+02 -0.41657E-04
 0.43880001E+02 -0.40905E-04
 0.43930000E+02 -0.21418E-04
 0.43980000E+02  0.16583E-05
 0.44029999E+02  0.23988E-04
 0.44080002E+02  0.39827E-04
 0.44130001E+02  0.45459E-04
 0.44180000E+02  0.39489E-04
 0.44230000E+02  0.16261E-04
 0.44279999E+02 -0.11953E-04
 0.44330002E+02 -0.26553E-04
 0.44380001E+02 -0.24217E-04
 0.44430000E+02 -0.18102E-04
 0.44480000E+02 -0.12425E-04
 0.44529999E+02 -0.57025E-05
 0.44580002E+02  0.45434E-06
 0.44630001E+02  0.11168E-04
 0.44680000E+02  0.87655E-05
 0.44730000E+02 -0.32682E-05
 0.44779999E+02 -0.35818E-05
 0.44830002E+02 -0.22905E-05
 0.44880001E+02 -0.23673E-05
 0.44930000E+02  0.30596E-05
 0.44980000E+02  0.98572E-05
 0.45029999E+02  0.12680E-04
 0.45080002E+02  0.16580E-04
 0.45130001E+02  0.12808E-04
 0.45180000E+02 -0.73698E-05
 0.45230000E+02 -0.22170E-04
 0.45279999E+02 -0.22620E-04
 0.45330002E+02 -0.20749E-04
 0.45380001E+02 -0.15996E-04
 0.45430000E+02 -0.65249E-05
 0.45480000E+02  0.16993E-05
 0.45529999E+02  0.11794E-04
 0.45580002E+02  0.22148E-04
 0.45630001E+02  0.27489E-04
 0.45680000E+02  0.28453E-04
 0.45730000E+02  0.17763E-04
 0.45779999E+02  0.80467E-05
 0.45830002E+02  0.42611E-05
 0.45880001E+02 -0.79937E-05
 0.45930000E+02 -0.22173E-04
 0.45980000E+02 -0.43824E-04
 0.46029999E+02 -0.53458E-04
 0.46080002E+02 -0.28253E-04
 0.46130001E+02 -0.59208E-06
 0.46180000E+02  0.23494E-04
 0.46230000E+02  0.41748E-04
 0.46279999E+02  0.33361E-04
 0.46330002E+02  0.14723E-04
 0.46380001E+02  0.13080E-05
 0.46430000E+02 -0.81649E-05
 0.46480000E+02 -0.15386E-04
 0.46529999E+02 -0.20007E-04
 0.46580002E+02 -0.26057E-04
 0.46630001E+02 -0.25348E-04
 0.46680000E+02  0.34686E-05
 0.46730000E+02  0.37102E-04
 0.46779999E+02  0.46010E-04
 0.46830002E+02  0.35355E-04
 0.46880001E+02  0.23110E-04
 0.46930000E+02  0.12717E-04
 0.46980000E+02  0.27706E-05
 0.47029999E+02  0.48150E-05
 0.47080002E+02  0.21380E-05
 0.47130001E+02 -0.15751E-04
 0.47180000E+02 -0.32777E-04
 0.47230000E+02 -0.37693E-04
 0.47279999E+02 -0.36880E-04
 0.47330002E+02 -0.46963E-04
 0.47380001E+02 -0.50066E-04
 0.47430000E+02 -0.31335E-04
 0.47480000E+02 -0.28173E-05
 0.47529999E+02  0.28563E-04
 0.47580002E+02  0.43100E-04
 0.47630001E+02  0.40433E-04
 0.47680000E+02  0.42898E-04
 0.47730000E+02  0.42527E-04
 0.47779999E+02  0.34294E-04
 0.47830002E+02  0.21841E-04
 0.47880001E+02  0.35262E-05
 0.47930000E+02 -0.16953E-04
 0.47980000E+02 -0.42182E-04
 0.48029999E+02 -0.50611E-04
 0.48080002E+02 -0.27824E-04
 0.48130001E+02  0.24965E-05
 0.48180000E+02  0.17144E-04
 0.48230000E+02  0.63796E-05
 0.48279999E+02 -0.19334E-05
 0.48330002E+02  0.10417E-04
 0.48380001E+02  0.19953E-04
 0.48430000E+02  0.19070E-04
 0.48480000E+02  0.10407E-04
 0.48529999E+02  0.29923E-05
 0.48580002E+02  0.44330E-05
 0.48630001E+02 -0.18354E-05
 0.48680000E+02 -0.16932E-04
 0.48730000E+02 -0.32477E-04
 0.48779999E+02 -0.36620E-04
 0.48830002E+02 -0.16524E-04
 0.48880001E+02  0.88313E-05
 0.48930000E+02  0.25579E-04
 0.48980000E+02  0.34025E-04
 0.49029999E+02  0.22966E-04
 0.49080002E+02 -0.35911E-05
 0.49130001E+02 -0.27422E-04
 0.49180000E+02 -0.32628E-04
 0.49230000E+02 -0.16368E-04
 0.49279999E+02 -0.41185E-05
 0.49330002E+02 -0.42420E-05
 0.49380001E+02 -0.41089E-05
 0.49430000E+02 -0.89742E-06
 0.49480000E+02  0.40194E-06
 0.49529999E+02 -0.26562E-05
 0.49580002E+02 -0.27892E-05
 0.49630001E+02 -0.66809E-05
 0.49680000E+02 -0.82572E-05
 0.49730000E+02  0.53752E-05
 0.49779999E+02  0.18007E-04
 0.49830002E+02  0.22416E-04
 0.49880001E+02  0.22645E-04
 0.49930000E+02  0.20017E-04
 0.49980000E+02  0.14297E-04
 0.50029999E+02  0.82215E-05
 0.50080002E+02  0.39982E-05
 0.50130001E+02 -0.68458E-05
 0.50180000E+02 -0.19988E-04
 0.50230000E+02 -0.20025E-04
 0.50279999E+02  0.42267E-05
 0.50330002E+02  0.27652E-04
 0.50380001E+02  0.21856E-04
 0.50430000E+02  0.84083E-05
 0.50480000E+02  0.31214E-05
 0.50529999E+02  0.63835E-05
 0.50580002E+02  0.12815E-04
 0.50630001E+02  0.13109E-04
 0.50680000E+02  0.79996E-05
 0.50730000E+02 -0.45618E-05
 0.50779999E+02 -0.26456E-04
 0.50830002E+02 -0.38907E-04
 0.50880001E+02 -0.27326E-04
 0.50930000E+02 -0.11172E-04
 0.50980000E+02 -0.58516E-05
 0.51029999E+02 -0.11310E-04
 0.51080002E+02 -0.15919E-04
 0.51130001E+02 -0.17271E-04
 0.51180000E+02 -0.15657E-04
 0.51230000E+02 -0.36872E-05
 0.51279999E+02  0.62577E-05
 0.51330002E+02  0.11561E-04
 0.51380001E+02  0.14645E-04
 0.51430000E+02  0.15505E-04
 0.51480000E+02  0.91071E-05
 0.51529999E+02 -0.39416E-05
 0.51580002E+02 -0.85007E-05
 0.51630001E+02 -0.45523E-05
 0.51680000E+02  0.87313E-05
 0.51730000E+02  0.20628E-04
 0.51779999E+02  0.18996E-04
 0.51830002E+02  0.13750E-04
 0.51880001E+02  0.98364E-05
 0.51930000E+02  0.50324E-05
 0.51980000E+02 -0.23962E-05
 0.52029999E+02 -0.15540E-04
 0.52080002E+02 -0.29027E-04
 0.52130001E+02 -0.26461E-04
 0.52180000E+02 -0.79923E-05
 0.52230000E+02  0.97018E-05
 0.52279999E+02  0.19145E-04
 0.52330002E+02  0.21711E-04
 0.52380001E+02  0.22173E-04
 0.52430000E+02  0.17653E-04
 0.52480000E+02  0.14926E-05
 0.52529999E+02 -0.90967E-05
 0.52580002E+02 -0.78272E-05
 0.52630001E+02 -0.93509E-05
 0.52680000E+02 -0.12315E-04
 0.52730000E+02 -0.18505E-04
 0.52779999E+02 -0.20048E-04
 0.52830002E+02 -0.69755E-05
 0.52880001E+02  0.13062E-05
 0.52930000E+02 -0.57569E-05
 0.52980000E+02 -0.12583E-04
 0.53029999E+02 -0.88894E-05
 0.53080002E+02 -0.40346E-05
 0.53130001E+02  0.25271E-05
 0.53180000E+02  0.19413E-04
 0.53230000E+02  0.29977E-04
 0.53279999E+02  0.19964E-04
 0.53330002E+02  0.85348E-05
 0.53380001E+02  0.38964E-05
 0.53430000E+02 -0.91630E-05
 0.53480000E+02 -0.24653E-04
 0.53529999E+02 -0.24230E-04
 0.53580002E+02 -0.61915E-05
 0.53630001E+02  0.11194E-04
 0.53680000E+02  0.24945E-04
 0.53730000E+02  0.43534E-04
 0.53779999E+02  0.44918E-04
 0.53830002E+02  0.21459E-04
 0.53880001E+02 -0.43674E-05
 0.53930000E+02 -0.21832E-04
 0.53980000E+02 -0.33788E-04
 0.54029999E+02 -0.42123E-04
 0.54080002E+02 -0.39338E-04
 0.54130001E+02 -0.17558E-04
 0.54180000E+02  0.19033E-04
 0.54230000E+02  0.44830E-04
 0.54279999E+02  0.39420E-04
 0.54330002E+02  0.18318E-04
 0.54380001E+02 -0.20894E-05
 0.54430000E+02 -0.20286E-04
 0.54480000E+02 -0.32050E-04
 0.54529999E+02 -0.30337E-04
 0.54580002E+02 -0.17959E-04
 0.54630001E+02 -0.38712E-05
 0.54680000E+02  0.72702E-05
 0.54730000E+02  0.53439E-05
 0.54779999E+02 -0.18339E-05
 0.54830002E+02 -0.22937E-06
 0.54880001E+02 -0.34844E-05
 0.54930000E+02 -0.13094E-04
 0.54980000E+02 -0.12657E-04
 0.55029999E+02 -0.17317E-05
 0.55080002E+02  0.10994E-04
 0.55130001E+02  0.18708E-04
 0.55180000E+02  0.14652E-04
 0.55230000E+02  0.32968E-05
 0.55279999E+02 -0.13998E-05
 0.55330002E+02  0.39934E-05
 0.55380001E+02  0.52401E-05
 0.55430000E+02 -0.42218E-05
 0.55480000E+02 -0.60760E-05
 0.55529999E+02  0.54294E-05
 0.55580002E+02  0.24435E-04
 0.55630001E+02  0.38813E-04
 0.55680000E+02  0.31580E-04
 0.55730000E+02  0.97975E-05
 0.55779999E+02 -0.17798E-04
 0.55830002E+02 -0.33395E-04
 0.55880001E+02 -0.21525E-04
 0.55930000E+02 -0.11700E-05
 0.55980000E+02  0.78441E-05
 0.56029999E+02 -0.11503E-05
 0.56080002E+02 -0.14945E-04
 0.56130001E+02 -0.56794E-05
 0.56180000E+02  0.18684E-04
 0.56230000E+02  0.26350E-04
 0.56279999E+02  0.14341E-04
 0.56330002E+02 -0.48606E-05
 0.56380001E+02 -0.17848E-04
 0.56430000E+02 -0.23664E-04
 0.56480000E+02 -0.28974E-04
 0.56529999E+02 -0.29515E-04
 0.56580002E+02 -0.26847E-04
 0.56630001E+02 -0.15204E-04
 0.56680000E+02  0.50021E-05
 0.56730000E+02  0.23048E-04
 0.56779999E+02  0.36584E-04
 0.56830002E+02  0.28365E-04
 0.56880001E+02  0.12782E-06
 0.56930000E+02 -0.18250E-04
 0.56980000E+02 -0.24325E-04
 0.57029999E+02 -0.31475E-04
 0.57080002E+02 -0.36086E-04
 0.57130001E+02 -0.26574E-04
 0.57180000E+02 -0.29307E-05
 0.57230000E+02  0.17934E-04
 0.57279999E+02  0.36662E-04
 0.57330002E+02  0.54716E-04
 0.57380001E+02  0.53557E-04
 0.57430000E+02  0.34164E-04
 0.57480000E+02  0.97942E-05
 0.57529999E+02 -0.43912E-05
 0.57580002E+02 -0.94697E-05
 0.57630001E+02 -0.15960E-04
 0.57680000E+02 -0.20870E-04
 0.57730000E+02 -0.12601E-04
 0.57779999E+02  0.94209E-05
 0.57830002E+02  0.26463E-04
 0.57880001E+02  0.31278E-04
 0.57930000E+02  0.22194E-04
 0.57980000E+02  0.98255E-05
 0.58029999E+02 -0.53106E-05
 0.58080002E+02 -0.29181E-04
 0.58130001E+02 -0.48951E-04
 0.58180000E+02 -0.75749E-04
 0.58230000E+02 -0.81342E-04
 0.58279999E+02 -0.38952E-04
 0.58330002E+02  0.19064E-04
 0.58380001E+02  0.77138E-04
 0.58430000E+02  0.11330E-03
 0.58480000E+02  0.12998E-03
 0.58529999E+02  0.10912E-03
 0.58580002E+02  0.38903E-04
 0.58630001E+02 -0.26686E-04
 0.58680000E+02 -0.91115E-04
 0.58730000E+02 -0.14533E-03
 0.58779999E+02 -0.16748E-03
 0.58830002E+02 -0.14457E-03
 0.58880001E+02 -0.56527E-04
 0.58930000E+02  0.22461E-04
 0.58980000E+02  0.47914E-04
 0.59029999E+02  0.53063E-04
 0.59080002E+02  0.39653E-04
 0.59130001E+02  0.27533E-04
 0.59180000E+02  0.28640E-04
 0.59230000E+02  0.14664E-04
 0.59279999E+02 -0.13063E-04
 0.59330002E+02 -0.16519E-04
 0.59380001E+02  0.16368E-04
 0.59430000E+02  0.60623E-04
 0.59480000E+02  0.92377E-04
 0.59529999E+02  0.61432E-04
 0.59580002E+02 -0.26147E-04
 0.59630001E+02 -0.11030E-03
 0.59680000E+02 -0.16636E-03
 0.59730000E+02 -0.17498E-03
 0.59779999E+02 -0.91173E-04
 0.59830002E+02  0.50806E-04
 0.59880001E+02  0.10626E-03
 0.59930000E+02  0.95621E-04
 0.59980000E+02  0.90776E-04
 0.60029999E+02  0.58554E-04
 0.60080002E+02  0.27147E-04
 0.60130001E+02  0.30827E-04
 0.60180000E+02  0.88043E-04
 0.60230000E+02  0.17106E-03
 0.60279999E+02  0.17722E-03
 0.60330002E+02  0.11860E-03
 0.60380001E+02  0.78131E-04
 0.60430000E+02  0.20742E-04
 0.60480000E+02 -0.80828E-04
 0.60529999E+02 -0.20122E-03
 0.60580002E+02 -0.27745E-03
 0.60630001E+02 -0.25778E-03
 0.60680000E+02 -0.18858E-03
 0.60730000E+02 -0.98783E-04
 0.60779999E+02  0.92705E-05
 0.60830002E+02  0.16487E-03
 0.60880001E+02  0.33002E-03
 0.60930000E+02  0.37386E-03
 0.60980000E+02  0.26912E-03
 0.61029999E+02  0.94007E-04
 0.61080002E+02 -0.78916E-04
 0.61130001E+02 -0.19759E-03
 0.61180000E+02 -0.21100E-03
 0.61230000E+02 -0.18972E-03
 0.61279999E+02 -0.22891E-03
 0.61330002E+02 -0.27993E-03
 0.61380001E+02 -0.23637E-03
 0.61430000E+02 -0.72030E-04
 0.61480000E+02  0.11355E-03
 0.61529999E+02  0.22867E-03
 0.61580002E+02  0.20697E-03
 0.61630001E+02  0.69763E-04
 0.61680000E+02 -0.39656E-04
 0.61730000E+02 -0.42019E-04
 0.61779999E+02  0.23837E-04
 0.61830002E+02  0.49628E-04
 0.61880001E+02  0.37466E-05
 0.61930000E+02 -0.47591E-04
 0.61980000E+02 -0.63936E-04
 0.62029999E+02 -0.47284E-04
 0.62080002E+02 -0.33311E-04
 0.62130001E+02 -0.46205E-05
 0.62180000E+02  0.92225E-04
 0.62230000E+02  0.12578E-03
 0.62279999E+02 -0.60232E-05
 0.62330002E+02 -0.10338E-03
 0.62380001E+02 -0.60562E-04
 0.62430000E+02  0.11682E-04
 0.62480000E+02  0.59195E-04
 0.62529999E+02  0.10435E-03
 0.62580002E+02  0.14395E-03
 0.62630001E+02  0.12677E-03
 0.62680000E+02  0.40466E-04
 0.62730000E+02 -0.60355E-04
 0.62779999E+02 -0.10176E-03
 0.62830002E+02 -0.83234E-04
 0.62880001E+02 -0.52709E-04
 0.62930000E+02 -0.40394E-04
 0.62980000E+02 -0.22741E-04
 0.63029999E+02  0.49010E-04
 0.63080002E+02  0.13000E-03
 0.63130001E+02  0.16992E-03
 0.63180000E+02  0.15693E-03
 0.63230000E+02  0.90126E-04
 0.63279999E+02 -0.50190E-05
 0.63330002E+02 -0.10192E-03
 0.63380001E+02 -0.18025E-03
 0.63430000E+02 -0.22715E-03
 0.63480000E+02 -0.20287E-03
 0.63529999E+02 -0.10477E-03
 0.63580002E+02  0.11455E-04
 0.63630001E+02  0.69914E-04
 0.63680000E+02  0.44658E-04
 0.63730000E+02  0.17566E-04
 0.63779999E+02  0.22938E-04
 0.63830002E+02  0.37721E-04
 0.63880001E+02  0.60907E-04
 0.63930000E+02  0.63870E-04
 0.63980000E+02  0.18830E-04
 0.64029999E+02 -0.42597E-04
 0.64080002E+02 -0.53478E-04
 0.64129997E+02 -0.26374E-04
 0.64180000E+02 -0.42992E-04
 0.64230003E+02 -0.70807E-04
 0.64279999E+02 -0.75603E-04
 0.64330002E+02 -0.78880E-04
 0.64379997E+02 -0.51694E-04
 0.64430000E+02  0.32232E-05
 0.64480003E+02  0.89285E-04
 0.64529999E+02  0.16255E-03
 0.64580002E+02  0.18343E-03
 0.64629997E+02  0.17563E-03
 0.64680000E+02  0.11341E-03
 0.64730003E+02  0.51167E-04
 0.64779999E+02  0.31972E-04
 0.64830002E+02  0.51083E-08
 0.64879997E+02 -0.18968E-04
 0.64930000E+02 -0.52263E-05
 0.64980003E+02 -0.14542E-04
 0.65029999E+02 -0.49337E-04
 0.65080002E+02 -0.85554E-04
 0.65129997E+02 -0.10161E-03
 0.65180000E+02 -0.67084E-04
 0.65230003E+02  0.67513E-06
 0.65279999E+02  0.62734E-04
 0.65330002E+02  0.10149E-03
 0.65379997E+02  0.10076E-03
 0.65430000E+02  0.55005E-04
 0.65480003E+02  0.21100E-04
 0.65529999E+02  0.40641E-04
 0.65580002E+02  0.67796E-04
 0.65629997E+02  0.65870E-04
 0.65680000E+02  0.22744E-04
 0.65730003E+02 -0.54936E-04
 0.65779999E+02 -0.13441E-03
 0.65830002E+02 -0.17266E-03
 0.65879997E+02 -0.14640E-03
 0.65930000E+02 -0.11168E-03
 0.65980003E+02 -0.73064E-04
 0.66029999E+02 -0.14620E-04
 0.66080002E+02  0.25177E-04
 0.66129997E+02  0.50322E-04
 0.66180000E+02  0.33146E-04
 0.66230003E+02 -0.24008E-04
 0.66279999E+02 -0.72266E-04
 0.66330002E+02 -0.12676E-03
 0.66379997E+02 -0.18593E-03
 0.66430000E+02 -0.19436E-03
 0.66480003E+02 -0.13589E-03
 0.66529999E+02 -0.51738E-04
 0.66580002E+02 -0.61853E-05
 0.66629997E+02 -0.11431E-04
 0.66680000E+02 -0.29975E-04
 0.66730003E+02 -0.72793E-04
 0.66779999E+02 -0.10901E-03
 0.66830002E+02 -0.66844E-04
 0.66879997E+02  0.53389E-04
 0.66930000E+02  0.17992E-03
 0.66980003E+02  0.25021E-03
 0.67029999E+02  0.26026E-03
 0.67080002E+02  0.25756E-03
 0.67129997E+02  0.26024E-03
 0.67180000E+02  0.21997E-03
 0.67230003E+02  0.14619E-03
 0.67279999E+02  0.77365E-04
 0.67330002E+02  0.24883E-04
 0.67379997E+02 -0.23881E-04
 0.67430000E+02 -0.62854E-04
 0.67480003E+02 -0.63409E-04
 0.67529999E+02 -0.45618E-04
 0.67580002E+02 -0.24482E-04
 0.67629997E+02  0.26628E-04
 0.67680000E+02  0.97722E-04
 0.67730003E+02  0.11355E-03
 0.67779999E+02  0.74048E-04
 0.67830002E+02  0.14238E-04
 0.67879997E+02 -0.65242E-04
 0.67930000E+02 -0.13649E-03
 0.67980003E+02 -0.18031E-03
 0.68029999E+02 -0.17366E-03
 0.68080002E+02 -0.11643E-03
 0.68129997E+02 -0.44934E-04
 0.68180000E+02  0.71513E-05
 0.68230003E+02  0.24783E-04
 0.68279999E+02  0.90316E-05
 0.68330002E+02 -0.36221E-04
 0.68379997E+02 -0.71172E-04
 0.68430000E+02 -0.57980E-04
 0.68480003E+02 -0.40729E-04
 0.68529999E+02 -0.66199E-04
 0.68580002E+02 -0.91975E-04
 0.68629997E+02 -0.73612E-04
 0.68680000E+02 -0.29042E-04
 0.68730003E+02 -0.59887E-05
 0.68779999E+02 -0.30560E-04
 0.68830002E+02 -0.79403E-04
 0.68879997E+02 -0.10707E-03
 0.68930000E+02 -0.95488E-04
 0.68980003E+02 -0.19005E-04
 0.69029999E+02  0.11805E-03
 0.69080002E+02  0.22225E-03
 0.69129997E+02  0.26160E-03
 0.69180000E+02  0.25785E-03
 0.69230003E+02  0.22115E-03
 0.69279999E+02  0.15642E-03
 0.69330002E+02  0.52712E-04
 0.69379997E+02 -0.39338E-04
 0.69430000E+02 -0.67732E-04
 0.69480003E+02 -0.51082E-04
 0.69529999E+02 -0.21780E-04
 0.69580002E+02 -0.60478E-05
 0.69629997E+02 -0.15577E-04
 0.69680000E+02 -0.61754E-04
 0.69730003E+02 -0.14937E-03
 0.69779999E+02 -0.21253E-03
 0.69830002E+02 -0.19980E-03
 0.69879997E+02 -0.12719E-03
 0.69930000E+02 -0.29990E-04
 0.69980003E+02  0.65961E-04
 0.70029999E+02  0.15967E-03
 0.70080002E+02  0.19890E-03
 0.70129997E+02  0.17468E-03
 0.70180000E+02  0.11333E-03
 0.70230003E+02 -0.14542E-04
 0.70279999E+02 -0.14494E-03
 0.70330002E+02 -0.19479E-03
 0.70379997E+02 -0.17606E-03
 0.70430000E+02 -0.10263E-03
 0.70480003E+02  0.84741E-05
 0.70529999E+02  0.10567E-03
 0.70580002E+02  0.12881E-03
 0.70629997E+02  0.62565E-04
 0.70680000E+02 -0.26183E-04
 0.70730003E+02 -0.59501E-04
 0.70779999E+02 -0.25353E-04
 0.70830002E+02  0.18379E-04
 0.70879997E+02  0.38581E-04
 0.70930000E+02  0.51910E-04
 0.70980003E+02  0.44755E-04
 0.71029999E+02  0.11436E-04
 0.71080002E+02 -0.13670E-04
 0.71129997E+02 -0.16884E-04
 0.71180000E+02 -0.31974E-04
 0.71230003E+02 -0.47949E-04
 0.71279999E+02 -0.26421E-04
 0.71330002E+02  0.19639E-04
 0.71379997E+02  0.88187E-04
 0.71430000E+02  0.16602E-03
 0.71480003E+02  0.20452E-03
 0.71529999E+02  0.18385E-03
 0.71580002E+02  0.10087E-03
 0.71629997E+02 -0.24881E-04
 0.71680000E+02 -0.13456E-03
 0.71730003E+02 -0.19212E-03
 0.71779999E+02 -0.19351E-03
 0.71830002E+02 -0.16681E-03
 0.71879997E+02 -0.11573E-03
 0.71930000E+02 -0.28539E-04
 0.71980003E+02  0.32561E-04
 0.72029999E+02  0.50322E-04
 0.72080002E+02  0.65534E-04
 0.72129997E+02  0.93585E-04
 0.72180000E+02  0.13190E-03
 0.72230003E+02  0.15041E-03
 0.72279999E+02  0.12613E-03
 0.72330002E+02  0.59222E-04
 0.72379997E+02 -0.90273E-05
 0.72430000E+02 -0.34183E-04
 0.72480003E+02 -0.25359E-04
 0.72529999E+02 -0.28926E-04
 0.72580002E+02 -0.90148E-04
 0.72629997E+02 -0.17538E-03
 0.72680000E+02 -0.22453E-03
 0.72730003E+02 -0.23137E-03
 0.72779999E+02 -0.19295E-03
 0.72830002E+02 -0.95276E-04
 0.72879997E+02  0.18028E-04
 0.72930000E+02  0.82813E-04
 0.72980003E+02  0.10682E-03
 0.73029999E+02  0.99815E-04
 0.73080002E+02  0.58164E-04
 0.73129997E+02  0.14738E-04
 0.73180000E+02 -0.28553E-04
 0.73230003E+02 -0.64529E-04
 0.73279999E+02 -0.61798E-04
 0.73330002E+02 -0.31088E-04
 0.73379997E+02  0.84279E-05
 0.73430000E+02  0.42867E-04
 0.73480003E+02  0.92590E-04
 0.73529999E+02  0.14795E-03
 0.73580002E+02  0.15090E-03
 0.73629997E+02  0.10922E-03
 0.73680000E+02  0.42409E-04
 0.73730003E+02 -0.29372E-04
 0.73779999E+02 -0.73071E-04
 0.73830002E+02 -0.83507E-04
 0.73879997E+02 -0.46932E-04
 0.73930000E+02  0.25280E-04
 0.73980003E+02  0.85042E-04
 0.74029999E+02  0.11052E-03
 0.74080002E+02  0.10097E-03
 0.74129997E+02  0.70839E-04
 0.74180000E+02  0.54769E-04
 0.74230003E+02  0.62123E-04
 0.74279999E+02  0.64257E-04
 0.74330002E+02  0.49227E-04
 0.74379997E+02  0.25121E-04
 0.74430000E+02 -0.47317E-06
 0.74480003E+02 -0.26403E-04
 0.74529999E+02 -0.68749E-04
 0.74580002E+02 -0.11272E-03
 0.74629997E+02 -0.14309E-03
 0.74680000E+02 -0.18032E-03
 0.74730003E+02 -0.20043E-03
 0.74779999E+02 -0.19100E-03
 0.74830002E+02 -0.16420E-03
 0.74879997E+02 -0.10381E-03
 0.74930000E+02 -0.29890E-04
 0.74980003E+02  0.34207E-04
 0.75029999E+02  0.78906E-04
 0.75080002E+02  0.10352E-03
 0.75129997E+02  0.13330E-03
 0.75180000E+02  0.17665E-03
 0.75230003E+02  0.21261E-03
 0.75279999E+02  0.21239E-03
 0.75330002E+02  0.16812E-03
 0.75379997E+02  0.81309E-04
 0.75430000E+02 -0.23497E-04
 0.75480003E+02 -0.12236E-03
 0.75529999E+02 -0.22523E-03
 0.75580002E+02 -0.31752E-03
 0.75629997E+02 -0.36353E-03
 0.75680000E+02 -0.31909E-03
 0.75730003E+02 -0.16971E-03
 0.75779999E+02  0.34344E-04
 0.75830002E+02  0.22177E-03
 0.75879997E+02  0.32591E-03
 0.75930000E+02  0.34382E-03
 0.75980003E+02  0.30673E-03
 0.76029999E+02  0.22779E-03
 0.76080002E+02  0.12092E-03
 0.76129997E+02 -0.10890E-04
 0.76180000E+02 -0.12452E-03
 0.76230003E+02 -0.18085E-03
 0.76279999E+02 -0.18972E-03
 0.76330002E+02 -0.14942E-03
 0.76379997E+02 -0.88426E-04
 0.76430000E+02 -0.48233E-04
 0.76480003E+02 -0.23456E-04
 0.76529999E+02  0.37534E-06
 0.76580002E+02  0.22855E-04
 0.76629997E+02  0.54507E-04
 0.76680000E+02  0.83342E-04
 0.76730003E+02  0.85068E-04
 0.76779999E+02  0.87566E-04
 0.76830002E+02  0.91664E-04
 0.76879997E+02  0.81819E-04
 0.76930000E+02  0.59764E-04
 0.76980003E+02  0.99825E-05
 0.77029999E+02 -0.48252E-04
 0.77080002E+02 -0.92367E-04
 0.77129997E+02 -0.10606E-03
 0.77180000E+02 -0.84070E-04
 0.77230003E+02 -0.62318E-04
 0.77279999E+02 -0.52252E-04
 0.77330002E+02 -0.60414E-04
 0.77379997E+02 -0.93854E-04
 0.77430000E+02 -0.10915E-03
 0.77480003E+02 -0.78125E-04
 0.77529999E+02 -0.19300E-04
 0.77580002E+02  0.45812E-04
 0.77629997E+02  0.96730E-04
 0.77680000E+02  0.12547E-03
 0.77730003E+02  0.13433E-03
 0.77779999E+02  0.12144E-03
 0.77830002E+02  0.96499E-04
 0.77879997E+02  0.74563E-04
 0.77930000E+02  0.53492E-04
 0.77980003E+02  0.12050E-04
 0.78029999E+02 -0.51234E-04
 0.78080002E+02 -0.10331E-03
 0.78129997E+02 -0.10823E-03
 0.78180000E+02 -0.73164E-04
 0.78230003E+02 -0.36454E-04
 0.78279999E+02 -0.11097E-04
 0.78330002E+02 -0.16571E-05
 0.78379997E+02  0.52655E-05
 0.78430000E+02  0.33521E-04
 0.78480003E+02  0.80998E-04
 0.78529999E+02  0.13145E-03
 0.78580002E+02  0.14713E-03
 0.78629997E+02  0.95177E-04
 0.78680000E+02 -0.10018E-04
 0.78730003E+02 -0.11381E-03
 0.78779999E+02 -0.17003E-03
 0.78830002E+02 -0.16815E-03
 0.78879997E+02 -0.13061E-03
 0.78930000E+02 -0.88940E-04
 0.78980003E+02 -0.47289E-04
 0.79029999E+02 -0.48606E-05
 0.79080002E+02  0.29721E-04
 0.79129997E+02  0.51569E-04
 0.79180000E+02  0.64143E-04
 0.79230003E+02  0.78091E-04
 0.79279999E+02  0.85678E-04
 0.79330002E+02  0.72430E-04
 0.79379997E+02  0.50114E-04
 0.79430000E+02  0.21126E-04
 0.79480003E+02 -0.24351E-04
 0.79529999E+02 -0.73006E-04
 0.79580002E+02 -0.10993E-03
 0.79629997E+02 -0.12113E-03
 0.79680000E+02 -0.10163E-03
 0.79730003E+02 -0.54365E-04
 0.79779999E+02  0.22485E-04
 0.79830002E+02  0.10541E-03
 0.79879997E+02  0.16304E-03
 0.79930000E+02  0.18519E-03
 0.79980003E+02  0.17256E-03
 0.80029999E+02  0.12364E-03
 0.80080002E+02  0.45234E-04
 0.80129997E+02 -0.27058E-04
 0.80180000E+02 -0.73904E-04
 0.80230003E+02 -0.10848E-03
 0.80279999E+02 -0.12981E-03
 0.80330002E+02 -0.14175E-03
 0.80379997E+02 -0.14758E-03
 0.80430000E+02 -0.13275E-03
 0.80480003E+02 -0.10050E-03
 0.80529999E+02 -0.59710E-04
 0.80580002E+02 -0.15171E-04
 0.80629997E+02  0.28695E-04
 0.80680000E+02  0.72346E-04
 0.80730003E+02  0.11186E-03
 0.80779999E+02  0.14029E-03
 0.80830002E+02  0.14781E-03
 0.80879997E+02  0.12553E-03
 0.80930000E+02  0.74718E-04
 0.80980003E+02  0.12274E-04
 0.81029999E+02 -0.46645E-04
 0.81080002E+02 -0.87376E-04
 0.81129997E+02 -0.92271E-04
 0.81180000E+02 -0.67733E-04
 0.81230003E+02 -0.32478E-04
 0.81279999E+02 -0.94013E-05
 0.81330002E+02 -0.39122E-05
 0.81379997E+02  0.53575E-05
 0.81430000E+02  0.27725E-04
 0.81480003E+02  0.59899E-04
 0.81529999E+02  0.87666E-04
 0.81580002E+02  0.10252E-03
 0.81629997E+02  0.10904E-03
 0.81680000E+02  0.10193E-03
 0.81730003E+02  0.76516E-04
 0.81779999E+02  0.33564E-04
 0.81830002E+02 -0.20710E-04
 0.81879997E+02 -0.79965E-04
 0.81930000E+02 -0.13771E-03
 0.81980003E+02 -0.17715E-03
 0.82029999E+02 -0.18225E-03
 0.82080002E+02 -0.15105E-03
 0.82129997E+02 -0.97202E-04
 0.82180000E+02 -0.33613E-04
 0.82230003E+02  0.25930E-04
 0.82279999E+02  0.58540E-04
 0.82330002E+02  0.50561E-04
 0.82379997E+02  0.18195E-04
 0.82430000E+02 -0.81156E-05
 0.82480003E+02 -0.18779E-04
 0.82529999E+02 -0.20113E-04
 0.82580002E+02 -0.12542E-04
 0.82629997E+02 -0.63584E-05
 0.82680000E+02 -0.18581E-04
 0.82730003E+02 -0.34188E-04
 0.82779999E+02 -0.33111E-04
 0.82830002E+02 -0.16924E-04
 0.82879997E+02  0.13158E-04
 0.82930000E+02  0.60951E-04
 0.82980003E+02  0.12330E-03
 0.83029999E+02  0.17166E-03
 0.83080002E+02  0.18265E-03
 0.83129997E+02  0.16523E-03
 0.83180000E+02  0.12798E-03
 0.83230003E+02  0.72148E-04
 0.83279999E+02  0.65848E-05
 0.83330002E+02 -0.57582E-04
 0.83379997E+02 -0.11272E-03
 0.83430000E+02 -0.14317E-03
 0.83480003E+02 -0.13294E-03
 0.83529999E+02 -0.92995E-04
 0.83580002E+02 -0.49600E-04
 0.83629997E+02 -0.16317E-04
 0.83680000E+02 -0.12848E-05
 0.83730003E+02 -0.10880E-04
 0.83779999E+02 -0.29313E-04
 0.83830002E+02 -0.32684E-04
 0.83879997E+02 -0.17343E-04
 0.83930000E+02  0.26157E-05
 0.83980003E+02  0.20243E-04
 0.84029999E+02  0.39386E-04
 0.84080002E+02  0.50661E-04
 0.84129997E+02  0.42242E-04
 0.84180000E+02  0.21154E-04
 0.84230003E+02 -0.51175E-06
 0.84279999E+02 -0.20746E-04
 0.84330002E+02 -0.36761E-04
 0.84379997E+02 -0.39195E-04
 0.84430000E+02 -0.24238E-04
 0.84480003E+02 -0.15244E-05
 0.84529999E+02  0.11077E-04
 0.84580002E+02  0.11781E-04
 0.84629997E+02  0.13689E-04
 0.84680000E+02  0.22792E-04
 0.84730003E+02  0.34568E-04
 0.84779999E+02  0.43485E-04
 0.84830002E+02  0.54253E-04
 0.84879997E+02  0.64764E-04
 0.84930000E+02  0.68931E-04
 0.84980003E+02  0.62523E-04
 0.85029999E+02  0.34765E-04
 0.85080002E+02 -0.89734E-05
 0.85129997E+02 -0.51209E-04
 0.85180000E+02 -0.75351E-04
 0.85230003E+02 -0.79282E-04
 0.85279999E+02 -0.75796E-04
 0.85330002E+02 -0.70495E-04
 0.85379997E+02 -0.65177E-04
 0.85430000E+02 -0.58423E-04
 0.85480003E+02 -0.51190E-04
 0.85529999E+02 -0.42890E-04
 0.85580002E+02 -0.27065E-04
 0.85629997E+02 -0.68332E-05
 0.85680000E+02  0.97919E-05
 0.85730003E+02  0.22387E-04
 0.85779999E+02  0.40529E-04
 0.85830002E+02  0.69691E-04
 0.85879997E+02  0.99244E-04
 0.85930000E+02  0.11004E-03
 0.85980003E+02  0.97526E-04
 0.86029999E+02  0.73483E-04
 0.86080002E+02  0.41418E-04
 0.86129997E+02  0.67102E-05
 0.86180000E+02 -0.26019E-04
 0.86230003E+02 -0.58280E-04
 0.86279999E+02 -0.72228E-04
 0.86330002E+02 -0.56960E-04
 0.86379997E+02 -0.25799E-04
 0.86430000E+02  0.45690E-05
 0.86480003E+02  0.17449E-04
 0.86529999E+02  0.82512E-05
 0.86580002E+02 -0.13018E-04
 0.86629997E+02 -0.35707E-04
 0.86680000E+02 -0.50397E-04
 0.86730003E+02 -0.52544E-04
 0.86779999E+02 -0.49688E-04
 0.86830002E+02 -0.45377E-04
 0.86879997E+02 -0.39895E-04
 0.86930000E+02 -0.34258E-04
 0.86980003E+02 -0.13676E-04
 0.87029999E+02  0.16342E-04
 0.87080002E+02  0.33465E-04
 0.87129997E+02  0.36209E-04
 0.87180000E+02  0.26124E-04
 0.87230003E+02  0.12842E-04
 0.87279999E+02  0.71889E-05
 0.87330002E+02  0.66726E-05
 0.87379997E+02  0.84492E-05
 0.87430000E+02  0.92531E-05
 0.87480003E+02  0.13707E-04
 0.87529999E+02  0.27365E-04
 0.87580002E+02  0.46061E-04
 0.87629997E+02  0.58995E-04
 0.87680000E+02  0.56318E-04
 0.87730003E+02  0.40432E-04
 0.87779999E+02  0.15401E-04
 0.87830002E+02 -0.86140E-05
 0.87879997E+02 -0.20352E-04
 0.87930000E+02 -0.26848E-04
 0.87980003E+02 -0.35683E-04
 0.88029999E+02 -0.41706E-04
 0.88080002E+02 -0.39941E-04
 0.88129997E+02 -0.29905E-04
 0.88180000E+02 -0.12675E-04
 0.88230003E+02  0.94260E-05
 0.88279999E+02  0.32185E-04
 0.88330002E+02  0.48637E-04
 0.88379997E+02  0.60859E-04
 0.88430000E+02  0.69139E-04
 0.88480003E+02  0.65976E-04
 0.88529999E+02  0.52186E-04
 0.88580002E+02  0.28769E-04
 0.88629997E+02 -0.57516E-05
 0.88680000E+02 -0.44312E-04
 0.88730003E+02 -0.71884E-04
 0.88779999E+02 -0.81680E-04
 0.88830002E+02 -0.79470E-04
 0.88879997E+02 -0.71171E-04
 0.88930000E+02 -0.59519E-04
 0.88980003E+02 -0.48826E-04
 0.89029999E+02 -0.36264E-04
 0.89080002E+02 -0.19155E-04
 0.89129997E+02 -0.50604E-05
 0.89180000E+02  0.18478E-05
 0.89230003E+02 -0.16585E-05
 0.89279999E+02 -0.45763E-05
 0.89330002E+02  0.12428E-04
 0.89379997E+02  0.43649E-04
 0.89430000E+02  0.68715E-04
 0.89480003E+02  0.75739E-04
 0.89529999E+02  0.63447E-04
 0.89580002E+02  0.48135E-04
 0.89629997E+02  0.46458E-04
 0.89680000E+02  0.46318E-04
 0.89730003E+02  0.37946E-04
 0.89779999E+02  0.20503E-04
 0.89830002E+02 -0.10270E-04
 0.89879997E+02 -0.41780E-04
 0.89930000E+02 -0.64885E-04
 0.89980003E+02 -0.83016E-04
 0.90029999E+02 -0.90270E-04
 0.90080002E+02 -0.79890E-04
 0.90129997E+02 -0.55478E-04
 0.90180000E+02 -0.24952E-04
 0.90230003E+02  0.61441E-05
 0.90279999E+02  0.30844E-04
 0.90330002E+02  0.44369E-04
 0.90379997E+02  0.50001E-04
 0.90430000E+02  0.56390E-04
 0.90480003E+02  0.63862E-04
 0.90529999E+02  0.60171E-04
 0.90580002E+02  0.42256E-04
 0.90629997E+02  0.17389E-04
 0.90680000E+02 -0.69299E-05
 0.90730003E+02 -0.27010E-04
 0.90779999E+02 -0.42464E-04
 0.90830002E+02 -0.52968E-04
 0.90879997E+02 -0.56525E-04
 0.90930000E+02 -0.51130E-04
 0.90980003E+02 -0.36861E-04
 0.91029999E+02 -0.15249E-04
 0.91080002E+02  0.48273E-05
 0.91129997E+02  0.17848E-04
 0.91180000E+02  0.26010E-04
 0.91230003E+02  0.28095E-04
 0.91279999E+02  0.24320E-04
 0.91330002E+02  0.11701E-04
 0.91379997E+02 -0.11144E-04
 0.91430000E+02 -0.31630E-04
 0.91480003E+02 -0.39817E-04
 0.91529999E+02 -0.30059E-04
 0.91580002E+02 -0.53793E-05
 0.91629997E+02  0.18812E-04
 0.91680000E+02  0.37496E-04
 0.91730003E+02  0.49261E-04
 0.91779999E+02  0.53716E-04
 0.91830002E+02  0.52921E-04
 0.91879997E+02  0.39414E-04
 0.91930000E+02  0.10891E-04
 0.91980003E+02 -0.23785E-04
 0.92029999E+02 -0.57070E-04
 0.92080002E+02 -0.81856E-04
 0.92129997E+02 -0.85366E-04
 0.92180000E+02 -0.66875E-04
 0.92230003E+02 -0.37471E-04
 0.92279999E+02 -0.26474E-06
 0.92330002E+02  0.43599E-04
 0.92379997E+02  0.84861E-04
 0.92430000E+02  0.10718E-03
 0.92480003E+02  0.10459E-03
 0.92529999E+02  0.83205E-04
 0.92580002E+02  0.44384E-04
 0.92629997E+02 -0.66324E-05
 0.92680000E+02 -0.47222E-04
 0.92730003E+02 -0.59072E-04
 0.92779999E+02 -0.44812E-04
 0.92830002E+02 -0.17673E-04
 0.92879997E+02  0.49289E-05
 0.92930000E+02  0.15099E-04
 0.92980003E+02  0.15520E-04
 0.93029999E+02  0.79418E-05
 0.93080002E+02 -0.59142E-05
 0.93129997E+02 -0.22430E-04
 0.93180000E+02 -0.37932E-04
 0.93230003E+02 -0.48197E-04
 0.93279999E+02 -0.47962E-04
 0.93330002E+02 -0.38399E-04
 0.93379997E+02 -0.21585E-04
 0.93430000E+02  0.66396E-06
 0.93480003E+02  0.16674E-04
 0.93529999E+02  0.21557E-04
 0.93580002E+02  0.19447E-04
 0.93629997E+02  0.94792E-05
 0.93680000E+02 -0.55392E-05
 0.93730003E+02 -0.21137E-04
 0.93779999E+02 -0.29453E-04
 0.93830002E+02 -0.21056E-04
 0.93879997E+02 -0.50738E-06
 0.93930000E+02  0.19449E-04
 0.93980003E+02  0.27609E-04
 0.94029999E+02  0.23472E-04
 0.94080002E+02  0.14678E-04
 0.94129997E+02  0.35122E-05
 0.94180000E+02 -0.12307E-04
 0.94230003E+02 -0.25205E-04
 0.94279999E+02 -0.21788E-04
 0.94330002E+02 -0.28548E-05
 0.94379997E+02  0.22233E-04
 0.94430000E+02  0.42699E-04
 0.94480003E+02  0.51510E-04
 0.94529999E+02  0.48410E-04
 0.94580002E+02  0.31511E-04
 0.94629997E+02  0.88365E-05
 0.94680000E+02 -0.50071E-05
 0.94730003E+02 -0.98156E-05
 0.94779999E+02 -0.98599E-05
 0.94830002E+02 -0.92382E-05
 0.94879997E+02 -0.11295E-04
 0.94930000E+02 -0.72782E-05
 0.94980003E+02  0.49289E-05
 0.95029999E+02  0.14559E-04
 0.95080002E+02  0.17316E-04
 0.95129997E+02  0.11572E-04
 0.95180000E+02 -0.52947E-06
 0.95230003E+02 -0.10980E-04
 0.95279999E+02 -0.19468E-04
 0.95330002E+02 -0.29920E-04
 0.95379997E+02 -0.43136E-04
 0.95430000E+02 -0.56613E-04
 0.95480003E+02 -0.66301E-04
 0.95529999E+02 -0.65644E-04
 0.95580002E+02 -0.49788E-04
 0.95629997E+02 -0.24589E-04
 0.95680000E+02  0.72566E-05
 0.95730003E+02  0.42761E-04
 0.95779999E+02  0.68114E-04
 0.95830002E+02  0.75344E-04
 0.95879997E+02  0.64625E-04
 0.95930000E+02  0.39890E-04
 0.95980003E+02  0.94744E-05
 0.96029999E+02 -0.15167E-04
 0.96080002E+02 -0.26111E-04
 0.96129997E+02 -0.26442E-04
 0.96180000E+02 -0.18390E-04
 0.96230003E+02  0.31292E-06
 0.96279999E+02  0.23590E-04
 0.96330002E+02  0.40088E-04
 0.96379997E+02  0.38545E-04
 0.96430000E+02  0.20453E-04
 0.96480003E+02  0.12717E-05
 0.96529999E+02 -0.10964E-04
 0.96580002E+02 -0.17179E-04
 0.96629997E+02 -0.23332E-04
 0.96680000E+02 -0.29115E-04
 0.96730003E+02 -0.32210E-04
 0.96779999E+02 -0.31280E-04
 0.96830002E+02 -0.18356E-04
 0.96879997E+02 -0.24271E-05
 0.96930000E+02  0.91466E-06
 0.96980003E+02 -0.71240E-05
 0.97029999E+02 -0.15812E-04
 0.97080002E+02 -0.13184E-04
 0.97129997E+02  0.28297E-05
 0.97180000E+02  0.22155E-04
 0.97230003E+02  0.36368E-04
 0.97279999E+02  0.43065E-04
 0.97330002E+02  0.41333E-04
 0.97379997E+02  0.35224E-04
 0.97430000E+02  0.27560E-04
 0.97480003E+02  0.20385E-04
 0.97529999E+02  0.17620E-04
 0.97580002E+02  0.13946E-04
 0.97629997E+02  0.74591E-05
 0.97680000E+02  0.31008E-05
 0.97730003E+02 -0.34019E-06
 0.97779999E+02 -0.12265E-05
 0.97830002E+02  0.32291E-05
 0.97879997E+02  0.69096E-05
 0.97930000E+02  0.88762E-06
 0.97980003E+02 -0.15762E-04
 0.98029999E+02 -0.35809E-04
 0.98080002E+02 -0.51852E-04
 0.98129997E+02 -0.57381E-04
 0.98180000E+02 -0.48581E-04
 0.98230003E+02 -0.32593E-04
 0.98279999E+02 -0.23849E-04
 0.98330002E+02 -0.25260E-04
 0.98379997E+02 -0.29450E-04
 0.98430000E+02 -0.31082E-04
 0.98480003E+02 -0.27802E-04
 0.98529999E+02 -0.23875E-04
 0.98580002E+02 -0.22207E-04
 0.98629997E+02 -0.16225E-04
 0.98680000E+02 -0.28404E-05
 0.98730003E+02  0.13560E-04
 0.98779999E+02  0.29504E-04
 0.98830002E+02  0.41725E-04
 0.98879997E+02  0.45027E-04
 0.98930000E+02  0.38592E-04
 0.98980003E+02  0.30735E-04
 0.99029999E+02  0.30285E-04
 0.99080002E+02  0.38702E-04
 0.99129997E+02  0.49809E-04
 0.99180000E+02  0.58090E-04
 0.99230003E+02  0.62152E-04
 0.99279999E+02  0.59565E-04
 0.99330002E+02  0.49120E-04
 0.99379997E+02  0.32612E-04
 0.99430000E+02  0.15864E-04
 0.99480003E+02  0.14759E-05
 0.99529999E+02 -0.87444E-05
 0.99580002E+02 -0.12318E-04
 0.99629997E+02 -0.14443E-04
 0.99680000E+02 -0.17163E-04
 0.99730003E+02 -0.20519E-04
 0.99779999E+02 -0.31990E-04
 0.99830002E+02 -0.54479E-04
 0.99879997E+02 -0.80207E-04
 0.99930000E+02 -0.10126E-03
 0.99980003E+02 -0.11254E-03
 0.10003000E+03 -0.10971E-03
 0.10008000E+03 -0.87446E-04
 0.10013000E+03 -0.48102E-04
 0.10018000E+03 -0.39133E-05
 0.10023000E+03  0.32030E-04
 0.10028000E+03  0.49008E-04
 0.10033000E+03  0.48958E-04
 0.10038000E+03  0.39279E-04
 0.10043000E+03  0.25480E-04
 0.10048000E+03  0.11401E-04
 0.10053000E+03 -0.41802E-06
 0.10058000E+03 -0.37338E-05
 0.10063000E+03  0.60485E-05
 0.10068000E+03  0.29828E-04
 0.10073000E+03  0.57368E-04
 0.10078000E+03  0.71929E-04
 0.10083000E+03  0.64956E-04
 0.10088000E+03  0.40354E-04
 0.10093000E+03  0.11556E-04
 0.10098000E+03 -0.94758E-05
 0.10103000E+03 -0.15635E-04
 0.10108000E+03 -0.78948E-05
 0.10113000E+03  0.67888E-05
 0.10118000E+03  0.23388E-04
 0.10123000E+03  0.38764E-04
 0.10128000E+03  0.48760E-04
 0.10133000E+03  0.48317E-04
 0.10138000E+03  0.35185E-04
 0.10143000E+03  0.11242E-04
 0.10148000E+03 -0.16846E-04
 0.10153000E+03 -0.38951E-04
 0.10158000E+03 -0.50024E-04
 0.10163000E+03 -0.53381E-04
 0.10168000E+03 -0.53379E-04
 0.10173000E+03 -0.53442E-04
 0.10178000E+03 -0.53707E-04
 0.10183000E+03 -0.51263E-04
 0.10188000E+03 -0.42155E-04
 0.10193000E+03 -0.23227E-04
 0.10198000E+03  0.16532E-05
 0.10203000E+03  0.26813E-04
 0.10208000E+03  0.46245E-04
 0.10213000E+03  0.53077E-04
 0.10218000E+03  0.44872E-04
 0.10223000E+03  0.23231E-04
 0.10228000E+03 -0.64285E-05
 0.10233000E+03 -0.36526E-04
 0.10238000E+03 -0.59194E-04
 0.10243000E+03 -0.67481E-04
 0.10248000E+03 -0.57141E-04
 0.10253000E+03 -0.30420E-04
 0.10258000E+03  0.10950E-05
 0.10263000E+03  0.30085E-04
 0.10268000E+03  0.56149E-04
 0.10273000E+03  0.74305E-04
 0.10278000E+03  0.79394E-04
 0.10283000E+03  0.69753E-04
 0.10288000E+03  0.47862E-04
 0.10293000E+03  0.16873E-04
 0.10298000E+03 -0.17678E-04
 0.10303000E+03 -0.46782E-04
 0.10308000E+03 -0.66682E-04
 0.10313000E+03 -0.72969E-04
 0.10318000E+03 -0.66246E-04
 0.10323000E+03 -0.54664E-04
 0.10328000E+03 -0.39968E-04
 0.10333000E+03 -0.19331E-04
 0.10338000E+03  0.74040E-05
 0.10343000E+03  0.35479E-04
 0.10348000E+03  0.59962E-04
 0.10353000E+03  0.78316E-04
 0.10358000E+03  0.87766E-04
 0.10363000E+03  0.85983E-04
 0.10368000E+03  0.72292E-04
 0.10373000E+03  0.46669E-04
 0.10378000E+03  0.12800E-04
 0.10383000E+03 -0.22369E-04
 0.10388000E+03 -0.50614E-04
 0.10393000E+03 -0.63286E-04
 0.10398000E+03 -0.58611E-04
 0.10403000E+03 -0.40963E-04
 0.10408000E+03 -0.18906E-04
 0.10413000E+03 -0.90705E-06
 0.10418000E+03  0.10805E-04
 0.10423000E+03  0.14693E-04
 0.10428000E+03  0.10166E-04
 0.10433000E+03  0.17388E-05
 0.10438000E+03 -0.96914E-05
 0.10443000E+03 -0.23400E-04
 0.10448000E+03 -0.34132E-04
 0.10453000E+03 -0.37407E-04
 0.10458000E+03 -0.26519E-04
 0.10463000E+03 -0.43669E-05
 0.10468000E+03  0.15366E-04
 0.10473000E+03  0.22415E-04
 0.10478000E+03  0.15217E-04
 0.10483000E+03 -0.10580E-05
 0.10488000E+03 -0.20485E-04
 0.10493000E+03 -0.35757E-04
 0.10498000E+03 -0.43163E-04
 0.10503000E+03 -0.41134E-04
 0.10508000E+03 -0.27737E-04
 0.10513000E+03 -0.59527E-05
 0.10518000E+03  0.18598E-04
 0.10523000E+03  0.41104E-04
 0.10528000E+03  0.58454E-04
 0.10533000E+03  0.65694E-04
 0.10538000E+03  0.59130E-04
 0.10543000E+03  0.44849E-04
 0.10548000E+03  0.29907E-04
 0.10553000E+03  0.14027E-04
 0.10558000E+03 -0.36321E-05
 0.10563000E+03 -0.20529E-04
 0.10568000E+03 -0.28029E-04
 0.10573000E+03 -0.20216E-04
 0.10578000E+03 -0.33010E-05
 0.10583000E+03  0.14300E-04
 0.10588000E+03  0.25630E-04
 0.10593000E+03  0.27569E-04
 0.10598000E+03  0.23551E-04
 0.10603000E+03  0.18029E-04
 0.10608000E+03  0.13364E-04
 0.10613000E+03  0.68119E-05
 0.10618000E+03 -0.66235E-05
 0.10623000E+03 -0.28671E-04
 0.10628000E+03 -0.53455E-04
 0.10633000E+03 -0.70954E-04
 0.10638000E+03 -0.74890E-04
 0.10643000E+03 -0.63556E-04
 0.10648000E+03 -0.41698E-04
 0.10653000E+03 -0.18783E-04
 0.10658000E+03 -0.21205E-05
 0.10663000E+03  0.99768E-05
 0.10668000E+03  0.20268E-04
 0.10673000E+03  0.24815E-04
 0.10678000E+03  0.22774E-04
 0.10683000E+03  0.17460E-04
 0.10688000E+03  0.13373E-04
 0.10693000E+03  0.15916E-04
 0.10698000E+03  0.24180E-04
 0.10703000E+03  0.32200E-04
 0.10708000E+03  0.37877E-04
 0.10713000E+03  0.41610E-04
 0.10718000E+03  0.41255E-04
 0.10723000E+03  0.31434E-04
 0.10728000E+03  0.99418E-05
 0.10733000E+03 -0.17549E-04
 0.10738000E+03 -0.40274E-04
 0.10743000E+03 -0.47724E-04
 0.10748000E+03 -0.39139E-04
 0.10753000E+03 -0.22179E-04
 0.10758000E+03 -0.49164E-05
 0.10763000E+03  0.85859E-05
 0.10768000E+03  0.17662E-04
 0.10773000E+03  0.20091E-04
 0.10778000E+03  0.15357E-04
 0.10783000E+03  0.43695E-05
 0.10788000E+03 -0.12472E-04
 0.10793000E+03 -0.29861E-04
 0.10798000E+03 -0.40210E-04
 0.10803000E+03 -0.40803E-04
 0.10808000E+03 -0.30313E-04
 0.10813000E+03 -0.87469E-05
 0.10818000E+03  0.16454E-04
 0.10823000E+03  0.34279E-04
 0.10828000E+03  0.38104E-04
 0.10833000E+03  0.29412E-04
 0.10838000E+03  0.13530E-04
 0.10843000E+03 -0.20984E-05
 0.10848000E+03 -0.10008E-04
 0.10853000E+03 -0.89299E-05
 0.10858000E+03 -0.31669E-05
 0.10863000E+03  0.27524E-05
 0.10868000E+03  0.80807E-05
 0.10873000E+03  0.12390E-04
 0.10878000E+03  0.14803E-04
 0.10883000E+03  0.13987E-04
 0.10888000E+03  0.83501E-05
 0.10893000E+03  0.37551E-06
 0.10898000E+03 -0.78683E-05
 0.10903000E+03 -0.17288E-04
 0.10908000E+03 -0.26342E-04
 0.10913000E+03 -0.30141E-04
 0.10918000E+03 -0.25976E-04
 0.10923000E+03 -0.18018E-04
 0.10928000E+03 -0.12332E-04
 0.10933000E+03 -0.93840E-05
 0.10938000E+03 -0.63728E-05
 0.10943000E+03 -0.97377E-06
 0.10948000E+03  0.79685E-05
 0.10953000E+03  0.18540E-04
 0.10958000E+03  0.26462E-04
 0.10963000E+03  0.28091E-04
 0.10968000E+03  0.22385E-04
 0.10973000E+03  0.12692E-04
 0.10978000E+03  0.32770E-05
 0.10983000E+03 -0.50141E-05
 0.10988000E+03 -0.10310E-04
 0.10993000E+03 -0.11510E-04
 0.10998000E+03 -0.97870E-05
 0.11003000E+03 -0.49396E-05
 0.11008000E+03  0.38057E-05
 0.11013000E+03  0.16290E-04
 0.11018000E+03  0.27929E-04
 0.11023000E+03  0.33528E-04
 0.11028000E+03  0.30799E-04
 0.11033000E+03  0.19580E-04
 0.11038000E+03  0.26366E-05
 0.11043000E+03 -0.14535E-04
 0.11048000E+03 -0.26087E-04
 0.11053000E+03 -0.29946E-04
 0.11058000E+03 -0.28183E-04
 0.11063000E+03 -0.22859E-04
 0.11068000E+03 -0.13327E-04
 0.11073000E+03 -0.15908E-05
 0.11078000E+03  0.91852E-05
 0.11083000E+03  0.17751E-04
 0.11088000E+03  0.21741E-04
 0.11093000E+03  0.18067E-04
 0.11098000E+03  0.71466E-05
 0.11103000E+03 -0.18527E-05
 0.11108000E+03 -0.34168E-05
 0.11113000E+03 -0.31729E-05
 0.11118000E+03 -0.56609E-05
 0.11123000E+03 -0.10055E-04
 0.11128000E+03 -0.12134E-04
 0.11133000E+03 -0.95468E-05
 0.11138000E+03 -0.53880E-05
 0.11143000E+03 -0.33482E-05
 0.11148000E+03 -0.63056E-05
 0.11153000E+03 -0.14411E-04
 0.11158000E+03 -0.23482E-04
 0.11163000E+03 -0.30920E-04
 0.11168000E+03 -0.33428E-04
 0.11173000E+03 -0.26764E-04
 0.11178000E+03 -0.12605E-04
 0.11183000E+03  0.50451E-05
 0.11188000E+03  0.23414E-04
 0.11193000E+03  0.38560E-04
 0.11198000E+03  0.46045E-04
 0.11203000E+03  0.43743E-04
 0.11208000E+03  0.33077E-04
 0.11213000E+03  0.18435E-04
 0.11218000E+03  0.44524E-05
 0.11223000E+03 -0.56173E-05
 0.11228000E+03 -0.12157E-04
 0.11233000E+03 -0.17699E-04
 0.11238000E+03 -0.23630E-04
 0.11243000E+03 -0.28057E-04
 0.11248000E+03 -0.24441E-04
 0.11253000E+03 -0.12392E-04
 0.11258000E+03  0.17002E-05
 0.11263000E+03  0.13764E-04
 0.11268000E+03  0.20721E-04
 0.11273000E+03  0.21422E-04
 0.11278000E+03  0.18158E-04
 0.11283000E+03  0.13114E-04
 0.11288000E+03  0.66138E-05
 0.11293000E+03  0.95546E-06
 0.11298000E+03 -0.23727E-05
 0.11303000E+03 -0.64197E-05
 0.11308000E+03 -0.12661E-04
 0.11313000E+03 -0.18544E-04
 0.11318000E+03 -0.20148E-04
 0.11323000E+03 -0.15590E-04
 0.11328000E+03 -0.75329E-05
 0.11333000E+03  0.98713E-06
 0.11338000E+03  0.97282E-05
 0.11343000E+03  0.16920E-04
 0.11348000E+03  0.21673E-04
 0.11353000E+03  0.24117E-04
 0.11358000E+03  0.22495E-04
 0.11363000E+03  0.19979E-04
 0.11368000E+03  0.18648E-04
 0.11373000E+03  0.13966E-04
 0.11378000E+03  0.46608E-05
 0.11383000E+03 -0.72844E-05
 0.11388000E+03 -0.18784E-04
 0.11393000E+03 -0.25398E-04
 0.11398000E+03 -0.26135E-04
 0.11403000E+03 -0.23049E-04
 0.11408000E+03 -0.18506E-04
 0.11413000E+03 -0.13734E-04
 0.11418000E+03 -0.75105E-05
 0.11423000E+03  0.44316E-06
 0.11428000E+03  0.71388E-05
 0.11433000E+03  0.10466E-04
 0.11438000E+03  0.98887E-05
 0.11443000E+03  0.52312E-05
 0.11448000E+03 -0.34500E-05
 0.11453000E+03 -0.15692E-04
 0.11458000E+03 -0.26868E-04
 0.11463000E+03 -0.33233E-04
 0.11468000E+03 -0.34000E-04
 0.11473000E+03 -0.25524E-04
 0.11478000E+03 -0.80796E-05
 0.11483000E+03  0.12122E-04
 0.11488000E+03  0.29778E-04
 0.11493000E+03  0.40648E-04
 0.11498000E+03  0.43476E-04
 0.11503000E+03  0.41195E-04
 0.11508000E+03  0.36134E-04
 0.11513000E+03  0.28642E-04
 0.11518000E+03  0.18949E-04
 0.11523000E+03  0.80765E-05
 0.11528000E+03 -0.12044E-05
 0.11533000E+03 -0.48122E-05
 0.11538000E+03 -0.32637E-05
 0.11543000E+03 -0.12363E-05
 0.11548000E+03 -0.11828E-05
 0.11553000E+03 -0.37328E-05
 0.11558000E+03 -0.60587E-05
 0.11563000E+03 -0.68705E-05
 0.11568000E+03 -0.10349E-04
 0.11573000E+03 -0.18336E-04
 0.11578000E+03 -0.29950E-04
 0.11583000E+03 -0.41889E-04
 0.11588000E+03 -0.48366E-04
 0.11593000E+03 -0.45341E-04
 0.11598000E+03 -0.34316E-04
 0.11603000E+03 -0.20716E-04
 0.11608000E+03 -0.61821E-05
 0.11613000E+03  0.97399E-05
 0.11618000E+03  0.25497E-04
 0.11623000E+03  0.38327E-04
 0.11628000E+03  0.44284E-04
 0.11633000E+03  0.42880E-04
 0.11638000E+03  0.39059E-04
 0.11643000E+03  0.35784E-04
 0.11648000E+03  0.32541E-04
 0.11653000E+03  0.28600E-04
 0.11658000E+03  0.20436E-04
 0.11663000E+03  0.46990E-05
 0.11668000E+03 -0.15682E-04
 0.11673000E+03 -0.33180E-04
 0.11678000E+03 -0.43555E-04
 0.11683000E+03 -0.47131E-04
 0.11688000E+03 -0.43429E-04
 0.11693000E+03 -0.33674E-04
 0.11698000E+03 -0.19655E-04
 0.11703000E+03 -0.75730E-06
 0.11708000E+03  0.19902E-04
 0.11713000E+03  0.34598E-04
 0.11718000E+03  0.36721E-04
 0.11723000E+03  0.25833E-04
 0.11728000E+03  0.76433E-05
 0.11733000E+03 -0.92749E-05
 0.11738000E+03 -0.18061E-04
 0.11743000E+03 -0.18915E-04
 0.11748000E+03 -0.15523E-04
 0.11753000E+03 -0.10616E-04
 0.11758000E+03 -0.55665E-05
 0.11763000E+03  0.33512E-06
 0.11768000E+03  0.79870E-05
 0.11773000E+03  0.15692E-04
 0.11778000E+03  0.19945E-04
 0.11783000E+03  0.19330E-04
 0.11788000E+03  0.15252E-04
 0.11793000E+03  0.81549E-05
 0.11798000E+03 -0.22094E-05
 0.11803000E+03 -0.13027E-04
 0.11808000E+03 -0.21332E-04
 0.11813000E+03 -0.25624E-04
 0.11818000E+03 -0.24268E-04
 0.11823000E+03 -0.15460E-04
 0.11828000E+03 -0.17973E-05
 0.11833000E+03  0.88762E-05
 0.11838000E+03  0.13363E-04
 0.11843000E+03  0.13472E-04
 0.11848000E+03  0.12009E-04
 0.11853000E+03  0.95649E-05
 0.11858000E+03  0.52063E-05
 0.11863000E+03  0.79573E-06
 0.11868000E+03 -0.21732E-05
 0.11873000E+03 -0.14608E-05
 0.11878000E+03  0.45967E-05
 0.11883000E+03  0.13143E-04
 0.11888000E+03  0.19251E-04
 0.11893000E+03  0.20211E-04
 0.11898000E+03  0.16760E-04
 0.11903000E+03  0.11304E-04
 0.11908000E+03  0.63971E-05
 0.11913000E+03  0.27245E-05
 0.11918000E+03  0.14561E-05
 0.11923000E+03  0.28703E-05
 0.11928000E+03  0.22573E-05
 0.11933000E+03 -0.45557E-05
 0.11938000E+03 -0.16421E-04
 0.11943000E+03 -0.29975E-04
 0.11948000E+03 -0.43084E-04
 0.11953000E+03 -0.54191E-04
 0.11958000E+03 -0.59319E-04
 0.11963000E+03 -0.53716E-04
 0.11968000E+03 -0.37160E-04
 0.11973000E+03 -0.13495E-04
 0.11978000E+03  0.11034E-04
 0.11983000E+03  0.30590E-04
 0.11988000E+03  0.44403E-04
 0.11993000E+03  0.54663E-04
 0.11998000E+03  0.61969E-04
 0.12003000E+03  0.62755E-04
 0.12008000E+03  0.53950E-04
 0.12013000E+03  0.37074E-04
 0.12018000E+03  0.14246E-04
 0.12023000E+03 -0.10045E-04
 0.12028000E+03 -0.30189E-04
 0.12033000E+03 -0.44688E-04
 0.12038000E+03 -0.52608E-04
 0.12043000E+03 -0.52844E-04
 0.12048000E+03 -0.45280E-04
 0.12053000E+03 -0.29837E-04
 0.12058000E+03 -0.95478E-05
 0.12063000E+03  0.10399E-04
 0.12068000E+03  0.25012E-04
 0.12073000E+03  0.31854E-04
 0.12078000E+03  0.33590E-04
 0.12083000E+03  0.32835E-04
 0.12088000E+03  0.29743E-04
 0.12093000E+03  0.22586E-04
 0.12098000E+03  0.11114E-04
 0.12103000E+03 -0.75446E-06
 0.12108000E+03 -0.95276E-05
 0.12113000E+03 -0.13661E-04
 0.12118000E+03 -0.16144E-04
 0.12123000E+03 -0.19989E-04
 0.12128000E+03 -0.23593E-04
 0.12133000E+03 -0.26995E-04
 0.12138000E+03 -0.29333E-04
 0.12143000E+03 -0.27617E-04
 0.12148000E+03 -0.20173E-04
 0.12153000E+03 -0.79437E-05
 0.12158000E+03  0.52529E-05
 0.12163000E+03  0.17465E-04
 0.12168000E+03  0.29818E-04
 0.12173000E+03  0.41221E-04
 0.12178000E+03  0.46534E-04
 0.12183000E+03  0.43359E-04
 0.12188000E+03  0.33697E-04
 0.12193000E+03  0.19891E-04
 0.12198000E+03  0.52498E-05
 0.12203000E+03 -0.67071E-05
 0.12208000E+03 -0.14258E-04
 0.12213000E+03 -0.18231E-04
 0.12218000E+03 -0.21166E-04
 0.12223000E+03 -0.22581E-04
 0.12228000E+03 -0.21858E-04
 0.12233000E+03 -0.23102E-04
 0.12238000E+03 -0.27393E-04
 0.12243000E+03 -0.32163E-04
 0.12248000E+03 -0.35025E-04
 0.12253000E+03 -0.33230E-04
 0.12258000E+03 -0.26333E-04
 0.12263000E+03 -0.14679E-04
 0.12268000E+03 -0.33876E-06
 0.12273000E+03  0.12885E-04
 0.12278000E+03  0.20995E-04
 0.12283000E+03  0.22022E-04
 0.12288000E+03  0.19892E-04
 0.12293000E+03  0.18645E-04
 0.12298000E+03  0.20525E-04
 0.12303000E+03  0.25169E-04
 0.12308000E+03  0.29497E-04
 0.12313000E+03  0.33256E-04
 0.12318000E+03  0.35855E-04
 0.12323000E+03  0.34412E-04
 0.12328000E+03  0.26917E-04
 0.12333000E+03  0.13516E-04
 0.12338000E+03 -0.34416E-05
 0.12343000E+03 -0.21073E-04
 0.12348000E+03 -0.35240E-04
 0.12353000E+03 -0.40748E-04
 0.12358000E+03 -0.36020E-04
 0.12363000E+03 -0.23951E-04
 0.12368000E+03 -0.87891E-05
 0.12373000E+03  0.48917E-05
 0.12378000E+03  0.14026E-04
 0.12383000E+03  0.18742E-04
 0.12388000E+03  0.20909E-04
 0.12393000E+03  0.21319E-04
 0.12398000E+03  0.18473E-04
 0.12403000E+03  0.10969E-04
 0.12408000E+03  0.66450E-06
 0.12413000E+03 -0.85458E-05
 0.12418000E+03 -0.15992E-04
 0.12423000E+03 -0.22306E-04
 0.12428000E+03 -0.25739E-04
 0.12433000E+03 -0.25834E-04
 0.12438000E+03 -0.23275E-04
 0.12443000E+03 -0.18847E-04
 0.12448000E+03 -0.13445E-04
 0.12453000E+03 -0.63545E-05
 0.12458000E+03  0.19410E-05
 0.12463000E+03  0.93207E-05
 0.12468000E+03  0.15059E-04
 0.12473000E+03  0.18443E-04
 0.12478000E+03  0.18737E-04
 0.12483000E+03  0.16931E-04
 0.12488000E+03  0.13666E-04
 0.12493000E+03  0.93430E-05
 0.12498000E+03  0.45304E-05
 0.12503000E+03 -0.11608E-06
 0.12508000E+03 -0.37301E-05
 0.12513000E+03 -0.70689E-05
 0.12518000E+03 -0.95431E-05
 0.12523000E+03 -0.96079E-05
 0.12528000E+03 -0.75862E-05
 0.12533000E+03 -0.42400E-05
 0.12538000E+03 -0.12048E-05
 0.12543000E+03 -0.10810E-05
 0.12548000E+03 -0.44622E-05
 0.12553000E+03 -0.87008E-05
 0.12558000E+03 -0.11795E-04
 0.12563000E+03 -0.13718E-04
 0.12568000E+03 -0.15335E-04
 0.12573000E+03 -0.16810E-04
 0.12578000E+03 -0.16146E-04
 0.12583000E+03 -0.11255E-04
 0.12588000E+03 -0.14168E-05
 0.12593000E+03  0.11263E-04
 0.12598000E+03  0.22839E-04
 0.12603000E+03  0.29349E-04
 0.12608000E+03  0.28736E-04
 0.12613000E+03  0.23205E-04
 0.12618000E+03  0.16023E-04
 0.12623000E+03  0.10240E-04
 0.12628000E+03  0.89676E-05
 0.12633000E+03  0.12910E-04
 0.12638000E+03  0.19426E-04
 0.12643000E+03  0.24528E-04
 0.12648000E+03  0.26314E-04
 0.12653000E+03  0.23379E-04
 0.12658000E+03  0.13359E-04
 0.12663000E+03 -0.16122E-05
 0.12668000E+03 -0.15551E-04
 0.12673000E+03 -0.25420E-04
 0.12678000E+03 -0.30228E-04
 0.12683000E+03 -0.29307E-04
 0.12688000E+03 -0.23778E-04
 0.12693000E+03 -0.16841E-04
 0.12698000E+03 -0.11899E-04
 0.12703000E+03 -0.11028E-04
 0.12708000E+03 -0.15874E-04
 0.12713000E+03 -0.25719E-04
 0.12718000E+03 -0.36580E-04
 0.12723000E+03 -0.42344E-04
 0.12728000E+03 -0.39132E-04
 0.12733000E+03 -0.29232E-04
 0.12738000E+03 -0.17173E-04
 0.12743000E+03 -0.55906E-05
 0.12748000E+03  0.46404E-05
 0.12753000E+03  0.12650E-04
 0.12758000E+03  0.18065E-04
 0.12763000E+03  0.20888E-04
 0.12768000E+03  0.20912E-04
 0.12773000E+03  0.18476E-04
 0.12778000E+03  0.17017E-04
 0.12783000E+03  0.21207E-04
 0.12788000E+03  0.30344E-04
 0.12793000E+03  0.40153E-04
 0.12798000E+03  0.45453E-04
 0.12803000E+03  0.42395E-04
 0.12808000E+03  0.32667E-04
 0.12813000E+03  0.21565E-04
 0.12818001E+03  0.13453E-04
 0.12823000E+03  0.90820E-05
 0.12828000E+03  0.72008E-05
 0.12833000E+03  0.65658E-05
 0.12838000E+03  0.64415E-05
 0.12843001E+03  0.57595E-05
 0.12848000E+03  0.30586E-05
 0.12853000E+03 -0.11388E-05
 0.12858000E+03 -0.62131E-05
 0.12863000E+03 -0.12637E-04
 0.12868001E+03 -0.19254E-04
 0.12873000E+03 -0.23606E-04
 0.12878000E+03 -0.24997E-04
 0.12883000E+03 -0.24845E-04
 0.12888000E+03 -0.23606E-04
 0.12893001E+03 -0.21994E-04
 0.12898000E+03 -0.22997E-04
 0.12903000E+03 -0.26803E-04
 0.12908000E+03 -0.29262E-04
 0.12913000E+03 -0.26767E-04
 0.12918001E+03 -0.19237E-04
 0.12923000E+03 -0.87870E-05
 0.12928000E+03  0.24236E-05
 0.12933000E+03  0.12879E-04
 0.12938000E+03  0.21615E-04
 0.12943001E+03  0.27225E-04
 0.12948000E+03  0.27970E-04
 0.12953000E+03  0.23077E-04
 0.12958000E+03  0.14537E-04
 0.12963000E+03  0.46047E-05
 0.12968001E+03 -0.56903E-05
 0.12973000E+03 -0.14542E-04
 0.12978000E+03 -0.21867E-04
 0.12983000E+03 -0.27207E-04
 0.12988000E+03 -0.27589E-04
 0.12993001E+03 -0.22106E-04
 0.12998000E+03 -0.12924E-04
 0.13003000E+03 -0.30151E-05
 0.13008000E+03  0.60740E-05
 0.13013000E+03  0.13825E-04
 0.13018001E+03  0.20360E-04
 0.13023000E+03  0.26303E-04
 0.13028000E+03  0.29893E-04
 0.13033000E+03  0.28540E-04
 0.13038000E+03  0.22302E-04
 0.13043001E+03  0.13515E-04
 0.13048000E+03  0.53828E-05
 0.13053000E+03 -0.13021E-06
 0.13058000E+03 -0.35014E-05
 0.13063000E+03 -0.56139E-05
 0.13068001E+03 -0.65292E-05
 0.13073000E+03 -0.73723E-05
 0.13078000E+03 -0.99455E-05
 0.13083000E+03 -0.13931E-04
 0.13088000E+03 -0.17939E-04
 0.13093001E+03 -0.20838E-04
 0.13098000E+03 -0.20915E-04
 0.13103000E+03 -0.18242E-04
 0.13108000E+03 -0.13887E-04
 0.13113000E+03 -0.65408E-05
 0.13118001E+03  0.33730E-05
 0.13123000E+03  0.12507E-04
 0.13128000E+03  0.18330E-04
 0.13133000E+03  0.19374E-04
 0.13138000E+03  0.15957E-04
 0.13143001E+03  0.10429E-04
 0.13148000E+03  0.59507E-05
 0.13153000E+03  0.41671E-05
 0.13158000E+03  0.44159E-05
 0.13163000E+03  0.55222E-05
 0.13168001E+03  0.72696E-05
 0.13173000E+03  0.11119E-04
 0.13178000E+03  0.17312E-04
 0.13183000E+03  0.23250E-04
 0.13188000E+03  0.25971E-04
 0.13193001E+03  0.24472E-04
 0.13198000E+03  0.20173E-04
 0.13203000E+03  0.14893E-04
 0.13208000E+03  0.91346E-05
 0.13213000E+03  0.21767E-05
 0.13218001E+03 -0.62270E-05
 0.13223000E+03 -0.14895E-04
 0.13228000E+03 -0.22563E-04
 0.13233000E+03 -0.28813E-04
 0.13238000E+03 -0.33283E-04
 0.13243001E+03 -0.35681E-04
 0.13248000E+03 -0.36421E-04
 0.13253000E+03 -0.35237E-04
 0.13258000E+03 -0.31762E-04
 0.13263000E+03 -0.26849E-04
 0.13268001E+03 -0.21462E-04
 0.13273000E+03 -0.16176E-04
 0.13278000E+03 -0.10541E-04
 0.13283000E+03 -0.44476E-05
 0.13288000E+03  0.21121E-05
 0.13293001E+03  0.10642E-04
 0.13298000E+03  0.20030E-04
 0.13303000E+03  0.27217E-04
 0.13308000E+03  0.32250E-04
 0.13313000E+03  0.35288E-04
 0.13318001E+03  0.33969E-04
 0.13323000E+03  0.27862E-04
 0.13328000E+03  0.19109E-04
 0.13333000E+03  0.10645E-04
 0.13338000E+03  0.60980E-05
 0.13343001E+03  0.67256E-05
 0.13348000E+03  0.97728E-05
 0.13353000E+03  0.11275E-04
 0.13358000E+03  0.96567E-05
 0.13363000E+03  0.55097E-05
 0.13368001E+03  0.18539E-06
 0.13373000E+03 -0.57796E-05
 0.13378000E+03 -0.13278E-04
 0.13383000E+03 -0.21650E-04
 0.13388000E+03 -0.29191E-04
 0.13393001E+03 -0.34974E-04
 0.13398000E+03 -0.37012E-04
 0.13403000E+03 -0.32790E-04
 0.13408000E+03 -0.22486E-04
 0.13413000E+03 -0.90197E-05
 0.13418001E+03  0.35166E-05
 0.13423000E+03  0.11660E-04
 0.13428000E+03  0.13562E-04
 0.13433000E+03  0.94514E-05
 0.13438000E+03  0.29008E-05
 0.13443001E+03 -0.17245E-05
 0.13448000E+03 -0.27938E-05
 0.13453000E+03 -0.61081E-06
 0.13458000E+03  0.34840E-05
 0.13463000E+03  0.81763E-05
 0.13468001E+03  0.13113E-04
 0.13473000E+03  0.17120E-04
 0.13478000E+03  0.18901E-04
 0.13483000E+03  0.17848E-04
 0.13488000E+03  0.14051E-04
 0.13493001E+03  0.76593E-05
 0.13498000E+03 -0.13352E-05
 0.13503000E+03 -0.98330E-05
 0.13508000E+03 -0.13469E-04
 0.13513000E+03 -0.10985E-04
 0.13518001E+03 -0.41520E-05
 0.13523000E+03  0.39448E-05
 0.13528000E+03  0.11037E-04
 0.13533000E+03  0.16161E-04
 0.13538000E+03  0.17892E-04
 0.13543001E+03  0.15331E-04
 0.13548000E+03  0.90805E-05
 0.13553000E+03  0.38625E-06
 0.13558000E+03 -0.82603E-05
 0.13563000E+03 -0.14968E-04
 0.13568001E+03 -0.19020E-04
 0.13573000E+03 -0.19652E-04
 0.13578000E+03 -0.18086E-04
 0.13583000E+03 -0.16992E-04
 0.13588000E+03 -0.16480E-04
 0.13593001E+03 -0.13645E-04
 0.13598000E+03 -0.78851E-05
 0.13603000E+03 -0.18839E-05
 0.13608000E+03  0.24854E-05
 0.13613000E+03  0.44726E-05
 0.13618001E+03  0.51256E-05
 0.13623000E+03  0.61999E-05
 0.13628000E+03  0.79267E-05
 0.13633000E+03  0.10129E-04
 0.13638000E+03  0.12469E-04
 0.13643001E+03  0.14672E-04
 0.13648000E+03  0.15790E-04
 0.13653000E+03  0.13826E-04
 0.13658000E+03  0.78798E-05
 0.13663000E+03 -0.13187E-05
 0.13668001E+03 -0.11631E-04
 0.13673000E+03 -0.19139E-04
 0.13678000E+03 -0.19957E-04
 0.13683000E+03 -0.14136E-04
 0.13688000E+03 -0.46837E-05
 0.13693001E+03  0.60816E-05
 0.13698000E+03  0.16262E-04
 0.13703000E+03  0.24692E-04
 0.13708000E+03  0.30873E-04
 0.13713000E+03  0.33268E-04
 0.13718001E+03  0.30347E-04
 0.13723000E+03  0.23409E-04
 0.13728000E+03  0.15157E-04
 0.13733000E+03  0.62554E-05
 0.13738000E+03 -0.31937E-05
 0.13743001E+03 -0.13099E-04
 0.13748000E+03 -0.24152E-04
 0.13753000E+03 -0.35672E-04
 0.13758000E+03 -0.45529E-04
 0.13763000E+03 -0.51386E-04
 0.13768001E+03 -0.51297E-04
 0.13773000E+03 -0.45233E-04
 0.13778000E+03 -0.34984E-04
 0.13783000E+03 -0.22164E-04
 0.13788000E+03 -0.93134E-05
 0.13793001E+03  0.38243E-06
 0.13798000E+03  0.54030E-05
 0.13803000E+03  0.54905E-05
 0.13808000E+03  0.23770E-05
 0.13813000E+03 -0.51201E-06
 0.13818001E+03 -0.31693E-06
 0.13823000E+03  0.26179E-05
 0.13828000E+03  0.63163E-05
 0.13833000E+03  0.10984E-04
 0.13838000E+03  0.17567E-04
 0.13843001E+03  0.26065E-04
 0.13848000E+03  0.34173E-04
 0.13853000E+03  0.39263E-04
 0.13858000E+03  0.41051E-04
 0.13863000E+03  0.40181E-04
 0.13868001E+03  0.38143E-04
 0.13873000E+03  0.35496E-04
 0.13878000E+03  0.31445E-04
 0.13883000E+03  0.25862E-04
 0.13888000E+03  0.19675E-04
 0.13893001E+03  0.13488E-04
 0.13898000E+03  0.65241E-05
 0.13903000E+03 -0.79114E-06
 0.13908000E+03 -0.76040E-05
 0.13913000E+03 -0.14125E-04
 0.13918001E+03 -0.19975E-04
 0.13923000E+03 -0.24937E-04
 0.13928000E+03 -0.29048E-04
 0.13933000E+03 -0.32749E-04
 0.13938000E+03 -0.35997E-04
 0.13943001E+03 -0.37340E-04
 0.13948000E+03 -0.34767E-04
 0.13953000E+03 -0.26964E-04
 0.13958000E+03 -0.15688E-04
 0.13963000E+03 -0.39669E-05
 0.13968001E+03  0.51746E-05
 0.13973000E+03  0.96121E-05
 0.13978000E+03  0.91760E-05
 0.13983000E+03  0.59886E-05
 0.13988000E+03  0.31032E-05
 0.13993001E+03  0.70207E-06
 0.13998000E+03 -0.10748E-05
 0.14003000E+03 -0.12795E-05
 0.14008000E+03 -0.43712E-06
 0.14013000E+03  0.48916E-06
 0.14018001E+03  0.10481E-05
 0.14023000E+03  0.10906E-05
 0.14028000E+03 -0.24835E-06
 0.14033000E+03 -0.37611E-05
 0.14038000E+03 -0.90882E-05
 0.14043001E+03 -0.14968E-04
 0.14048000E+03 -0.19496E-04
 0.14053000E+03 -0.20263E-04
 0.14058000E+03 -0.14934E-04
 0.14063000E+03 -0.49701E-05
 0.14068001E+03  0.56151E-05
 0.14073000E+03  0.15503E-04
 0.14078000E+03  0.23958E-04
 0.14083000E+03  0.29702E-04
 0.14088000E+03  0.31426E-04
 0.14093001E+03  0.28448E-04
 0.14098000E+03  0.22146E-04
 0.14103000E+03  0.14797E-04
 0.14108000E+03  0.87549E-05
 0.14113000E+03  0.53087E-05
 0.14118001E+03  0.40940E-05
 0.14123000E+03  0.41140E-05
 0.14128000E+03  0.36969E-05
 0.14133000E+03  0.13694E-05
 0.14138000E+03 -0.21760E-05
 0.14143001E+03 -0.59789E-05
 0.14148000E+03 -0.97560E-05
 0.14153000E+03 -0.13371E-04
 0.14158000E+03 -0.16266E-04
 0.14163000E+03 -0.17398E-04
 0.14168001E+03 -0.17686E-04
 0.14173000E+03 -0.18240E-04
 0.14178000E+03 -0.19747E-04
 0.14183000E+03 -0.22908E-04
 0.14188000E+03 -0.25579E-04
 0.14193001E+03 -0.24651E-04
 0.14198000E+03 -0.18219E-04
 0.14203000E+03 -0.61338E-05
 0.14208000E+03  0.84797E-05
 0.14213000E+03  0.21190E-04
 0.14218001E+03  0.29352E-04
 0.14223000E+03  0.32993E-04
 0.14228000E+03  0.33143E-04
 0.14233000E+03  0.30167E-04
 0.14238000E+03  0.23808E-04
 0.14243001E+03  0.14709E-04
 0.14248000E+03  0.48099E-05
 0.14253000E+03 -0.36421E-05
 0.14258000E+03 -0.80033E-05
 0.14263000E+03 -0.70150E-05
 0.14268001E+03 -0.19810E-05
 0.14273000E+03  0.37196E-05
 0.14278000E+03  0.76073E-05
 0.14283000E+03  0.10160E-04
 0.14288000E+03  0.12568E-04
 0.14293001E+03  0.15213E-04
 0.14298000E+03  0.16886E-04
 0.14303000E+03  0.16880E-04
 0.14308000E+03  0.15066E-04
 0.14313000E+03  0.10862E-04
 0.14318001E+03  0.54776E-05
 0.14323000E+03  0.30074E-06
 0.14328000E+03 -0.53063E-05
 0.14333000E+03 -0.12140E-04
 0.14338000E+03 -0.19754E-04
 0.14343001E+03 -0.27254E-04
 0.14348000E+03 -0.32514E-04
 0.14353000E+03 -0.33189E-04
 0.14358000E+03 -0.30129E-04
 0.14363000E+03 -0.25790E-04
 0.14368001E+03 -0.21774E-04
 0.14373000E+03 -0.18056E-04
 0.14378000E+03 -0.13620E-04
 0.14383000E+03 -0.84305E-05
 0.14388000E+03 -0.32447E-05
 0.14393001E+03  0.84905E-06
 0.14398000E+03  0.26684E-05
 0.14403000E+03  0.18187E-05
 0.14408000E+03 -0.17478E-06
 0.14413000E+03 -0.20807E-05
 0.14418001E+03 -0.35077E-05
 0.14423000E+03 -0.37461E-05
 0.14428000E+03 -0.34150E-05
 0.14433000E+03 -0.27786E-05
 0.14438000E+03 -0.15230E-05
 0.14443001E+03 -0.85792E-06
 0.14448000E+03 -0.24595E-05
 0.14453000E+03 -0.54065E-05
 0.14458000E+03 -0.72621E-05
 0.14463000E+03 -0.70923E-05
 0.14468001E+03 -0.48350E-05
 0.14473000E+03 -0.51338E-06
 0.14478000E+03  0.63278E-05
 0.14483000E+03  0.14520E-04
 0.14488000E+03  0.21972E-04
 0.14493001E+03  0.27638E-04
 0.14498000E+03  0.29460E-04
 0.14503000E+03  0.27661E-04
 0.14508000E+03  0.24054E-04
 0.14513000E+03  0.19359E-04
 0.14518001E+03  0.16263E-04
 0.14523000E+03  0.15882E-04
 0.14528000E+03  0.16702E-04
 0.14533000E+03  0.17717E-04
 0.14538000E+03  0.18574E-04
 0.14543001E+03  0.18995E-04
 0.14548000E+03  0.17437E-04
 0.14553000E+03  0.13899E-04
 0.14558000E+03  0.95784E-05
 0.14563000E+03  0.43758E-05
 0.14568001E+03 -0.70263E-06
 0.14573000E+03 -0.43733E-05
 0.14578000E+03 -0.71384E-05
 0.14583000E+03 -0.10454E-04
 0.14588000E+03 -0.15327E-04
 0.14593001E+03 -0.20951E-04
 0.14598000E+03 -0.25836E-04
 0.14603000E+03 -0.28494E-04
 0.14608000E+03 -0.28042E-04
 0.14613000E+03 -0.25482E-04
 0.14618001E+03 -0.21164E-04
 0.14623000E+03 -0.15854E-04
 0.14628000E+03 -0.10958E-04
 0.14633000E+03 -0.63270E-05
 0.14638000E+03 -0.28208E-05
 0.14643001E+03 -0.17395E-05
 0.14648000E+03 -0.35773E-05
 0.14653000E+03 -0.75927E-05
 0.14658000E+03 -0.11762E-04
 0.14663000E+03 -0.14912E-04
 0.14668001E+03 -0.16957E-04
 0.14673000E+03 -0.17785E-04
 0.14678000E+03 -0.16337E-04
 0.14683000E+03 -0.12397E-04
 0.14688000E+03 -0.70502E-05
 0.14693001E+03 -0.44601E-06
 0.14698000E+03  0.77141E-05
 0.14703000E+03  0.16288E-04
 0.14708000E+03  0.23277E-04
 0.14713000E+03  0.27755E-04
 0.14718001E+03  0.28931E-04
 0.14723000E+03  0.26498E-04
 0.14728000E+03  0.22343E-04
 0.14733000E+03  0.17101E-04
 0.14738000E+03  0.95369E-05
 0.14743001E+03  0.13830E-05
 0.14748000E+03 -0.45482E-05
 0.14753000E+03 -0.78177E-05
 0.14758000E+03 -0.81732E-05
 0.14763000E+03 -0.58255E-05
 0.14768001E+03 -0.16839E-05
 0.14773000E+03  0.36344E-05
 0.14778000E+03  0.88628E-05
 0.14783000E+03  0.12977E-04
 0.14788000E+03  0.15307E-04
 0.14793001E+03  0.15033E-04
 0.14798000E+03  0.12283E-04
 0.14803000E+03  0.75447E-05
 0.14808000E+03  0.14838E-05
 0.14813000E+03 -0.44341E-05
 0.14818001E+03 -0.88827E-05
 0.14823000E+03 -0.11605E-04
 0.14828000E+03 -0.12958E-04
 0.14833000E+03 -0.12885E-04
 0.14838000E+03 -0.11515E-04
 0.14843001E+03 -0.92371E-05
 0.14848000E+03 -0.59219E-05
 0.14853000E+03 -0.16736E-05
 0.14858000E+03  0.29685E-05
 0.14863000E+03  0.73127E-05
 0.14868001E+03  0.10174E-04
 0.14873000E+03  0.10336E-04
 0.14878000E+03  0.75510E-05
 0.14883000E+03  0.30477E-05
 0.14888000E+03 -0.13345E-05
 0.14893001E+03 -0.45930E-05
 0.14898000E+03 -0.72010E-05
 0.14903000E+03 -0.10169E-04
 0.14908000E+03 -0.13268E-04
 0.14913000E+03 -0.14795E-04
 0.14918001E+03 -0.13905E-04
 0.14923000E+03 -0.11207E-04
 0.14928000E+03 -0.73024E-05
 0.14933000E+03 -0.38781E-05
 0.14938000E+03 -0.19387E-05
 0.14943001E+03 -0.94462E-06
 0.14948000E+03 -0.44893E-06
 0.14953000E+03 -0.19310E-07
 0.14958000E+03  0.68686E-06
 0.14963000E+03  0.16208E-05
 0.14968001E+03  0.20813E-05
 0.14973000E+03  0.28444E-05
 0.14978000E+03  0.43542E-05
 0.14983000E+03  0.63883E-05
 0.14988000E+03  0.91636E-05
 0.14993001E+03  0.11607E-04
 0.14998000E+03  0.13070E-04
