-0.19989014E-01  0.31754E-05
 0.30010987E-01  0.12153E-05
 0.80010988E-01  0.92023E-06
 0.13001099E+00  0.60764E-06
 0.18001099E+00 -0.40037E-06
 0.23001099E+00 -0.18033E-05
 0.28001100E+00 -0.20539E-05
 0.33001098E+00 -0.13921E-05
 0.38001099E+00 -0.94001E-06
 0.43001100E+00 -0.10003E-05
 0.48001099E+00 -0.19510E-05
 0.53001100E+00 -0.15428E-05
 0.58001101E+00  0.86043E-07
 0.63001102E+00  0.64298E-06
 0.68001097E+00  0.78027E-06
 0.73001099E+00  0.83395E-06
 0.78001100E+00  0.26514E-06
 0.83001101E+00 -0.28284E-06
 0.88001102E+00  0.16668E-06
 0.93001097E+00  0.18546E-05
 0.98001099E+00  0.24632E-05
 0.10300111E+01  0.60316E-06
 0.10800110E+01 -0.11557E-05
 0.11300110E+01 -0.12329E-05
 0.11800110E+01 -0.11962E-06
 0.12300110E+01  0.78381E-06
 0.12800111E+01  0.30431E-06
 0.13300110E+01  0.74404E-07
 0.13800110E+01  0.66899E-07
 0.14300110E+01 -0.57681E-06
 0.14800110E+01 -0.11403E-05
 0.15300111E+01 -0.13403E-05
 0.15800110E+01  0.41322E-07
 0.16300110E+01  0.12805E-05
 0.16800110E+01  0.11511E-05
 0.17300110E+01  0.93020E-06
 0.17800111E+01 -0.65669E-07
 0.18300110E+01 -0.83744E-06
 0.18800110E+01 -0.70139E-06
 0.19300110E+01 -0.39082E-07
 0.19800110E+01  0.11651E-05
 0.20300109E+01  0.11305E-05
 0.20800111E+01 -0.26188E-06
 0.21300111E+01 -0.76706E-06
 0.21800110E+01  0.15070E-06
 0.22300110E+01  0.96363E-06
 0.22800109E+01  0.50733E-06
 0.23300111E+01 -0.57282E-06
 0.23800111E+01 -0.11657E-05
 0.24300110E+01 -0.11940E-05
 0.24800110E+01 -0.57639E-06
 0.25300109E+01 -0.39479E-07
 0.25800111E+01  0.10909E-06
 0.26300111E+01  0.20677E-06
 0.26800110E+01  0.34890E-06
 0.27300110E+01  0.47217E-07
 0.27800109E+01 -0.99769E-06
 0.28300111E+01 -0.53513E-06
 0.28800111E+01  0.45518E-06
 0.29300110E+01  0.38076E-06
 0.29800110E+01  0.27744E-07
 0.30300109E+01 -0.23159E-06
 0.30800111E+01  0.63417E-06
 0.31300111E+01  0.13613E-05
 0.31800110E+01  0.90423E-06
 0.32300110E+01 -0.97866E-08
 0.32800109E+01 -0.55733E-06
 0.33300111E+01  0.11507E-06
 0.33800111E+01  0.23287E-06
 0.34300110E+01 -0.44399E-07
 0.34800110E+01  0.27732E-06
 0.35300109E+01  0.23611E-06
 0.35800111E+01  0.83471E-07
 0.36300111E+01 -0.46050E-06
 0.36800110E+01 -0.48571E-06
 0.37300110E+01 -0.48799E-06
 0.37800109E+01 -0.14325E-06
 0.38300111E+01  0.47928E-06
 0.38800111E+01 -0.51831E-06
 0.39300110E+01 -0.77042E-06
 0.39800110E+01 -0.39975E-06
 0.40300112E+01 -0.44090E-06
 0.40800109E+01 -0.34814E-06
 0.41300111E+01 -0.76086E-07
 0.41800113E+01  0.38001E-06
 0.42300110E+01  0.10814E-06
 0.42800112E+01 -0.21644E-06
 0.43300109E+01 -0.17878E-06
 0.43800111E+01 -0.29021E-07
 0.44300113E+01  0.70886E-06
 0.44800110E+01  0.10159E-05
 0.45300112E+01  0.21783E-06
 0.45800109E+01 -0.51566E-06
 0.46300111E+01 -0.44988E-06
 0.46800113E+01  0.27144E-07
 0.47300110E+01  0.14551E-06
 0.47800112E+01 -0.23900E-07
 0.48300109E+01 -0.60906E-06
 0.48800111E+01 -0.92108E-06
 0.49300113E+01 -0.79602E-06
 0.49800110E+01 -0.53824E-06
 0.50300112E+01  0.84768E-06
 0.50800109E+01  0.11079E-05
 0.51300111E+01  0.26476E-06
 0.51800113E+01 -0.15754E-07
 0.52300110E+01 -0.36863E-06
 0.52800112E+01  0.72245E-06
 0.53300109E+01  0.17390E-05
 0.53800111E+01  0.62651E-06
 0.54300113E+01 -0.43631E-06
 0.54800110E+01  0.38234E-07
 0.55300112E+01  0.15563E-05
 0.55800109E+01  0.18958E-05
 0.56300111E+01  0.84567E-07
 0.56800113E+01 -0.20451E-05
 0.57300110E+01 -0.20191E-05
 0.57800112E+01  0.39444E-06
 0.58300109E+01  0.18561E-05
 0.58800111E+01  0.77690E-06
 0.59300113E+01 -0.14042E-05
 0.59800110E+01 -0.24350E-05
 0.60300112E+01 -0.70336E-06
 0.60800109E+01  0.10363E-05
 0.61300111E+01 -0.40338E-07
 0.61800113E+01 -0.12925E-05
 0.62300110E+01 -0.11111E-05
 0.62800112E+01 -0.95331E-06
 0.63300109E+01 -0.57179E-06
 0.63800111E+01 -0.24815E-07
 0.64300113E+01  0.62541E-06
 0.64800110E+01  0.14507E-05
 0.65300112E+01  0.65421E-06
 0.65800109E+01 -0.10510E-05
 0.66300111E+01 -0.13534E-05
 0.66800113E+01 -0.24806E-06
 0.67300110E+01  0.10760E-05
 0.67800112E+01  0.16901E-05
 0.68300109E+01  0.14159E-05
 0.68800111E+01  0.64861E-06
 0.69300113E+01  0.62593E-06
 0.69800110E+01  0.28839E-06
 0.70300112E+01 -0.37148E-06
 0.70800109E+01  0.27535E-06
 0.71300111E+01  0.53690E-06
 0.71800113E+01  0.11312E-05
 0.72300110E+01  0.77995E-06
 0.72800112E+01 -0.13711E-05
 0.73300109E+01 -0.94165E-06
 0.73800111E+01  0.59951E-06
 0.74300113E+01  0.11076E-05
 0.74800110E+01  0.68463E-06
 0.75300112E+01 -0.80343E-06
 0.75800109E+01 -0.15067E-05
 0.76300111E+01 -0.11744E-05
 0.76800113E+01 -0.59428E-06
 0.77300110E+01 -0.82474E-06
 0.77800112E+01 -0.50959E-06
 0.78300109E+01  0.77127E-06
 0.78800111E+01  0.88172E-06
 0.79300113E+01  0.44467E-07
 0.79800110E+01 -0.12640E-05
 0.80300112E+01 -0.19227E-05
 0.80800114E+01 -0.15846E-05
 0.81300116E+01 -0.60542E-06
 0.81800108E+01 -0.22459E-07
 0.82300110E+01 -0.55435E-07
 0.82800112E+01  0.19779E-06
 0.83300114E+01  0.58352E-06
 0.83800116E+01  0.80237E-06
 0.84300108E+01  0.52463E-06
 0.84800110E+01  0.66438E-06
 0.85300112E+01  0.12640E-05
 0.85800114E+01  0.17017E-05
 0.86300116E+01  0.51888E-06
 0.86800108E+01 -0.14400E-05
 0.87300110E+01 -0.10991E-05
 0.87800112E+01  0.57491E-06
 0.88300114E+01  0.12679E-05
 0.88800116E+01  0.46421E-06
 0.89300108E+01 -0.88510E-06
 0.89800110E+01 -0.12488E-05
 0.90300112E+01  0.79485E-07
 0.90800114E+01  0.14732E-05
 0.91300116E+01  0.99761E-06
 0.91800108E+01 -0.91646E-07
 0.92300110E+01 -0.22968E-07
 0.92800112E+01  0.41285E-06
 0.93300114E+01  0.27724E-06
 0.93800116E+01 -0.64892E-06
 0.94300108E+01 -0.18845E-05
 0.94800110E+01 -0.18398E-05
 0.95300112E+01 -0.30142E-06
 0.95800114E+01  0.84501E-06
 0.96300116E+01  0.34939E-06
 0.96800108E+01 -0.21254E-07
 0.97300110E+01  0.37945E-06
 0.97800112E+01  0.10321E-06
 0.98300114E+01 -0.46779E-06
 0.98800116E+01 -0.70751E-06
 0.99300108E+01 -0.11016E-07
 0.99800110E+01  0.11506E-05
 0.10030011E+02  0.11709E-05
 0.10080011E+02  0.51410E-06
 0.10130012E+02 -0.24577E-07
 0.10180011E+02 -0.55348E-06
 0.10230011E+02  0.22267E-06
 0.10280011E+02  0.16144E-05
 0.10330011E+02  0.97625E-06
 0.10380012E+02 -0.38618E-06
 0.10430011E+02 -0.57110E-06
 0.10480011E+02  0.48310E-07
 0.10530011E+02 -0.16154E-06
 0.10580011E+02 -0.11009E-05
 0.10630012E+02 -0.63687E-06
 0.10680011E+02 -0.42967E-06
 0.10730011E+02 -0.98270E-06
 0.10780011E+02 -0.69907E-06
 0.10830011E+02 -0.34060E-06
 0.10880012E+02  0.42779E-06
 0.10930011E+02  0.74390E-06
 0.10980011E+02  0.77127E-07
 0.11030011E+02 -0.35989E-06
 0.11080011E+02 -0.25563E-06
 0.11130012E+02  0.17306E-06
 0.11180011E+02  0.60673E-06
 0.11230011E+02  0.66788E-06
 0.11280011E+02 -0.40669E-06
 0.11330011E+02 -0.98505E-06
 0.11380012E+02 -0.19718E-06
 0.11430011E+02  0.13701E-05
 0.11480011E+02  0.20105E-05
 0.11530011E+02  0.35831E-06
 0.11580011E+02 -0.11567E-05
 0.11630012E+02 -0.84973E-06
 0.11680011E+02  0.64778E-06
 0.11730011E+02  0.17085E-05
 0.11780011E+02  0.12544E-05
 0.11830011E+02 -0.21930E-06
 0.11880012E+02 -0.50772E-06
 0.11930011E+02  0.50232E-06
 0.11980011E+02  0.54360E-06
 0.12030011E+02 -0.77532E-06
 0.12080011E+02 -0.15789E-05
 0.12130012E+02 -0.38138E-06
 0.12180011E+02  0.43082E-06
 0.12230011E+02 -0.52895E-06
 0.12280011E+02 -0.16430E-05
 0.12330011E+02 -0.11144E-05
 0.12380012E+02  0.86589E-06
 0.12430011E+02  0.91814E-06
 0.12480011E+02 -0.83928E-06
 0.12530011E+02 -0.13193E-05
 0.12580011E+02 -0.12771E-06
 0.12630012E+02  0.46895E-06
 0.12680011E+02 -0.47503E-06
 0.12730011E+02 -0.85890E-06
 0.12780011E+02 -0.75701E-06
 0.12830011E+02 -0.22816E-06
 0.12880012E+02  0.95145E-06
 0.12930011E+02  0.78473E-06
 0.12980011E+02  0.39698E-08
 0.13030011E+02 -0.32605E-06
 0.13080011E+02  0.28946E-06
 0.13130012E+02  0.12518E-05
 0.13180011E+02  0.47591E-06
 0.13230011E+02 -0.47340E-06
 0.13280011E+02 -0.14864E-05
 0.13330011E+02 -0.17475E-05
 0.13380012E+02  0.45131E-06
 0.13430011E+02  0.10087E-05
 0.13480011E+02 -0.70707E-06
 0.13530011E+02 -0.15530E-05
 0.13580011E+02 -0.12331E-05
 0.13630012E+02 -0.41581E-06
 0.13680011E+02  0.71231E-06
 0.13730011E+02  0.19288E-05
 0.13780011E+02  0.26936E-05
 0.13830011E+02  0.33018E-05
 0.13880012E+02  0.28195E-05
 0.13930011E+02  0.12282E-05
 0.13980011E+02  0.24978E-06
 0.14030011E+02 -0.81256E-07
 0.14080011E+02  0.73362E-06
 0.14130012E+02  0.12200E-05
 0.14180011E+02  0.25943E-06
 0.14230011E+02 -0.43012E-06
 0.14280011E+02 -0.11735E-05
 0.14330011E+02 -0.89658E-06
 0.14380012E+02  0.52363E-06
 0.14430011E+02 -0.31722E-07
 0.14480011E+02 -0.22971E-05
 0.14530011E+02 -0.31237E-05
 0.14580011E+02 -0.13740E-05
 0.14630012E+02 -0.11307E-06
 0.14680011E+02 -0.16885E-06
 0.14730011E+02 -0.56903E-06
 0.14780011E+02 -0.12369E-05
 0.14830011E+02 -0.33547E-06
 0.14880012E+02  0.12807E-06
 0.14930011E+02 -0.89425E-06
 0.14980011E+02 -0.59696E-06
 0.15030011E+02  0.18708E-06
 0.15080011E+02  0.38305E-06
 0.15130012E+02  0.47518E-06
 0.15180011E+02 -0.69282E-06
 0.15230011E+02 -0.13647E-05
 0.15280011E+02  0.27037E-06
 0.15330011E+02  0.17303E-05
 0.15380012E+02  0.19113E-05
 0.15430011E+02  0.87384E-06
 0.15480011E+02 -0.29987E-06
 0.15530011E+02  0.20622E-06
 0.15580011E+02  0.18893E-05
 0.15630012E+02  0.18905E-05
 0.15680011E+02 -0.37617E-06
 0.15730011E+02 -0.20273E-05
 0.15780011E+02 -0.17847E-05
 0.15830011E+02 -0.21155E-06
 0.15880012E+02  0.56841E-06
 0.15930011E+02  0.20963E-06
 0.15980011E+02  0.62054E-06
 0.16030012E+02  0.95543E-06
 0.16080011E+02  0.42565E-06
 0.16130011E+02 -0.81230E-06
 0.16180012E+02 -0.23488E-05
 0.16230011E+02 -0.19777E-05
 0.16280012E+02 -0.59834E-07
 0.16330011E+02  0.13102E-05
 0.16380011E+02  0.17164E-05
 0.16430012E+02  0.10500E-05
 0.16480011E+02  0.43928E-08
 0.16530012E+02 -0.46959E-06
 0.16580011E+02 -0.61944E-06
 0.16630011E+02 -0.89942E-06
 0.16680012E+02 -0.56378E-06
 0.16730011E+02  0.13215E-06
 0.16780012E+02  0.71618E-06
 0.16830011E+02  0.36022E-06
 0.16880011E+02 -0.54808E-06
 0.16930012E+02  0.35270E-06
 0.16980011E+02  0.10037E-05
 0.17030012E+02  0.12067E-05
 0.17080011E+02  0.17483E-05
 0.17130011E+02  0.57762E-07
 0.17180012E+02 -0.97846E-06
 0.17230011E+02  0.20577E-06
 0.17280012E+02  0.79924E-06
 0.17330011E+02  0.70619E-06
 0.17380011E+02 -0.59115E-06
 0.17430012E+02 -0.16081E-05
 0.17480011E+02 -0.10751E-05
 0.17530012E+02 -0.42475E-06
 0.17580011E+02  0.75502E-07
 0.17630011E+02 -0.32180E-06
 0.17680012E+02 -0.97178E-06
 0.17730011E+02 -0.51877E-06
 0.17780012E+02  0.46292E-06
 0.17830011E+02 -0.63002E-07
 0.17880011E+02 -0.58103E-06
 0.17930012E+02  0.71822E-06
 0.17980011E+02  0.17741E-05
 0.18030012E+02  0.13411E-05
 0.18080011E+02 -0.10992E-05
 0.18130011E+02 -0.24695E-05
 0.18180012E+02 -0.23036E-06
 0.18230011E+02  0.26603E-05
 0.18280012E+02  0.25419E-05
 0.18330011E+02 -0.18062E-06
 0.18380011E+02 -0.19449E-05
 0.18430012E+02 -0.14147E-05
 0.18480011E+02  0.21670E-06
 0.18530012E+02  0.13146E-05
 0.18580011E+02  0.11660E-05
 0.18630011E+02  0.29480E-06
 0.18680012E+02 -0.47858E-06
 0.18730011E+02 -0.25078E-06
 0.18780012E+02  0.68964E-07
 0.18830011E+02 -0.59269E-06
 0.18880011E+02 -0.70310E-06
 0.18930012E+02 -0.59144E-06
 0.18980011E+02 -0.73028E-06
 0.19030012E+02 -0.46482E-06
 0.19080011E+02 -0.92943E-06
 0.19130011E+02 -0.13728E-05
 0.19180012E+02 -0.12037E-06
 0.19230011E+02  0.50875E-06
 0.19280012E+02 -0.72938E-06
 0.19330011E+02 -0.86005E-06
 0.19380011E+02  0.11121E-06
 0.19430012E+02  0.78420E-06
 0.19480011E+02  0.63771E-06
 0.19530012E+02 -0.74382E-06
 0.19580011E+02 -0.97606E-06
 0.19630011E+02  0.64746E-06
 0.19680012E+02  0.17332E-05
 0.19730011E+02  0.80274E-06
 0.19780012E+02 -0.59049E-06
 0.19830011E+02 -0.73051E-06
 0.19880011E+02 -0.34499E-06
 0.19930012E+02  0.77441E-06
 0.19980011E+02  0.20864E-05
 0.20030012E+02  0.19804E-05
 0.20080011E+02  0.23425E-06
 0.20130011E+02 -0.58230E-06
 0.20180012E+02  0.70690E-07
 0.20230011E+02  0.34905E-06
 0.20280012E+02  0.11386E-05
 0.20330011E+02  0.72309E-06
 0.20380011E+02 -0.30600E-06
 0.20430012E+02  0.25067E-06
 0.20480011E+02  0.23431E-06
 0.20530012E+02 -0.10908E-05
 0.20580011E+02 -0.20180E-05
 0.20630011E+02 -0.10983E-05
 0.20680012E+02  0.15758E-06
 0.20730011E+02 -0.41197E-07
 0.20780012E+02 -0.12363E-05
 0.20830011E+02 -0.10674E-05
 0.20880011E+02  0.11015E-05
 0.20930012E+02  0.17760E-05
 0.20980011E+02  0.51343E-06
 0.21030012E+02 -0.41252E-06
 0.21080011E+02 -0.33573E-06
 0.21130011E+02  0.19939E-06
 0.21180012E+02 -0.28477E-06
 0.21230011E+02 -0.10489E-05
 0.21280012E+02 -0.10623E-05
 0.21330011E+02 -0.74880E-06
 0.21380011E+02  0.68340E-06
 0.21430012E+02  0.19366E-05
 0.21480011E+02  0.16123E-05
 0.21530012E+02  0.78003E-06
 0.21580011E+02 -0.60411E-07
 0.21630011E+02 -0.12880E-07
 0.21680012E+02  0.33959E-06
 0.21730011E+02  0.11535E-06
 0.21780012E+02 -0.21954E-06
 0.21830011E+02 -0.19700E-06
 0.21880011E+02  0.71599E-06
 0.21930012E+02  0.78033E-06
 0.21980011E+02 -0.28646E-06
 0.22030012E+02 -0.11095E-05
 0.22080011E+02 -0.14199E-05
 0.22130011E+02 -0.78919E-06
 0.22180012E+02 -0.55973E-06
 0.22230011E+02 -0.63392E-06
 0.22280012E+02 -0.48546E-06
 0.22330011E+02  0.40645E-09
 0.22380011E+02  0.13721E-05
 0.22430012E+02  0.73504E-06
 0.22480011E+02 -0.11153E-05
 0.22530012E+02 -0.12463E-05
 0.22580011E+02 -0.67570E-06
 0.22630011E+02  0.18792E-06
 0.22680012E+02  0.61228E-06
 0.22730011E+02  0.45410E-06
 0.22780012E+02  0.72723E-06
 0.22830011E+02  0.41698E-06
 0.22880011E+02 -0.36171E-06
 0.22930012E+02 -0.85280E-06
 0.22980011E+02 -0.13688E-05
 0.23030012E+02 -0.10862E-05
 0.23080011E+02 -0.21366E-06
 0.23130011E+02  0.74345E-06
 0.23180012E+02  0.13729E-05
 0.23230011E+02  0.33311E-06
 0.23280012E+02 -0.94502E-06
 0.23330011E+02 -0.35999E-06
 0.23380011E+02  0.90533E-06
 0.23430012E+02  0.13068E-05
 0.23480011E+02  0.68785E-06
 0.23530012E+02  0.49956E-06
 0.23580011E+02  0.12361E-05
 0.23630011E+02  0.11093E-05
 0.23680012E+02 -0.17437E-06
 0.23730011E+02 -0.72288E-06
 0.23780012E+02  0.61567E-06
 0.23830011E+02  0.12839E-05
 0.23880011E+02  0.37425E-06
 0.23930012E+02 -0.65709E-06
 0.23980011E+02 -0.63900E-06
 0.24030012E+02  0.24166E-06
 0.24080011E+02  0.76632E-06
 0.24130011E+02  0.77891E-06
 0.24180012E+02 -0.12850E-05
 0.24230011E+02 -0.29109E-05
 0.24280012E+02 -0.16248E-05
 0.24330011E+02 -0.74589E-06
 0.24380011E+02 -0.13276E-05
 0.24430012E+02 -0.95366E-06
 0.24480011E+02 -0.10101E-07
 0.24530012E+02 -0.43556E-06
 0.24580011E+02 -0.11858E-05
 0.24630011E+02 -0.15505E-05
 0.24680012E+02 -0.11799E-05
 0.24730011E+02  0.62860E-06
 0.24780012E+02  0.18883E-05
 0.24830011E+02  0.13811E-05
 0.24880011E+02  0.77261E-06
 0.24930012E+02  0.59899E-06
 0.24980011E+02  0.10906E-05
 0.25030012E+02  0.19626E-05
 0.25080011E+02  0.20823E-05
 0.25130011E+02  0.10791E-05
 0.25180012E+02  0.16649E-06
 0.25230011E+02  0.51270E-06
 0.25280012E+02  0.13446E-05
 0.25330011E+02  0.15353E-05
 0.25380011E+02  0.20266E-06
 0.25430012E+02 -0.66833E-06
 0.25480011E+02 -0.29015E-06
 0.25530012E+02 -0.76117E-07
 0.25580011E+02 -0.18072E-06
 0.25630011E+02 -0.54029E-06
 0.25680012E+02 -0.75819E-06
 0.25730011E+02 -0.79757E-06
 0.25780012E+02 -0.52631E-06
 0.25830011E+02 -0.64775E-06
 0.25880011E+02 -0.12820E-05
 0.25930012E+02 -0.14654E-05
 0.25980011E+02 -0.87762E-06
 0.26030012E+02 -0.49274E-06
 0.26080011E+02 -0.76528E-06
 0.26130011E+02 -0.44562E-06
 0.26180012E+02  0.41158E-06
 0.26230011E+02  0.76362E-06
 0.26280012E+02  0.27340E-06
 0.26330011E+02 -0.71962E-06
 0.26380011E+02 -0.13154E-05
 0.26430012E+02 -0.40018E-06
 0.26480011E+02  0.77555E-06
 0.26530012E+02  0.75602E-06
 0.26580011E+02  0.41165E-06
 0.26630011E+02  0.46193E-06
 0.26680012E+02  0.76645E-06
 0.26730011E+02  0.40780E-06
 0.26780012E+02 -0.36611E-06
 0.26830011E+02  0.38098E-06
 0.26880011E+02  0.10998E-05
 0.26930012E+02 -0.14618E-06
 0.26980011E+02 -0.46471E-06
 0.27030012E+02 -0.10578E-06
 0.27080011E+02 -0.82196E-06
 0.27130011E+02 -0.30145E-06
 0.27180012E+02  0.72003E-06
 0.27230011E+02  0.28988E-06
 0.27280012E+02 -0.56228E-06
 0.27330011E+02 -0.12821E-05
 0.27380011E+02 -0.15555E-05
 0.27430012E+02 -0.70439E-06
 0.27480011E+02  0.76919E-06
 0.27530012E+02  0.10206E-05
 0.27580011E+02  0.52446E-06
 0.27630011E+02  0.53216E-06
 0.27680012E+02  0.78698E-06
 0.27730011E+02  0.55468E-06
 0.27780012E+02 -0.13922E-06
 0.27830011E+02  0.25364E-07
 0.27880011E+02  0.53236E-06
 0.27930012E+02  0.96268E-06
 0.27980011E+02  0.10696E-05
 0.28030012E+02  0.10232E-05
 0.28080011E+02  0.56514E-06
 0.28130011E+02 -0.37207E-06
 0.28180012E+02 -0.18096E-06
 0.28230011E+02  0.16905E-06
 0.28280012E+02  0.27390E-06
 0.28330011E+02  0.37495E-06
 0.28380011E+02  0.41084E-06
 0.28430012E+02  0.53242E-06
 0.28480011E+02  0.90574E-08
 0.28530012E+02 -0.60801E-06
 0.28580011E+02 -0.11319E-05
 0.28630011E+02 -0.14644E-05
 0.28680012E+02 -0.76810E-06
 0.28730011E+02 -0.46080E-06
 0.28780012E+02 -0.82274E-06
 0.28830011E+02 -0.67221E-06
 0.28880011E+02 -0.83783E-06
 0.28930012E+02 -0.78704E-06
 0.28980011E+02 -0.41495E-06
 0.29030012E+02 -0.70872E-06
 0.29080011E+02 -0.11233E-05
 0.29130011E+02 -0.75508E-06
 0.29180012E+02  0.31199E-06
 0.29230011E+02  0.33896E-06
 0.29280012E+02 -0.41254E-06
 0.29330011E+02  0.70775E-07
 0.29380011E+02  0.10608E-05
 0.29430012E+02  0.11700E-05
 0.29480011E+02  0.14706E-05
 0.29530012E+02  0.21528E-05
 0.29580011E+02  0.19354E-05
 0.29630011E+02  0.74983E-06
 0.29680012E+02 -0.60903E-06
 0.29730011E+02 -0.10305E-05
 0.29780012E+02 -0.62640E-06
 0.29830011E+02  0.41351E-06
 0.29880011E+02  0.12007E-05
 0.29930012E+02  0.56140E-06
 0.29980011E+02 -0.36699E-06
 0.30030012E+02 -0.16737E-05
 0.30080011E+02 -0.22609E-05
 0.30130011E+02 -0.74268E-06
 0.30180012E+02  0.74840E-06
 0.30230011E+02  0.65143E-06
 0.30280012E+02 -0.55870E-06
 0.30330011E+02 -0.14678E-05
 0.30380011E+02 -0.12192E-05
 0.30430012E+02  0.11502E-06
 0.30480011E+02  0.15173E-05
 0.30530012E+02  0.12358E-05
 0.30580011E+02 -0.88799E-06
 0.30630011E+02 -0.19359E-05
 0.30680012E+02 -0.33744E-06
 0.30730011E+02  0.15545E-05
 0.30780012E+02  0.11312E-05
 0.30830011E+02  0.72308E-07
 0.30880011E+02  0.22663E-06
 0.30930012E+02 -0.13316E-06
 0.30980011E+02 -0.74792E-06
 0.31030012E+02 -0.72050E-06
 0.31080011E+02  0.88795E-06
 0.31130011E+02  0.23079E-05
 0.31180012E+02  0.17382E-05
 0.31230011E+02  0.48965E-06
 0.31280012E+02 -0.12651E-05
 0.31330011E+02 -0.66614E-06
 0.31380011E+02  0.17558E-05
 0.31430012E+02  0.27419E-05
 0.31480011E+02  0.17885E-05
 0.31530012E+02 -0.54867E-06
 0.31580011E+02 -0.23181E-05
 0.31630011E+02 -0.35390E-05
 0.31680012E+02 -0.39959E-05
 0.31730011E+02 -0.31015E-05
 0.31780012E+02  0.26848E-06
 0.31830011E+02  0.35625E-05
 0.31880011E+02  0.28341E-05
 0.31930012E+02  0.23992E-05
 0.31980011E+02  0.95514E-06
 0.32030010E+02 -0.39745E-05
 0.32080013E+02 -0.36293E-05
 0.32130013E+02  0.31340E-05
 0.32180012E+02  0.34889E-05
 0.32230011E+02 -0.98207E-06
 0.32280010E+02  0.22672E-05
 0.32330013E+02  0.43340E-05
 0.32380013E+02 -0.81453E-06
 0.32430012E+02 -0.48752E-05
 0.32480011E+02 -0.68595E-05
 0.32530010E+02 -0.60464E-05
 0.32580013E+02 -0.28204E-06
 0.32630013E+02  0.33372E-05
 0.32680012E+02  0.28256E-09
 0.32730011E+02  0.15832E-05
 0.32780010E+02  0.84388E-05
 0.32830013E+02  0.53951E-05
 0.32880013E+02 -0.17647E-05
 0.32930012E+02 -0.36370E-05
 0.32980011E+02 -0.35811E-05
 0.33030010E+02  0.14454E-05
 0.33080013E+02  0.65226E-05
 0.33130013E+02  0.38481E-05
 0.33180012E+02 -0.37281E-05
 0.33230011E+02 -0.64460E-05
 0.33280010E+02  0.19516E-05
 0.33330013E+02  0.13816E-05
 0.33380013E+02 -0.12283E-04
 0.33430012E+02 -0.46015E-05
 0.33480011E+02  0.11733E-04
 0.33530010E+02  0.41293E-05
 0.33580013E+02 -0.43267E-05
 0.33630013E+02 -0.51738E-05
 0.33680012E+02 -0.32271E-05
 0.33730011E+02  0.21867E-05
 0.33780010E+02  0.31249E-05
 0.33830013E+02  0.34242E-05
 0.33880013E+02  0.71980E-05
 0.33930012E+02  0.99850E-05
 0.33980011E+02 -0.77974E-05
 0.34030010E+02 -0.24101E-04
 0.34080013E+02 -0.11644E-04
 0.34130013E+02  0.36954E-05
 0.34180012E+02  0.97057E-05
 0.34230011E+02  0.77237E-05
 0.34280010E+02  0.82984E-05
 0.34330013E+02  0.54814E-05
 0.34380013E+02 -0.64878E-05
 0.34430012E+02 -0.17262E-04
 0.34480011E+02 -0.19406E-04
 0.34530010E+02  0.53726E-05
 0.34580013E+02  0.18445E-04
 0.34630013E+02  0.14109E-04
 0.34680012E+02  0.25441E-04
 0.34730011E+02  0.19008E-04
 0.34780010E+02 -0.29664E-05
 0.34830013E+02 -0.10547E-04
 0.34880013E+02 -0.26913E-05
 0.34930012E+02 -0.61593E-06
 0.34980011E+02 -0.10599E-04
 0.35030010E+02 -0.22617E-05
 0.35080013E+02  0.19638E-05
 0.35130013E+02 -0.13746E-04
 0.35180012E+02 -0.16302E-04
 0.35230011E+02 -0.21610E-04
 0.35280010E+02 -0.20531E-04
 0.35330013E+02  0.13896E-04
 0.35380013E+02  0.25124E-04
 0.35430012E+02  0.95318E-05
 0.35480011E+02  0.35906E-05
 0.35530010E+02  0.14291E-05
 0.35580013E+02  0.12653E-04
 0.35630013E+02  0.85837E-05
 0.35680012E+02 -0.77839E-05
 0.35730011E+02 -0.11942E-04
 0.35780010E+02 -0.11038E-04
 0.35830013E+02 -0.78838E-05
 0.35880013E+02 -0.23016E-04
 0.35930012E+02 -0.17914E-04
 0.35980011E+02  0.72687E-05
 0.36030010E+02  0.69440E-05
 0.36080013E+02  0.83097E-05
 0.36130013E+02  0.24631E-04
 0.36180012E+02  0.32905E-04
 0.36230011E+02  0.24459E-04
 0.36280010E+02  0.35798E-04
 0.36330013E+02  0.30155E-04
 0.36380013E+02 -0.23423E-04
 0.36430012E+02 -0.37175E-04
 0.36480011E+02 -0.19158E-04
 0.36530010E+02 -0.24472E-04
 0.36580013E+02 -0.46903E-04
 0.36630013E+02 -0.19360E-04
 0.36680012E+02  0.40569E-04
 0.36730011E+02  0.20242E-04
 0.36780010E+02 -0.10956E-05
 0.36830013E+02  0.21389E-04
 0.36880013E+02 -0.23744E-06
 0.36930012E+02 -0.25792E-04
 0.36980011E+02 -0.14980E-04
 0.37030010E+02  0.38336E-05
 0.37080013E+02  0.55286E-05
 0.37130013E+02 -0.15686E-04
 0.37180012E+02 -0.45475E-05
 0.37230011E+02  0.25834E-04
 0.37280010E+02  0.80218E-06
 0.37330013E+02 -0.35271E-04
 0.37380013E+02 -0.27260E-04
 0.37430012E+02 -0.12251E-04
 0.37480011E+02  0.11823E-04
 0.37530010E+02  0.35005E-04
 0.37580013E+02  0.43193E-04
 0.37630013E+02  0.66449E-04
 0.37680012E+02  0.39022E-04
 0.37730011E+02 -0.18253E-04
 0.37780010E+02 -0.57246E-04
 0.37830013E+02 -0.90731E-04
 0.37880013E+02 -0.81717E-04
 0.37930012E+02 -0.37740E-04
 0.37980011E+02  0.26774E-04
 0.38030010E+02  0.34374E-04
 0.38080013E+02  0.32535E-04
 0.38130013E+02  0.87172E-04
 0.38180012E+02  0.74325E-04
 0.38230011E+02  0.16618E-04
 0.38280010E+02  0.18794E-04
 0.38330013E+02  0.46208E-04
 0.38380013E+02 -0.23284E-05
 0.38430012E+02 -0.34064E-04
 0.38480011E+02  0.19673E-05
 0.38530010E+02 -0.32658E-04
 0.38580013E+02 -0.64545E-04
 0.38630013E+02 -0.45075E-04
 0.38680012E+02 -0.24196E-04
 0.38730011E+02  0.13549E-04
 0.38780010E+02  0.15962E-04
 0.38830013E+02 -0.13581E-04
 0.38880013E+02 -0.14830E-04
 0.38930012E+02 -0.74029E-06
 0.38980011E+02  0.87297E-05
 0.39030010E+02  0.13688E-04
 0.39080013E+02 -0.46422E-05
 0.39130013E+02 -0.21232E-04
 0.39180012E+02 -0.97554E-06
 0.39230011E+02  0.24701E-04
 0.39280010E+02  0.11068E-04
 0.39330013E+02 -0.25964E-04
 0.39380013E+02 -0.68781E-04
 0.39430012E+02 -0.10141E-03
 0.39480011E+02 -0.71706E-04
 0.39530010E+02  0.27264E-04
 0.39580013E+02  0.11589E-03
 0.39630013E+02  0.11483E-03
 0.39680012E+02  0.90540E-04
 0.39730011E+02  0.74547E-04
 0.39780010E+02  0.37401E-04
 0.39830013E+02  0.52313E-05
 0.39880013E+02 -0.13385E-04
 0.39930012E+02 -0.48526E-05
 0.39980011E+02  0.47911E-05
 0.40030010E+02  0.11892E-04
 0.40080013E+02  0.10401E-04
 0.40130013E+02 -0.12315E-04
 0.40180012E+02 -0.26240E-04
 0.40230011E+02 -0.63942E-04
 0.40280010E+02 -0.12130E-03
 0.40330013E+02 -0.11680E-03
 0.40380013E+02 -0.29828E-04
 0.40430012E+02  0.22525E-04
 0.40480011E+02  0.22205E-04
 0.40530010E+02  0.74559E-04
 0.40580013E+02  0.10477E-03
 0.40630013E+02  0.72643E-04
 0.40680012E+02  0.68171E-04
 0.40730011E+02  0.21891E-04
 0.40780010E+02 -0.13220E-03
 0.40830013E+02 -0.23504E-03
 0.40880013E+02 -0.17432E-03
 0.40930012E+02 -0.20501E-04
 0.40980011E+02  0.87317E-04
 0.41030010E+02  0.66629E-04
 0.41080013E+02  0.35414E-04
 0.41130013E+02  0.57136E-04
 0.41180012E+02  0.46261E-04
 0.41230011E+02 -0.28673E-04
 0.41280010E+02 -0.88664E-04
 0.41330013E+02 -0.24453E-04
 0.41380013E+02  0.58298E-04
 0.41430012E+02  0.18286E-04
 0.41480011E+02 -0.29975E-04
 0.41530010E+02 -0.19724E-04
 0.41580013E+02 -0.36520E-04
 0.41630013E+02 -0.25333E-04
 0.41680012E+02  0.26727E-04
 0.41730011E+02  0.81743E-04
 0.41780010E+02  0.14897E-03
 0.41830013E+02  0.14242E-03
 0.41880013E+02  0.67727E-04
 0.41930012E+02  0.40877E-04
 0.41980011E+02  0.51356E-04
 0.42030010E+02  0.17511E-04
 0.42080013E+02  0.43577E-04
 0.42130013E+02  0.11473E-03
 0.42180012E+02  0.21225E-04
 0.42230011E+02 -0.15162E-03
 0.42280010E+02 -0.19972E-03
 0.42330013E+02 -0.13246E-03
 0.42380013E+02 -0.56903E-04
 0.42430012E+02 -0.29845E-04
 0.42480011E+02 -0.10631E-04
 0.42530010E+02 -0.22037E-04
 0.42580013E+02 -0.72745E-04
 0.42630013E+02 -0.48995E-04
 0.42680012E+02  0.17454E-04
 0.42730011E+02  0.46464E-04
 0.42780010E+02 -0.28676E-04
 0.42830013E+02 -0.13448E-03
 0.42880013E+02 -0.11504E-03
 0.42930012E+02 -0.32460E-04
 0.42980011E+02  0.37145E-04
 0.43030010E+02  0.36078E-04
 0.43080013E+02  0.58487E-04
 0.43130013E+02  0.13132E-03
 0.43180012E+02  0.10203E-03
 0.43230011E+02  0.17154E-04
 0.43280010E+02 -0.19604E-04
 0.43330013E+02  0.35703E-04
 0.43380013E+02  0.60414E-04
 0.43430012E+02  0.44431E-04
 0.43480011E+02  0.10571E-03
 0.43530010E+02  0.13769E-03
 0.43580013E+02  0.71050E-04
 0.43630013E+02 -0.24485E-04
 0.43680012E+02 -0.56028E-04
 0.43730011E+02 -0.56446E-04
 0.43780010E+02 -0.70431E-04
 0.43830013E+02 -0.74121E-04
 0.43880013E+02 -0.75465E-04
 0.43930012E+02 -0.23772E-04
 0.43980011E+02  0.16686E-04
 0.44030010E+02  0.68478E-06
 0.44080013E+02  0.50656E-04
 0.44130013E+02  0.76509E-04
 0.44180012E+02 -0.29876E-04
 0.44230011E+02 -0.10058E-03
 0.44280010E+02 -0.47145E-04
 0.44330013E+02  0.23919E-04
 0.44380013E+02  0.55083E-04
 0.44430012E+02  0.63008E-04
 0.44480011E+02  0.84981E-04
 0.44530010E+02  0.11382E-03
 0.44580013E+02  0.71477E-04
 0.44630013E+02 -0.42866E-04
 0.44680012E+02 -0.15875E-03
 0.44730011E+02 -0.21522E-03
 0.44780010E+02 -0.18110E-03
 0.44830013E+02 -0.57497E-04
 0.44880013E+02  0.61652E-04
 0.44930012E+02  0.66394E-04
 0.44980011E+02  0.10549E-04
 0.45030010E+02 -0.39297E-04
 0.45080013E+02 -0.82731E-04
 0.45130013E+02 -0.11848E-03
 0.45180012E+02 -0.13361E-03
 0.45230011E+02 -0.63782E-04
 0.45280010E+02  0.11302E-03
 0.45330013E+02  0.24590E-03
 0.45380013E+02  0.24485E-03
 0.45430012E+02  0.21539E-03
 0.45480011E+02  0.12194E-03
 0.45530010E+02 -0.46595E-04
 0.45580013E+02 -0.94308E-04
 0.45630013E+02 -0.28940E-04
 0.45680012E+02  0.29148E-04
 0.45730011E+02  0.94103E-04
 0.45780010E+02  0.14502E-03
 0.45830013E+02  0.59925E-04
 0.45880013E+02 -0.14236E-03
 0.45930012E+02 -0.25823E-03
 0.45980011E+02 -0.26237E-03
 0.46030010E+02 -0.23880E-03
 0.46080013E+02 -0.11170E-03
 0.46130013E+02  0.11116E-03
 0.46180012E+02  0.19915E-03
 0.46230011E+02  0.10588E-03
 0.46280010E+02  0.34057E-04
 0.46330013E+02 -0.60567E-04
 0.46380013E+02 -0.18744E-03
 0.46430012E+02 -0.98380E-04
 0.46480011E+02  0.70046E-04
 0.46530010E+02  0.97466E-04
 0.46580013E+02  0.85946E-04
 0.46630013E+02  0.69870E-04
 0.46680012E+02  0.51026E-04
 0.46730011E+02  0.40875E-04
 0.46780010E+02  0.13756E-04
 0.46830013E+02  0.34969E-04
 0.46880013E+02  0.98346E-04
 0.46930012E+02  0.10734E-03
 0.46980011E+02  0.13948E-03
 0.47030010E+02  0.19501E-03
 0.47080013E+02  0.14817E-03
 0.47130013E+02  0.36964E-04
 0.47180012E+02 -0.15242E-03
 0.47230011E+02 -0.36368E-03
 0.47280010E+02 -0.45498E-03
 0.47330013E+02 -0.43061E-03
 0.47380013E+02 -0.27764E-03
 0.47430012E+02 -0.91921E-04
 0.47480011E+02 -0.30637E-04
 0.47530010E+02  0.63140E-05
 0.47580013E+02  0.18077E-03
 0.47630013E+02  0.38963E-03
 0.47680012E+02  0.45192E-03
 0.47730011E+02  0.40212E-03
 0.47780010E+02  0.31613E-03
 0.47830013E+02  0.16594E-03
 0.47880013E+02 -0.73547E-04
 0.47930012E+02 -0.31885E-03
 0.47980011E+02 -0.46397E-03
 0.48030010E+02 -0.45794E-03
 0.48080013E+02 -0.26438E-03
 0.48130013E+02 -0.58062E-04
 0.48180012E+02  0.66079E-04
 0.48230011E+02  0.18679E-03
 0.48280010E+02  0.24137E-03
 0.48330013E+02  0.19595E-03
 0.48380013E+02  0.98288E-04
 0.48430012E+02  0.52663E-04
 0.48480011E+02  0.43741E-04
 0.48530010E+02  0.45222E-04
 0.48580013E+02  0.44205E-04
 0.48630013E+02 -0.18913E-05
 0.48680012E+02 -0.20953E-04
 0.48730011E+02 -0.64282E-04
 0.48780010E+02 -0.11367E-03
 0.48830013E+02 -0.79911E-04
 0.48880013E+02  0.23726E-04
 0.48930012E+02  0.10041E-03
 0.48980011E+02  0.91947E-04
 0.49030010E+02  0.81558E-04
 0.49080013E+02  0.27663E-04
 0.49130013E+02 -0.55838E-04
 0.49180012E+02 -0.85239E-04
 0.49230011E+02 -0.71522E-04
 0.49280010E+02 -0.90364E-04
 0.49330013E+02 -0.21176E-03
 0.49380013E+02 -0.24046E-03
 0.49430012E+02 -0.74830E-04
 0.49480011E+02  0.13682E-03
 0.49530010E+02  0.24729E-03
 0.49580013E+02  0.12731E-03
 0.49630013E+02 -0.11677E-03
 0.49680012E+02 -0.20231E-03
 0.49730011E+02 -0.10526E-03
 0.49780010E+02 -0.23146E-04
 0.49830013E+02  0.46918E-04
 0.49880013E+02  0.13791E-03
 0.49930012E+02  0.21327E-03
 0.49980011E+02  0.23647E-03
 0.50030010E+02  0.94792E-04
 0.50080013E+02 -0.42355E-04
 0.50130013E+02  0.15911E-04
 0.50180012E+02  0.55351E-04
 0.50230011E+02 -0.26917E-04
 0.50280010E+02 -0.96369E-04
 0.50330013E+02 -0.45201E-04
 0.50380013E+02  0.12187E-03
 0.50430012E+02  0.11594E-03
 0.50480011E+02 -0.82590E-04
 0.50530010E+02 -0.81895E-04
 0.50580013E+02  0.11386E-03
 0.50630013E+02  0.18898E-03
 0.50680012E+02  0.10541E-03
 0.50730011E+02  0.32635E-04
 0.50780010E+02  0.47958E-04
 0.50830013E+02  0.92423E-04
 0.50880013E+02  0.22100E-04
 0.50930012E+02 -0.16934E-03
 0.50980011E+02 -0.37697E-03
 0.51030010E+02 -0.45560E-03
 0.51080013E+02 -0.24753E-03
 0.51130013E+02  0.58722E-04
 0.51180012E+02  0.17999E-03
 0.51230011E+02  0.11988E-03
 0.51280010E+02 -0.63476E-04
 0.51330013E+02 -0.25121E-03
 0.51380013E+02 -0.27779E-03
 0.51430012E+02 -0.18102E-03
 0.51480011E+02 -0.81344E-04
 0.51530010E+02 -0.64536E-05
 0.51580013E+02  0.13096E-03
 0.51630013E+02  0.35835E-03
 0.51680012E+02  0.51397E-03
 0.51730011E+02  0.43847E-03
 0.51780010E+02  0.21010E-03
 0.51830013E+02  0.45293E-04
 0.51880013E+02 -0.62810E-05
 0.51930012E+02  0.26259E-04
 0.51980011E+02  0.85034E-04
 0.52030010E+02  0.91665E-04
 0.52080013E+02  0.62985E-04
 0.52130013E+02 -0.30188E-04
 0.52180012E+02 -0.23964E-03
 0.52230011E+02 -0.47686E-03
 0.52280010E+02 -0.60770E-03
 0.52330013E+02 -0.58631E-03
 0.52380013E+02 -0.39726E-03
 0.52430012E+02 -0.11386E-03
 0.52480011E+02  0.52439E-04
 0.52530010E+02  0.39308E-04
 0.52580013E+02  0.49623E-04
 0.52630013E+02  0.18716E-03
 0.52680012E+02  0.31036E-03
 0.52730011E+02  0.37365E-03
 0.52780010E+02  0.36391E-03
 0.52830013E+02  0.22823E-03
 0.52880013E+02  0.31389E-04
 0.52930012E+02 -0.15003E-03
 0.52980011E+02 -0.21218E-03
 0.53030010E+02 -0.17755E-03
 0.53080013E+02 -0.95115E-04
 0.53130013E+02  0.69450E-04
 0.53180012E+02  0.21241E-03
 0.53230011E+02  0.29440E-03
 0.53280010E+02  0.32756E-03
 0.53330013E+02  0.32847E-03
 0.53380013E+02  0.34385E-03
 0.53430012E+02  0.34918E-03
 0.53480011E+02  0.28498E-03
 0.53530010E+02  0.12655E-03
 0.53580013E+02  0.39402E-05
 0.53630013E+02 -0.86628E-04
 0.53680012E+02 -0.25985E-03
 0.53730011E+02 -0.43163E-03
 0.53780010E+02 -0.53802E-03
 0.53830013E+02 -0.56597E-03
 0.53880013E+02 -0.52822E-03
 0.53930012E+02 -0.45276E-03
 0.53980011E+02 -0.32613E-03
 0.54030010E+02 -0.15854E-03
 0.54080013E+02  0.41558E-04
 0.54130013E+02  0.16015E-03
 0.54180012E+02  0.13225E-03
 0.54230011E+02  0.12550E-03
 0.54280010E+02  0.17003E-03
 0.54330013E+02  0.13268E-03
 0.54380013E+02  0.86842E-04
 0.54430012E+02  0.13657E-03
 0.54480011E+02  0.16332E-03
 0.54530010E+02  0.10363E-03
 0.54580013E+02  0.21964E-04
 0.54630013E+02 -0.41606E-05
 0.54680012E+02  0.12004E-03
 0.54730011E+02  0.28245E-03
 0.54780010E+02  0.29368E-03
 0.54830013E+02  0.20012E-03
 0.54880013E+02  0.88722E-04
 0.54930012E+02 -0.19276E-04
 0.54980011E+02 -0.11799E-03
 0.55030010E+02 -0.21703E-03
 0.55080013E+02 -0.28904E-03
 0.55130013E+02 -0.32716E-03
 0.55180012E+02 -0.32312E-03
 0.55230011E+02 -0.25627E-03
 0.55280010E+02 -0.20993E-03
 0.55330013E+02 -0.21974E-03
 0.55380013E+02 -0.16828E-03
 0.55430012E+02  0.16088E-05
 0.55480011E+02  0.21691E-03
 0.55530010E+02  0.41858E-03
 0.55580013E+02  0.57905E-03
 0.55630013E+02  0.64795E-03
 0.55680012E+02  0.62600E-03
 0.55730011E+02  0.55639E-03
 0.55780010E+02  0.45212E-03
 0.55830013E+02  0.26762E-03
 0.55880013E+02 -0.15455E-04
 0.55930012E+02 -0.30730E-03
 0.55980011E+02 -0.54754E-03
 0.56030010E+02 -0.70259E-03
 0.56080013E+02 -0.79377E-03
 0.56130013E+02 -0.85920E-03
 0.56180012E+02 -0.75191E-03
 0.56230011E+02 -0.46481E-03
 0.56280010E+02 -0.24906E-03
 0.56330013E+02 -0.12140E-03
 0.56380013E+02  0.72135E-04
 0.56430012E+02  0.31908E-03
 0.56480011E+02  0.50467E-03
 0.56530010E+02  0.56961E-03
 0.56580013E+02  0.57428E-03
 0.56630013E+02  0.50406E-03
 0.56680012E+02  0.34245E-03
 0.56730011E+02  0.19024E-03
 0.56780010E+02  0.12945E-03
 0.56830013E+02  0.17516E-03
 0.56880013E+02  0.17619E-03
 0.56930012E+02  0.26786E-04
 0.56980011E+02 -0.17086E-03
 0.57030010E+02 -0.22659E-03
 0.57080013E+02 -0.95736E-04
 0.57130013E+02  0.70872E-04
 0.57180012E+02  0.15661E-03
 0.57230011E+02  0.50065E-04
 0.57280010E+02 -0.12663E-03
 0.57330013E+02 -0.11627E-03
 0.57380013E+02 -0.16602E-04
 0.57430012E+02 -0.20447E-04
 0.57480011E+02 -0.12786E-03
 0.57530010E+02 -0.21474E-03
 0.57580013E+02 -0.23775E-03
 0.57630013E+02 -0.26152E-03
 0.57680012E+02 -0.33922E-03
 0.57730011E+02 -0.49904E-03
 0.57780010E+02 -0.59867E-03
 0.57830013E+02 -0.48987E-03
 0.57880013E+02 -0.23576E-03
 0.57930012E+02 -0.32759E-05
 0.57980011E+02  0.11042E-03
 0.58030010E+02  0.17211E-03
 0.58080013E+02  0.31812E-03
 0.58130013E+02  0.52282E-03
 0.58180012E+02  0.54929E-03
 0.58230011E+02  0.47470E-03
 0.58280010E+02  0.52894E-03
 0.58330013E+02  0.58969E-03
 0.58380013E+02  0.57284E-03
 0.58430012E+02  0.49367E-03
 0.58480011E+02  0.25455E-03
 0.58530010E+02 -0.50089E-04
 0.58580013E+02 -0.10655E-03
 0.58630013E+02 -0.66936E-04
 0.58680012E+02 -0.23010E-03
 0.58730011E+02 -0.42795E-03
 0.58780010E+02 -0.44056E-03
 0.58830013E+02 -0.16025E-03
 0.58880013E+02  0.17965E-03
 0.58930012E+02  0.21340E-03
 0.58980011E+02 -0.31985E-05
 0.59030010E+02 -0.27221E-03
 0.59080013E+02 -0.47757E-03
 0.59130013E+02 -0.54214E-03
 0.59180012E+02 -0.51968E-03
 0.59230011E+02 -0.43634E-03
 0.59280010E+02 -0.27567E-03
 0.59330013E+02 -0.24067E-03
 0.59380013E+02 -0.34487E-03
 0.59430012E+02 -0.29247E-03
 0.59480011E+02 -0.82213E-04
 0.59530010E+02  0.11858E-03
 0.59580013E+02  0.28433E-03
 0.59630013E+02  0.34062E-03
 0.59680012E+02  0.27859E-03
 0.59730011E+02  0.28844E-03
 0.59780010E+02  0.35963E-03
 0.59830013E+02  0.34312E-03
 0.59880013E+02  0.37409E-03
 0.59930012E+02  0.50182E-03
 0.59980011E+02  0.59829E-03
 0.60030010E+02  0.53243E-03
 0.60080013E+02  0.21195E-03
 0.60130013E+02 -0.59231E-04
 0.60180012E+02 -0.10142E-03
 0.60230011E+02 -0.19650E-03
 0.60280010E+02 -0.47173E-03
 0.60330013E+02 -0.68158E-03
 0.60380013E+02 -0.70447E-03
 0.60430012E+02 -0.69099E-03
 0.60480011E+02 -0.50246E-03
 0.60530010E+02 -0.74003E-04
 0.60580013E+02  0.32751E-03
 0.60630013E+02  0.55416E-03
 0.60680012E+02  0.63412E-03
 0.60730011E+02  0.74137E-03
 0.60780010E+02  0.74160E-03
 0.60830013E+02  0.46641E-03
 0.60880013E+02  0.28879E-03
 0.60930012E+02  0.29314E-03
 0.60980011E+02  0.17235E-03
 0.61030010E+02 -0.71976E-04
 0.61080013E+02 -0.31863E-03
 0.61130013E+02 -0.57713E-03
 0.61180012E+02 -0.86219E-03
 0.61230011E+02 -0.10733E-02
 0.61280010E+02 -0.10650E-02
 0.61330013E+02 -0.79202E-03
 0.61380013E+02 -0.40828E-03
 0.61430012E+02  0.28254E-07
 0.61480011E+02  0.53748E-03
 0.61530010E+02  0.91839E-03
 0.61580013E+02  0.83748E-03
 0.61630013E+02  0.52893E-03
 0.61680012E+02  0.19121E-03
 0.61730011E+02  0.52182E-04
 0.61780010E+02  0.14909E-03
 0.61830013E+02  0.22861E-04
 0.61880013E+02 -0.31182E-03
 0.61930012E+02 -0.54557E-03
 0.61980011E+02 -0.67236E-03
 0.62030010E+02 -0.74785E-03
 0.62080013E+02 -0.65522E-03
 0.62130013E+02 -0.22060E-03
 0.62180012E+02  0.24491E-03
 0.62230011E+02  0.44975E-03
 0.62280010E+02  0.67502E-03
 0.62330013E+02  0.93317E-03
 0.62380013E+02  0.87230E-03
 0.62430012E+02  0.67558E-03
 0.62480011E+02  0.62147E-03
 0.62530010E+02  0.51391E-03
 0.62580013E+02  0.10798E-03
 0.62630013E+02 -0.70661E-03
 0.62680012E+02 -0.16218E-02
 0.62730011E+02 -0.20198E-02
 0.62780010E+02 -0.18108E-02
 0.62830013E+02 -0.13043E-02
 0.62880013E+02 -0.53011E-03
 0.62930012E+02  0.21321E-03
 0.62980011E+02  0.51047E-03
 0.63030010E+02  0.73920E-03
 0.63080013E+02  0.13539E-02
 0.63130013E+02  0.20711E-02
 0.63180012E+02  0.22012E-02
 0.63230011E+02  0.16262E-02
 0.63280010E+02  0.99973E-03
 0.63330013E+02  0.69847E-03
 0.63380013E+02  0.45701E-03
 0.63430012E+02 -0.77660E-04
 0.63480011E+02 -0.72879E-03
 0.63530010E+02 -0.12391E-02
 0.63580013E+02 -0.16815E-02
 0.63630013E+02 -0.17540E-02
 0.63680012E+02 -0.14571E-02
 0.63730011E+02 -0.11971E-02
 0.63780010E+02 -0.81929E-03
 0.63830013E+02 -0.15692E-03
 0.63880013E+02  0.70573E-03
 0.63930012E+02  0.14542E-02
 0.63980011E+02  0.17143E-02
 0.64030014E+02  0.16326E-02
 0.64080009E+02  0.15978E-02
 0.64130013E+02  0.16613E-02
 0.64180016E+02  0.12416E-02
 0.64230011E+02  0.68947E-04
 0.64280014E+02 -0.12063E-02
 0.64330009E+02 -0.22225E-02
 0.64380013E+02 -0.28259E-02
 0.64430016E+02 -0.27459E-02
 0.64480011E+02 -0.21489E-02
 0.64530014E+02 -0.12976E-02
 0.64580009E+02 -0.42037E-03
 0.64630013E+02  0.17447E-03
 0.64680016E+02  0.47850E-03
 0.64730011E+02  0.71826E-03
 0.64780014E+02  0.91374E-03
 0.64830009E+02  0.10785E-02
 0.64880013E+02  0.11249E-02
 0.64930016E+02  0.79086E-03
 0.64980011E+02  0.28886E-03
 0.65030014E+02  0.29752E-04
 0.65080009E+02  0.82972E-04
 0.65130013E+02  0.33400E-03
 0.65180016E+02  0.50597E-03
 0.65230011E+02  0.45497E-03
 0.65280014E+02  0.46092E-03
 0.65330009E+02  0.48176E-03
 0.65380013E+02  0.12513E-03
 0.65430016E+02 -0.38115E-03
 0.65480011E+02 -0.53680E-03
 0.65530014E+02 -0.33039E-03
 0.65580009E+02 -0.14269E-03
 0.65630013E+02 -0.31588E-03
 0.65680016E+02 -0.53131E-03
 0.65730011E+02 -0.35127E-03
 0.65780014E+02 -0.30081E-04
 0.65830009E+02  0.73475E-04
 0.65880013E+02 -0.86015E-04
 0.65930016E+02 -0.33417E-03
 0.65980011E+02 -0.61860E-03
 0.66030014E+02 -0.78372E-03
 0.66080009E+02 -0.55936E-03
 0.66130013E+02 -0.18402E-03
 0.66180016E+02  0.23510E-03
 0.66230011E+02  0.51669E-03
 0.66280014E+02  0.41265E-03
 0.66330009E+02  0.41285E-03
 0.66380013E+02  0.81563E-03
 0.66430016E+02  0.14886E-02
 0.66480011E+02  0.21872E-02
 0.66530014E+02  0.24424E-02
 0.66580009E+02  0.20385E-02
 0.66630013E+02  0.13130E-02
 0.66680016E+02  0.63760E-03
 0.66730011E+02  0.37468E-04
 0.66780014E+02 -0.50342E-03
 0.66830009E+02 -0.93146E-03
 0.66880013E+02 -0.11973E-02
 0.66930016E+02 -0.13953E-02
 0.66980011E+02 -0.15256E-02
 0.67030014E+02 -0.14003E-02
 0.67080009E+02 -0.96840E-03
 0.67130013E+02 -0.33178E-03
 0.67180016E+02  0.78195E-05
 0.67230011E+02 -0.37626E-03
 0.67280014E+02 -0.94278E-03
 0.67330009E+02 -0.94352E-03
 0.67380013E+02 -0.52215E-03
 0.67430016E+02 -0.19799E-03
 0.67480011E+02 -0.50018E-04
 0.67530014E+02 -0.79787E-06
 0.67580009E+02 -0.45266E-04
 0.67630013E+02  0.18478E-04
 0.67680016E+02  0.27860E-03
 0.67730011E+02  0.44064E-03
 0.67780014E+02  0.20120E-03
 0.67830009E+02 -0.30711E-03
 0.67880013E+02 -0.51943E-03
 0.67930016E+02 -0.36117E-03
 0.67980011E+02 -0.29889E-03
 0.68030014E+02 -0.24761E-03
 0.68080009E+02  0.15943E-03
 0.68130013E+02  0.86755E-03
 0.68180016E+02  0.15119E-02
 0.68230011E+02  0.16745E-02
 0.68280014E+02  0.12024E-02
 0.68330009E+02  0.45086E-03
 0.68380013E+02 -0.44954E-04
 0.68430016E+02 -0.32342E-03
 0.68480011E+02 -0.67035E-03
 0.68530014E+02 -0.92450E-03
 0.68580009E+02 -0.87217E-03
 0.68630013E+02 -0.65527E-03
 0.68680016E+02 -0.51564E-03
 0.68730011E+02 -0.51281E-03
 0.68780014E+02 -0.56593E-03
 0.68830009E+02 -0.49105E-03
 0.68880013E+02 -0.23747E-03
 0.68930016E+02 -0.35193E-04
 0.68980011E+02 -0.24824E-04
 0.69030014E+02 -0.40843E-05
 0.69080009E+02  0.24173E-03
 0.69130013E+02  0.40769E-03
 0.69180016E+02  0.17413E-03
 0.69230011E+02 -0.16888E-03
 0.69280014E+02 -0.43862E-03
 0.69330009E+02 -0.77056E-03
 0.69380013E+02 -0.99381E-03
 0.69430016E+02 -0.94596E-03
 0.69480011E+02 -0.85805E-03
 0.69530014E+02 -0.71260E-03
 0.69580009E+02 -0.24602E-03
 0.69630013E+02  0.44159E-03
 0.69680016E+02  0.12233E-02
 0.69730011E+02  0.20711E-02
 0.69780014E+02  0.27899E-02
 0.69830009E+02  0.32747E-02
 0.69880013E+02  0.35263E-02
 0.69930016E+02  0.34489E-02
 0.69980011E+02  0.30086E-02
 0.70030014E+02  0.20945E-02
 0.70080009E+02  0.73910E-03
 0.70130013E+02 -0.46474E-03
 0.70180016E+02 -0.12934E-02
 0.70230011E+02 -0.20369E-02
 0.70280014E+02 -0.26406E-02
 0.70330009E+02 -0.29756E-02
 0.70380013E+02 -0.31448E-02
 0.70430016E+02 -0.31488E-02
 0.70480011E+02 -0.27690E-02
 0.70530014E+02 -0.19242E-02
 0.70580009E+02 -0.72900E-03
 0.70630013E+02  0.57825E-03
 0.70680016E+02  0.15089E-02
 0.70730011E+02  0.16622E-02
 0.70780014E+02  0.11719E-02
 0.70830009E+02  0.70302E-03
 0.70880013E+02  0.43821E-03
 0.70930016E+02  0.87110E-04
 0.70980011E+02 -0.50111E-04
 0.71030014E+02  0.83198E-04
 0.71080009E+02  0.13660E-04
 0.71130013E+02 -0.35871E-03
 0.71180016E+02 -0.84958E-03
 0.71230011E+02 -0.11519E-02
 0.71280014E+02 -0.98322E-03
 0.71330009E+02 -0.53891E-03
 0.71380013E+02 -0.14509E-03
 0.71430016E+02  0.23354E-03
 0.71480011E+02  0.53555E-03
 0.71530014E+02  0.66298E-03
 0.71580009E+02  0.70170E-03
 0.71630013E+02  0.58091E-03
 0.71680016E+02  0.25303E-03
 0.71730011E+02 -0.32251E-03
 0.71780014E+02 -0.10258E-02
 0.71830009E+02 -0.13296E-02
 0.71880013E+02 -0.97110E-03
 0.71930016E+02 -0.15753E-03
 0.71980011E+02  0.68821E-03
 0.72030014E+02  0.11812E-02
 0.72080009E+02  0.12600E-02
 0.72130013E+02  0.10809E-02
 0.72180016E+02  0.89233E-03
 0.72230011E+02  0.84418E-03
 0.72280014E+02  0.85793E-03
 0.72330009E+02  0.81615E-03
 0.72380013E+02  0.57791E-03
 0.72430016E+02  0.36242E-04
 0.72480011E+02 -0.45377E-03
 0.72530014E+02 -0.47990E-03
 0.72580009E+02 -0.25346E-03
 0.72630013E+02 -0.25379E-03
 0.72680016E+02 -0.73983E-03
 0.72730011E+02 -0.13592E-02
 0.72780014E+02 -0.15227E-02
 0.72830009E+02 -0.13137E-02
 0.72880013E+02 -0.11505E-02
 0.72930016E+02 -0.10842E-02
 0.72980011E+02 -0.10378E-02
 0.73030014E+02 -0.94296E-03
 0.73080009E+02 -0.44237E-03
 0.73130013E+02  0.53999E-03
 0.73180016E+02  0.15339E-02
 0.73230011E+02  0.22481E-02
 0.73280014E+02  0.26415E-02
 0.73330009E+02  0.27049E-02
 0.73380013E+02  0.24605E-02
 0.73430016E+02  0.19675E-02
 0.73480011E+02  0.13376E-02
 0.73530014E+02  0.75865E-03
 0.73580009E+02  0.32063E-03
 0.73630013E+02 -0.97641E-04
 0.73680016E+02 -0.37714E-03
 0.73730011E+02 -0.31471E-03
 0.73780014E+02 -0.10067E-03
 0.73830009E+02 -0.14483E-04
 0.73880013E+02 -0.12056E-03
 0.73930016E+02 -0.37955E-03
 0.73980011E+02 -0.75903E-03
 0.74030014E+02 -0.11357E-02
 0.74080009E+02 -0.13301E-02
 0.74130013E+02 -0.12101E-02
 0.74180016E+02 -0.80745E-03
 0.74230011E+02 -0.51087E-03
 0.74280014E+02 -0.86588E-03
 0.74330009E+02 -0.17823E-02
 0.74380013E+02 -0.24550E-02
 0.74430016E+02 -0.24794E-02
 0.74480011E+02 -0.20351E-02
 0.74530014E+02 -0.13647E-02
 0.74580009E+02 -0.78604E-03
 0.74630013E+02 -0.45026E-03
 0.74680016E+02 -0.72585E-04
 0.74730011E+02  0.62421E-03
 0.74780014E+02  0.14783E-02
 0.74830009E+02  0.21328E-02
 0.74880013E+02  0.22576E-02
 0.74930016E+02  0.18242E-02
 0.74980011E+02  0.12315E-02
 0.75030014E+02  0.73443E-03
 0.75080009E+02  0.27793E-03
 0.75130013E+02 -0.23534E-03
 0.75180016E+02 -0.91664E-03
 0.75230011E+02 -0.16602E-02
 0.75280014E+02 -0.20106E-02
 0.75330009E+02 -0.16275E-02
 0.75380013E+02 -0.63645E-03
 0.75430016E+02  0.54035E-03
 0.75480011E+02  0.15002E-02
 0.75530014E+02  0.20053E-02
 0.75580009E+02  0.21145E-02
 0.75630013E+02  0.20459E-02
 0.75680016E+02  0.18052E-02
 0.75730011E+02  0.13505E-02
 0.75780014E+02  0.80001E-03
 0.75830009E+02  0.20021E-03
 0.75880013E+02 -0.53082E-03
 0.75930016E+02 -0.11959E-02
 0.75980011E+02 -0.14817E-02
 0.76030014E+02 -0.14997E-02
 0.76080009E+02 -0.14464E-02
 0.76130013E+02 -0.13599E-02
 0.76180016E+02 -0.13020E-02
 0.76230011E+02 -0.12458E-02
 0.76280014E+02 -0.96014E-03
 0.76330009E+02 -0.22707E-03
 0.76380013E+02  0.76423E-03
 0.76430016E+02  0.15565E-02
 0.76480011E+02  0.19576E-02
 0.76530014E+02  0.20693E-02
 0.76580009E+02  0.20438E-02
 0.76630013E+02  0.20340E-02
 0.76680016E+02  0.20989E-02
 0.76730011E+02  0.19884E-02
 0.76780014E+02  0.13455E-02
 0.76830009E+02  0.27554E-03
 0.76880013E+02 -0.86625E-03
 0.76930016E+02 -0.18681E-02
 0.76980011E+02 -0.25083E-02
 0.77030014E+02 -0.27010E-02
 0.77080009E+02 -0.25770E-02
 0.77130013E+02 -0.22306E-02
 0.77180016E+02 -0.16369E-02
 0.77230011E+02 -0.93367E-03
 0.77280014E+02 -0.40304E-03
 0.77330009E+02 -0.13440E-04
 0.77380013E+02  0.45300E-03
 0.77430016E+02  0.88756E-03
 0.77480011E+02  0.10055E-02
 0.77530014E+02  0.90463E-03
 0.77580009E+02  0.79378E-03
 0.77630013E+02  0.63356E-03
 0.77680016E+02  0.43551E-03
 0.77730011E+02  0.27211E-03
 0.77780014E+02  0.18165E-03
 0.77830009E+02  0.13678E-03
 0.77880013E+02  0.60038E-04
 0.77930016E+02 -0.53808E-04
 0.77980011E+02 -0.29597E-03
 0.78030014E+02 -0.74016E-03
 0.78080009E+02 -0.11397E-02
 0.78130013E+02 -0.11431E-02
 0.78180016E+02 -0.68783E-03
 0.78230011E+02 -0.67334E-04
 0.78280014E+02  0.39134E-03
 0.78330009E+02  0.61078E-03
 0.78380013E+02  0.71348E-03
 0.78430016E+02  0.78050E-03
 0.78480011E+02  0.78251E-03
 0.78530014E+02  0.70827E-03
 0.78580009E+02  0.55591E-03
 0.78630013E+02  0.37068E-03
 0.78680016E+02  0.23753E-03
 0.78730011E+02  0.20622E-03
 0.78780014E+02  0.17348E-03
 0.78830009E+02 -0.98643E-04
 0.78880013E+02 -0.61710E-03
 0.78930016E+02 -0.11535E-02
 0.78980011E+02 -0.15118E-02
 0.79030014E+02 -0.15918E-02
 0.79080009E+02 -0.13193E-02
 0.79130013E+02 -0.68694E-03
 0.79180016E+02  0.11331E-03
 0.79230011E+02  0.89361E-03
 0.79280014E+02  0.16474E-02
 0.79330009E+02  0.22489E-02
 0.79380013E+02  0.24287E-02
 0.79430016E+02  0.22529E-02
 0.79480011E+02  0.18864E-02
 0.79530014E+02  0.11631E-02
 0.79580009E+02  0.11117E-03
 0.79630013E+02 -0.86029E-03
 0.79680016E+02 -0.13898E-02
 0.79730011E+02 -0.14217E-02
 0.79780014E+02 -0.12450E-02
 0.79830009E+02 -0.10724E-02
 0.79880013E+02 -0.85421E-03
 0.79930016E+02 -0.48292E-03
 0.79980011E+02  0.38758E-04
 0.80030014E+02  0.50063E-03
 0.80080009E+02  0.74314E-03
 0.80130013E+02  0.72236E-03
 0.80180016E+02  0.37390E-03
 0.80230011E+02 -0.17123E-03
 0.80280014E+02 -0.56061E-03
 0.80330009E+02 -0.62521E-03
 0.80380013E+02 -0.43066E-03
 0.80430016E+02 -0.11876E-03
 0.80480011E+02  0.83154E-04
 0.80530014E+02  0.32083E-04
 0.80580009E+02 -0.26341E-03
 0.80630013E+02 -0.66473E-03
 0.80680016E+02 -0.10078E-02
 0.80730011E+02 -0.12431E-02
 0.80780014E+02 -0.13876E-02
 0.80830009E+02 -0.14168E-02
 0.80880013E+02 -0.11584E-02
 0.80930016E+02 -0.52045E-03
 0.80980011E+02  0.31248E-03
 0.81030014E+02  0.98059E-03
 0.81080009E+02  0.13087E-02
 0.81130013E+02  0.14423E-02
 0.81180016E+02  0.14147E-02
 0.81230011E+02  0.11783E-02
 0.81280014E+02  0.83688E-03
 0.81330009E+02  0.50990E-03
 0.81380013E+02  0.17560E-03
 0.81430016E+02 -0.25127E-03
 0.81480011E+02 -0.66529E-03
 0.81530014E+02 -0.91485E-03
 0.81580009E+02 -0.96392E-03
 0.81630013E+02 -0.81422E-03
 0.81680016E+02 -0.58284E-03
 0.81730011E+02 -0.44379E-03
 0.81780014E+02 -0.42250E-03
 0.81830009E+02 -0.38913E-03
 0.81880013E+02 -0.21928E-03
 0.81930016E+02  0.10176E-03
 0.81980011E+02  0.54945E-03
 0.82030014E+02  0.10293E-02
 0.82080009E+02  0.13261E-02
 0.82130013E+02  0.13290E-02
 0.82180016E+02  0.11443E-02
 0.82230011E+02  0.95558E-03
 0.82280014E+02  0.79180E-03
 0.82330009E+02  0.53694E-03
 0.82380013E+02  0.23641E-03
 0.82430016E+02  0.36168E-05
 0.82480011E+02 -0.22032E-03
 0.82530014E+02 -0.43574E-03
 0.82580009E+02 -0.54531E-03
 0.82630013E+02 -0.60842E-03
 0.82680016E+02 -0.64260E-03
 0.82730011E+02 -0.44964E-03
 0.82780014E+02  0.28033E-04
 0.82830009E+02  0.52588E-03
 0.82880013E+02  0.81788E-03
 0.82930016E+02  0.91095E-03
 0.82980011E+02  0.85583E-03
 0.83030014E+02  0.65216E-03
 0.83080009E+02  0.31692E-03
 0.83130013E+02 -0.38108E-04
 0.83180016E+02 -0.34438E-03
 0.83230011E+02 -0.64183E-03
 0.83280014E+02 -0.81585E-03
 0.83330009E+02 -0.67835E-03
 0.83380013E+02 -0.40659E-03
 0.83430016E+02 -0.34304E-03
 0.83480011E+02 -0.49541E-03
 0.83530014E+02 -0.70365E-03
 0.83580009E+02 -0.92547E-03
 0.83630013E+02 -0.11294E-02
 0.83680016E+02 -0.11727E-02
 0.83730011E+02 -0.92905E-03
 0.83780014E+02 -0.42956E-03
 0.83830009E+02  0.15758E-03
 0.83880013E+02  0.61157E-03
 0.83930016E+02  0.76931E-03
 0.83980011E+02  0.66146E-03
 0.84030014E+02  0.56517E-03
 0.84080009E+02  0.70093E-03
 0.84130013E+02  0.96849E-03
 0.84180016E+02  0.11555E-02
 0.84230011E+02  0.11938E-02
 0.84280014E+02  0.11386E-02
 0.84330009E+02  0.10044E-02
 0.84380013E+02  0.74103E-03
 0.84430016E+02  0.36791E-03
 0.84480011E+02 -0.68964E-04
 0.84530014E+02 -0.55374E-03
 0.84580009E+02 -0.98949E-03
 0.84630013E+02 -0.12766E-02
 0.84680016E+02 -0.13959E-02
 0.84730011E+02 -0.13547E-02
 0.84780014E+02 -0.11997E-02
 0.84830009E+02 -0.10027E-02
 0.84880013E+02 -0.87188E-03
 0.84930016E+02 -0.94087E-03
 0.84980011E+02 -0.12028E-02
 0.85030014E+02 -0.14859E-02
 0.85080009E+02 -0.16805E-02
 0.85130013E+02 -0.17728E-02
 0.85180016E+02 -0.16610E-02
 0.85230011E+02 -0.12009E-02
 0.85280014E+02 -0.39519E-03
 0.85330009E+02  0.59724E-03
 0.85380013E+02  0.15420E-02
 0.85430016E+02  0.22703E-02
 0.85480011E+02  0.27464E-02
 0.85530014E+02  0.29262E-02
 0.85580009E+02  0.27776E-02
 0.85630013E+02  0.23857E-02
 0.85680016E+02  0.19040E-02
 0.85730011E+02  0.14564E-02
 0.85780014E+02  0.10789E-02
 0.85830009E+02  0.73064E-03
 0.85880013E+02  0.33375E-03
 0.85930016E+02 -0.13283E-03
 0.85980011E+02 -0.55836E-03
 0.86030014E+02 -0.76372E-03
 0.86080009E+02 -0.74729E-03
 0.86130013E+02 -0.69957E-03
 0.86180016E+02 -0.71356E-03
 0.86230011E+02 -0.79438E-03
 0.86280014E+02 -0.92578E-03
 0.86330009E+02 -0.10136E-02
 0.86380013E+02 -0.10395E-02
 0.86430016E+02 -0.10813E-02
 0.86480011E+02 -0.11675E-02
 0.86530014E+02 -0.12816E-02
 0.86580009E+02 -0.13551E-02
 0.86630013E+02 -0.13049E-02
 0.86680016E+02 -0.10919E-02
 0.86730011E+02 -0.69368E-03
 0.86780014E+02 -0.12954E-03
 0.86830009E+02  0.53188E-03
 0.86880013E+02  0.12245E-02
 0.86930016E+02  0.18396E-02
 0.86980011E+02  0.21856E-02
 0.87030014E+02  0.21935E-02
 0.87080009E+02  0.20510E-02
 0.87130013E+02  0.19690E-02
 0.87180016E+02  0.19530E-02
 0.87230011E+02  0.19434E-02
 0.87280014E+02  0.18792E-02
 0.87330009E+02  0.15441E-02
 0.87380013E+02  0.79091E-03
 0.87430016E+02 -0.22159E-03
 0.87480011E+02 -0.11531E-02
 0.87530014E+02 -0.17540E-02
 0.87580009E+02 -0.20621E-02
 0.87630013E+02 -0.22504E-02
 0.87680016E+02 -0.24138E-02
 0.87730011E+02 -0.25366E-02
 0.87780014E+02 -0.25674E-02
 0.87830009E+02 -0.24486E-02
 0.87880013E+02 -0.21592E-02
 0.87930016E+02 -0.17555E-02
 0.87980011E+02 -0.12478E-02
 0.88030014E+02 -0.62292E-03
 0.88080009E+02  0.10518E-03
 0.88130013E+02  0.89815E-03
 0.88180016E+02  0.15953E-02
 0.88230011E+02  0.20167E-02
 0.88280014E+02  0.21077E-02
 0.88330009E+02  0.18955E-02
 0.88380013E+02  0.14715E-02
 0.88430016E+02  0.10120E-02
 0.88480011E+02  0.64756E-03
 0.88530014E+02  0.40211E-03
 0.88580009E+02  0.29811E-03
 0.88630013E+02  0.27787E-03
 0.88680016E+02  0.20918E-03
 0.88730011E+02  0.49242E-04
 0.88780014E+02 -0.22659E-03
 0.88830009E+02 -0.62071E-03
 0.88880013E+02 -0.93996E-03
 0.88930016E+02 -0.98970E-03
 0.88980011E+02 -0.77006E-03
 0.89030014E+02 -0.27285E-03
 0.89080009E+02  0.48019E-03
 0.89130013E+02  0.12497E-02
 0.89180016E+02  0.17080E-02
 0.89230011E+02  0.16896E-02
 0.89280014E+02  0.12335E-02
 0.89330009E+02  0.51907E-03
 0.89380013E+02 -0.17760E-03
 0.89430016E+02 -0.71700E-03
 0.89480011E+02 -0.11470E-02
 0.89530014E+02 -0.14692E-02
 0.89580009E+02 -0.15458E-02
 0.89630013E+02 -0.12907E-02
 0.89680016E+02 -0.83663E-03
 0.89730011E+02 -0.31269E-03
 0.89780014E+02  0.31424E-03
 0.89830009E+02  0.10492E-02
 0.89880013E+02  0.17394E-02
 0.89930016E+02  0.21926E-02
 0.89980011E+02  0.23010E-02
 0.90030014E+02  0.20216E-02
 0.90080009E+02  0.13899E-02
 0.90130013E+02  0.54396E-03
 0.90180016E+02 -0.37341E-03
 0.90230011E+02 -0.12402E-02
 0.90280014E+02 -0.19299E-02
 0.90330009E+02 -0.23971E-02
 0.90380013E+02 -0.26562E-02
 0.90430016E+02 -0.26804E-02
 0.90480011E+02 -0.24674E-02
 0.90530014E+02 -0.20811E-02
 0.90580009E+02 -0.15976E-02
 0.90630013E+02 -0.10679E-02
 0.90680016E+02 -0.48451E-03
 0.90730011E+02  0.13481E-03
 0.90780014E+02  0.69349E-03
 0.90830009E+02  0.11525E-02
 0.90880013E+02  0.15416E-02
 0.90930016E+02  0.18454E-02
 0.90980011E+02  0.20450E-02
 0.91030014E+02  0.21107E-02
 0.91080009E+02  0.19904E-02
 0.91130013E+02  0.16901E-02
 0.91180016E+02  0.12105E-02
 0.91230011E+02  0.56750E-03
 0.91280014E+02 -0.91642E-04
 0.91330009E+02 -0.56133E-03
 0.91380013E+02 -0.77212E-03
 0.91430016E+02 -0.83075E-03
 0.91480011E+02 -0.83293E-03
 0.91530014E+02 -0.75105E-03
 0.91580009E+02 -0.53139E-03
 0.91630013E+02 -0.22927E-03
 0.91680016E+02  0.30226E-04
 0.91730011E+02  0.18401E-03
 0.91780014E+02  0.21574E-03
 0.91830009E+02  0.13602E-03
 0.91880013E+02  0.21820E-04
 0.91930016E+02 -0.28343E-04
 0.91980011E+02  0.23632E-04
 0.92030014E+02  0.10091E-03
 0.92080009E+02  0.48472E-04
 0.92130013E+02 -0.25927E-03
 0.92180016E+02 -0.80505E-03
 0.92230011E+02 -0.13919E-02
 0.92280014E+02 -0.18067E-02
 0.92330009E+02 -0.19508E-02
 0.92380013E+02 -0.17572E-02
 0.92430016E+02 -0.11933E-02
 0.92480011E+02 -0.35543E-03
 0.92530014E+02  0.62232E-03
 0.92580009E+02  0.15918E-02
 0.92630013E+02  0.23083E-02
 0.92680016E+02  0.25931E-02
 0.92730011E+02  0.24736E-02
 0.92780014E+02  0.20846E-02
 0.92830009E+02  0.15389E-02
 0.92880013E+02  0.87729E-03
 0.92930016E+02  0.16589E-03
 0.92980011E+02 -0.45375E-03
 0.93030014E+02 -0.88640E-03
 0.93080009E+02 -0.11276E-02
 0.93130013E+02 -0.12088E-02
 0.93180016E+02 -0.11658E-02
 0.93230011E+02 -0.10186E-02
 0.93280014E+02 -0.79741E-03
 0.93330009E+02 -0.55550E-03
 0.93380013E+02 -0.29666E-03
 0.93430016E+02 -0.21738E-04
 0.93480011E+02  0.14093E-03
 0.93530014E+02  0.79193E-04
 0.93580009E+02 -0.10300E-03
 0.93630013E+02 -0.22366E-03
 0.93680016E+02 -0.24683E-03
 0.93730011E+02 -0.21959E-03
 0.93780014E+02 -0.14676E-03
 0.93830009E+02 -0.28232E-04
 0.93880013E+02  0.93662E-04
 0.93930016E+02  0.16136E-03
 0.93980011E+02  0.16158E-03
 0.94030014E+02  0.12407E-03
 0.94080009E+02  0.12580E-03
 0.94130013E+02  0.24037E-03
 0.94180016E+02  0.43623E-03
 0.94230011E+02  0.64429E-03
 0.94280014E+02  0.85112E-03
 0.94330009E+02  0.10412E-02
 0.94380013E+02  0.11220E-02
 0.94430016E+02  0.10439E-02
 0.94480011E+02  0.88298E-03
 0.94530014E+02  0.67468E-03
 0.94580009E+02  0.36887E-03
 0.94630013E+02 -0.26767E-04
 0.94680016E+02 -0.41356E-03
 0.94730011E+02 -0.73880E-03
 0.94780014E+02 -0.99165E-03
 0.94830009E+02 -0.11101E-02
 0.94880013E+02 -0.10834E-02
 0.94930016E+02 -0.95426E-03
 0.94980011E+02 -0.78282E-03
 0.95030014E+02 -0.67655E-03
 0.95080009E+02 -0.68396E-03
 0.95130013E+02 -0.72142E-03
 0.95180016E+02 -0.63554E-03
 0.95230011E+02 -0.36598E-03
 0.95280014E+02 -0.34602E-04
 0.95330009E+02  0.17807E-03
 0.95380013E+02  0.23845E-03
 0.95430016E+02  0.22246E-03
 0.95480011E+02  0.14494E-03
 0.95530014E+02  0.34329E-04
 0.95580009E+02 -0.62680E-04
 0.95630013E+02 -0.16100E-03
 0.95680016E+02 -0.22442E-03
 0.95730011E+02 -0.13843E-03
 0.95780014E+02  0.13406E-03
 0.95830009E+02  0.48683E-03
 0.95880013E+02  0.77641E-03
 0.95930016E+02  0.93205E-03
 0.95980011E+02  0.92887E-03
 0.96030014E+02  0.76604E-03
 0.96080009E+02  0.53387E-03
 0.96130013E+02  0.33660E-03
 0.96180016E+02  0.18174E-03
 0.96230011E+02  0.51028E-04
 0.96280014E+02 -0.14674E-04
 0.96330009E+02  0.21138E-04
 0.96380013E+02  0.11180E-03
 0.96430016E+02  0.19519E-03
 0.96480011E+02  0.24430E-03
 0.96530014E+02  0.22421E-03
 0.96580009E+02  0.11034E-03
 0.96630013E+02 -0.63539E-04
 0.96680016E+02 -0.23946E-03
 0.96730011E+02 -0.40411E-03
 0.96780014E+02 -0.58194E-03
 0.96830009E+02 -0.77995E-03
 0.96880013E+02 -0.95928E-03
 0.96930016E+02 -0.10443E-02
 0.96980011E+02 -0.98515E-03
 0.97030014E+02 -0.75753E-03
 0.97080009E+02 -0.35544E-03
 0.97130013E+02  0.14965E-03
 0.97180016E+02  0.62191E-03
 0.97230011E+02  0.91586E-03
 0.97280014E+02  0.98292E-03
 0.97330009E+02  0.88545E-03
 0.97380013E+02  0.69571E-03
 0.97430016E+02  0.47703E-03
 0.97480011E+02  0.27007E-03
 0.97530014E+02  0.11491E-03
 0.97580009E+02  0.41259E-04
 0.97630013E+02  0.47980E-05
 0.97680016E+02 -0.60495E-04
 0.97730011E+02 -0.15146E-03
 0.97780014E+02 -0.20675E-03
 0.97830009E+02 -0.19115E-03
 0.97880013E+02 -0.11944E-03
 0.97930016E+02 -0.53289E-04
 0.97980011E+02 -0.42698E-04
 0.98030014E+02 -0.49250E-04
 0.98080009E+02 -0.22551E-04
 0.98130013E+02  0.11289E-04
 0.98180016E+02  0.33572E-04
 0.98230011E+02  0.84785E-04
 0.98280014E+02  0.12494E-03
 0.98330009E+02  0.69410E-04
 0.98380013E+02 -0.52723E-04
 0.98430016E+02 -0.15670E-03
 0.98480011E+02 -0.22265E-03
 0.98530014E+02 -0.28995E-03
 0.98580009E+02 -0.38130E-03
 0.98630013E+02 -0.48687E-03
 0.98680016E+02 -0.57525E-03
 0.98730011E+02 -0.60676E-03
 0.98780014E+02 -0.53177E-03
 0.98830009E+02 -0.33239E-03
 0.98880013E+02 -0.87855E-04
 0.98930016E+02  0.13866E-03
 0.98980011E+02  0.36046E-03
 0.99030014E+02  0.54955E-03
 0.99080009E+02  0.67179E-03
 0.99130013E+02  0.75984E-03
 0.99180016E+02  0.82322E-03
 0.99230011E+02  0.78748E-03
 0.99280014E+02  0.57413E-03
 0.99330009E+02  0.18198E-03
 0.99380013E+02 -0.32472E-03
 0.99430016E+02 -0.80195E-03
 0.99480011E+02 -0.11075E-02
 0.99530014E+02 -0.12342E-02
 0.99580009E+02 -0.12276E-02
 0.99630013E+02 -0.10655E-02
 0.99680016E+02 -0.72424E-03
 0.99730011E+02 -0.27575E-03
 0.99780014E+02  0.17147E-03
 0.99830009E+02  0.54573E-03
 0.99880013E+02  0.79597E-03
 0.99930016E+02  0.87506E-03
 0.99980011E+02  0.76067E-03
 0.10003001E+03  0.49001E-03
 0.10008001E+03  0.11142E-03
 0.10013001E+03 -0.33448E-03
 0.10018002E+03 -0.71369E-03
 0.10023001E+03 -0.87335E-03
 0.10028001E+03 -0.77241E-03
 0.10033001E+03 -0.44662E-03
 0.10038001E+03  0.14827E-04
 0.10043002E+03  0.50382E-03
 0.10048001E+03  0.95122E-03
 0.10053001E+03  0.13193E-02
 0.10058001E+03  0.15348E-02
 0.10063001E+03  0.15369E-02
 0.10068002E+03  0.13683E-02
 0.10073001E+03  0.10833E-02
 0.10078001E+03  0.70414E-03
 0.10083001E+03  0.28647E-03
 0.10088001E+03 -0.10260E-03
 0.10093002E+03 -0.43402E-03
 0.10098001E+03 -0.70027E-03
 0.10103001E+03 -0.88051E-03
 0.10108001E+03 -0.95024E-03
 0.10113001E+03 -0.93584E-03
 0.10118002E+03 -0.89296E-03
 0.10123001E+03 -0.83010E-03
 0.10128001E+03 -0.72467E-03
 0.10133001E+03 -0.56044E-03
 0.10138001E+03 -0.33493E-03
 0.10143002E+03 -0.73996E-04
 0.10148001E+03  0.18666E-03
 0.10153001E+03  0.44227E-03
 0.10158001E+03  0.70335E-03
 0.10163001E+03  0.95209E-03
 0.10168002E+03  0.11386E-02
 0.10173001E+03  0.12001E-02
 0.10178001E+03  0.10963E-02
 0.10183001E+03  0.83415E-03
 0.10188001E+03  0.47016E-03
 0.10193002E+03  0.82294E-04
 0.10198001E+03 -0.28341E-03
 0.10203001E+03 -0.58831E-03
 0.10208001E+03 -0.80215E-03
 0.10213001E+03 -0.94560E-03
 0.10218002E+03 -0.10253E-02
 0.10223001E+03 -0.10007E-02
 0.10228001E+03 -0.85022E-03
 0.10233001E+03 -0.62614E-03
 0.10238001E+03 -0.42610E-03
 0.10243002E+03 -0.31992E-03
 0.10248001E+03 -0.29849E-03
 0.10253001E+03 -0.28630E-03
 0.10258001E+03 -0.24992E-03
 0.10263001E+03 -0.21122E-03
 0.10268002E+03 -0.16391E-03
 0.10273001E+03 -0.66057E-04
 0.10278001E+03  0.13233E-03
 0.10283001E+03  0.41866E-03
 0.10288001E+03  0.67726E-03
 0.10293002E+03  0.81755E-03
 0.10298001E+03  0.83614E-03
 0.10303001E+03  0.69989E-03
 0.10308001E+03  0.38826E-03
 0.10313001E+03 -0.14633E-04
 0.10318002E+03 -0.39410E-03
 0.10323001E+03 -0.67644E-03
 0.10328001E+03 -0.86207E-03
 0.10333001E+03 -0.95077E-03
 0.10338001E+03 -0.90293E-03
 0.10343002E+03 -0.71574E-03
 0.10348001E+03 -0.40251E-03
 0.10353001E+03  0.22341E-04
 0.10358001E+03  0.52361E-03
 0.10363001E+03  0.10347E-02
 0.10368002E+03  0.14393E-02
 0.10373001E+03  0.16396E-02
 0.10378001E+03  0.16066E-02
 0.10383001E+03  0.13431E-02
 0.10388001E+03  0.88918E-03
 0.10393002E+03  0.33807E-03
 0.10398001E+03 -0.20203E-03
 0.10403001E+03 -0.65297E-03
 0.10408001E+03 -0.96341E-03
 0.10413001E+03 -0.10896E-02
 0.10418002E+03 -0.10486E-02
 0.10423001E+03 -0.93385E-03
 0.10428001E+03 -0.83565E-03
 0.10433001E+03 -0.75871E-03
 0.10438001E+03 -0.64679E-03
 0.10443002E+03 -0.50318E-03
 0.10448001E+03 -0.37041E-03
 0.10453001E+03 -0.26346E-03
 0.10458001E+03 -0.16309E-03
 0.10463001E+03 -0.31117E-04
 0.10468002E+03  0.15213E-03
 0.10473001E+03  0.40068E-03
 0.10478001E+03  0.67162E-03
 0.10483001E+03  0.87013E-03
 0.10488001E+03  0.97440E-03
 0.10493002E+03  0.10044E-02
 0.10498001E+03  0.94482E-03
 0.10503001E+03  0.78138E-03
 0.10508001E+03  0.52375E-03
 0.10513001E+03  0.19193E-03
 0.10518002E+03 -0.17478E-03
 0.10523001E+03 -0.49748E-03
 0.10528001E+03 -0.67911E-03
 0.10533001E+03 -0.65866E-03
 0.10538001E+03 -0.45272E-03
 0.10543002E+03 -0.15749E-03
 0.10548001E+03  0.96703E-04
 0.10553001E+03  0.22227E-03
 0.10558001E+03  0.21101E-03
 0.10563001E+03  0.92330E-04
 0.10568002E+03 -0.96460E-04
 0.10573001E+03 -0.30221E-03
 0.10578001E+03 -0.46886E-03
 0.10583001E+03 -0.54866E-03
 0.10588001E+03 -0.49968E-03
 0.10593002E+03 -0.31247E-03
 0.10598001E+03 -0.32718E-04
 0.10603001E+03  0.24170E-03
 0.10608001E+03  0.41806E-03
 0.10613001E+03  0.50497E-03
 0.10618002E+03  0.56311E-03
 0.10623001E+03  0.57114E-03
 0.10628001E+03  0.47237E-03
 0.10633001E+03  0.27422E-03
 0.10638001E+03  0.19597E-04
 0.10643002E+03 -0.24818E-03
 0.10648001E+03 -0.48789E-03
 0.10653001E+03 -0.65806E-03
 0.10658001E+03 -0.72319E-03
 0.10663001E+03 -0.66987E-03
 0.10668002E+03 -0.51502E-03
 0.10673001E+03 -0.30054E-03
 0.10678001E+03 -0.80356E-04
 0.10683001E+03  0.11144E-03
 0.10688001E+03  0.26654E-03
 0.10693002E+03  0.33913E-03
 0.10698001E+03  0.27865E-03
 0.10703001E+03  0.11157E-03
 0.10708001E+03 -0.90969E-04
 0.10713001E+03 -0.24471E-03
 0.10718002E+03 -0.27237E-03
 0.10723001E+03 -0.15518E-03
 0.10728001E+03  0.65232E-04
 0.10733001E+03  0.32334E-03
 0.10738001E+03  0.55384E-03
 0.10743002E+03  0.70420E-03
 0.10748001E+03  0.73766E-03
 0.10753001E+03  0.63209E-03
 0.10758001E+03  0.40546E-03
 0.10763001E+03  0.13645E-03
 0.10768002E+03 -0.73604E-04
 0.10773001E+03 -0.17432E-03
 0.10778001E+03 -0.21252E-03
 0.10783001E+03 -0.25492E-03
 0.10788001E+03 -0.30418E-03
 0.10793002E+03 -0.34444E-03
 0.10798001E+03 -0.35800E-03
 0.10803001E+03 -0.31301E-03
 0.10808001E+03 -0.21237E-03
 0.10813001E+03 -0.11008E-03
 0.10818002E+03 -0.55686E-04
 0.10823001E+03 -0.43397E-04
 0.10828001E+03 -0.47009E-04
 0.10833001E+03 -0.66783E-04
 0.10838001E+03 -0.98759E-04
 0.10843002E+03 -0.11700E-03
 0.10848001E+03 -0.11449E-03
 0.10853001E+03 -0.11000E-03
 0.10858001E+03 -0.10120E-03
 0.10863001E+03 -0.69857E-04
 0.10868002E+03 -0.47158E-05
 0.10873001E+03  0.94628E-04
 0.10878001E+03  0.20316E-03
 0.10883001E+03  0.31762E-03
 0.10888001E+03  0.45219E-03
 0.10893002E+03  0.56409E-03
 0.10898001E+03  0.60219E-03
 0.10903001E+03  0.59032E-03
 0.10908001E+03  0.57444E-03
 0.10913001E+03  0.53635E-03
 0.10918002E+03  0.43799E-03
 0.10923001E+03  0.27733E-03
 0.10928001E+03  0.74380E-04
 0.10933001E+03 -0.13775E-03
 0.10938001E+03 -0.33724E-03
 0.10943002E+03 -0.51458E-03
 0.10948001E+03 -0.66136E-03
 0.10953001E+03 -0.76228E-03
 0.10958001E+03 -0.77268E-03
 0.10963001E+03 -0.66475E-03
 0.10968002E+03 -0.47335E-03
 0.10973001E+03 -0.26698E-03
 0.10978001E+03 -0.10149E-03
 0.10983001E+03  0.23694E-05
 0.10988001E+03  0.46134E-04
 0.10993002E+03  0.48981E-04
 0.10998001E+03  0.35044E-04
 0.11003001E+03  0.21233E-04
 0.11008001E+03  0.34570E-04
 0.11013001E+03  0.78689E-04
 0.11018002E+03  0.11126E-03
 0.11023001E+03  0.10697E-03
 0.11028001E+03  0.92459E-04
 0.11033001E+03  0.88513E-04
 0.11038001E+03  0.80954E-04
 0.11043002E+03  0.65536E-04
 0.11048001E+03  0.45636E-04
 0.11053001E+03  0.32411E-04
 0.11058001E+03  0.32518E-04
 0.11063001E+03  0.10328E-04
 0.11068002E+03 -0.52809E-04
 0.11073001E+03 -0.14197E-03
 0.11078001E+03 -0.25166E-03
 0.11083001E+03 -0.36457E-03
 0.11088001E+03 -0.43230E-03
 0.11093002E+03 -0.42031E-03
 0.11098001E+03 -0.35490E-03
 0.11103001E+03 -0.27058E-03
 0.11108001E+03 -0.15776E-03
 0.11113001E+03  0.35747E-05
 0.11118002E+03  0.21371E-03
 0.11123001E+03  0.45630E-03
 0.11128001E+03  0.70873E-03
 0.11133001E+03  0.93121E-03
 0.11138001E+03  0.10648E-02
 0.11143002E+03  0.10706E-02
 0.11148001E+03  0.96196E-03
 0.11153001E+03  0.77532E-03
 0.11158001E+03  0.51547E-03
 0.11163001E+03  0.18687E-03
 0.11168002E+03 -0.15270E-03
 0.11173001E+03 -0.45219E-03
 0.11178001E+03 -0.70229E-03
 0.11183001E+03 -0.90127E-03
 0.11188001E+03 -0.10565E-02
 0.11193002E+03 -0.11514E-02
 0.11198001E+03 -0.11294E-02
 0.11203001E+03 -0.95473E-03
 0.11208001E+03 -0.64522E-03
 0.11213001E+03 -0.27307E-03
 0.11218002E+03  0.65239E-04
 0.11223001E+03  0.30999E-03
 0.11228001E+03  0.45360E-03
 0.11233001E+03  0.51172E-03
 0.11238001E+03  0.51065E-03
 0.11243002E+03  0.49917E-03
 0.11248001E+03  0.50409E-03
 0.11253001E+03  0.48834E-03
 0.11258001E+03  0.43345E-03
 0.11263001E+03  0.36986E-03
 0.11268002E+03  0.31099E-03
 0.11273001E+03  0.24984E-03
 0.11278001E+03  0.17494E-03
 0.11283001E+03  0.96117E-04
 0.11288001E+03  0.43695E-04
 0.11293002E+03  0.17612E-04
 0.11298001E+03 -0.16185E-04
 0.11303001E+03 -0.84144E-04
 0.11308001E+03 -0.16551E-03
 0.11313001E+03 -0.21827E-03
 0.11318002E+03 -0.22630E-03
 0.11323001E+03 -0.19809E-03
 0.11328001E+03 -0.14159E-03
 0.11333001E+03 -0.55930E-04
 0.11338001E+03  0.44695E-04
 0.11343002E+03  0.12376E-03
 0.11348001E+03  0.11682E-03
 0.11353001E+03 -0.16265E-04
 0.11358001E+03 -0.22164E-03
 0.11363001E+03 -0.42396E-03
 0.11368002E+03 -0.58360E-03
 0.11373001E+03 -0.66458E-03
 0.11378001E+03 -0.66639E-03
 0.11383001E+03 -0.62884E-03
 0.11388001E+03 -0.55324E-03
 0.11393002E+03 -0.40578E-03
 0.11398001E+03 -0.18046E-03
 0.11403001E+03  0.89786E-04
 0.11408001E+03  0.35405E-03
 0.11413001E+03  0.55319E-03
 0.11418002E+03  0.63823E-03
 0.11423001E+03  0.61610E-03
 0.11428001E+03  0.54512E-03
 0.11433001E+03  0.47903E-03
 0.11438001E+03  0.43629E-03
 0.11443002E+03  0.39787E-03
 0.11448001E+03  0.32818E-03
 0.11453001E+03  0.21349E-03
 0.11458001E+03  0.75311E-04
 0.11463001E+03 -0.65563E-04
 0.11468002E+03 -0.19788E-03
 0.11473001E+03 -0.29952E-03
 0.11478001E+03 -0.36144E-03
 0.11483001E+03 -0.39077E-03
 0.11488001E+03 -0.38011E-03
 0.11493002E+03 -0.31545E-03
 0.11498001E+03 -0.20888E-03
 0.11503001E+03 -0.95226E-04
 0.11508001E+03  0.94132E-05
 0.11513001E+03  0.10968E-03
 0.11518002E+03  0.19702E-03
 0.11523001E+03  0.25920E-03
 0.11528001E+03  0.29650E-03
 0.11533001E+03  0.31177E-03
 0.11538001E+03  0.32861E-03
 0.11543002E+03  0.38939E-03
 0.11548001E+03  0.49563E-03
 0.11553001E+03  0.58391E-03
 0.11558001E+03  0.57784E-03
 0.11563001E+03  0.46777E-03
 0.11568002E+03  0.31776E-03
 0.11573001E+03  0.17089E-03
 0.11578001E+03 -0.18203E-05
 0.11583001E+03 -0.23087E-03
 0.11588001E+03 -0.47519E-03
 0.11593002E+03 -0.66687E-03
 0.11598001E+03 -0.76499E-03
 0.11603001E+03 -0.75039E-03
 0.11608001E+03 -0.66132E-03
 0.11613001E+03 -0.56879E-03
 0.11618002E+03 -0.49017E-03
 0.11623001E+03 -0.41827E-03
 0.11628001E+03 -0.37173E-03
 0.11633001E+03 -0.36791E-03
 0.11638001E+03 -0.39048E-03
 0.11643002E+03 -0.39730E-03
 0.11648001E+03 -0.35345E-03
 0.11653001E+03 -0.25350E-03
 0.11658001E+03 -0.12645E-03
 0.11663001E+03  0.94540E-05
 0.11668002E+03  0.17395E-03
 0.11673001E+03  0.37950E-03
 0.11678001E+03  0.59947E-03
 0.11683001E+03  0.77695E-03
 0.11688001E+03  0.86051E-03
 0.11693002E+03  0.84526E-03
 0.11698001E+03  0.76448E-03
 0.11703001E+03  0.62733E-03
 0.11708001E+03  0.42404E-03
 0.11713001E+03  0.17466E-03
 0.11718002E+03 -0.71800E-04
 0.11723001E+03 -0.25125E-03
 0.11728001E+03 -0.32417E-03
 0.11733001E+03 -0.30699E-03
 0.11738001E+03 -0.23929E-03
 0.11743002E+03 -0.15317E-03
 0.11748001E+03 -0.87107E-04
 0.11753001E+03 -0.79396E-04
 0.11758001E+03 -0.13653E-03
 0.11763001E+03 -0.23078E-03
 0.11768002E+03 -0.31378E-03
 0.11773001E+03 -0.33856E-03
 0.11778001E+03 -0.28115E-03
 0.11783001E+03 -0.14944E-03
 0.11788001E+03 -0.18157E-05
 0.11793002E+03  0.98271E-04
 0.11798001E+03  0.14925E-03
 0.11803001E+03  0.16516E-03
 0.11808001E+03  0.13993E-03
 0.11813001E+03  0.72576E-04
 0.11818002E+03 -0.38698E-04
 0.11823001E+03 -0.17583E-03
 0.11828001E+03 -0.27460E-03
 0.11833001E+03 -0.27792E-03
 0.11838001E+03 -0.17879E-03
 0.11843002E+03 -0.21178E-05
 0.11848001E+03  0.20540E-03
 0.11853001E+03  0.39860E-03
 0.11858001E+03  0.56171E-03
 0.11863001E+03  0.67891E-03
 0.11868002E+03  0.71874E-03
 0.11873001E+03  0.66066E-03
 0.11878001E+03  0.52403E-03
 0.11883001E+03  0.36452E-03
 0.11888001E+03  0.22472E-03
 0.11893002E+03  0.11455E-03
 0.11898001E+03  0.33412E-04
 0.11903001E+03 -0.27890E-04
 0.11908001E+03 -0.10306E-03
 0.11913001E+03 -0.21639E-03
 0.11918002E+03 -0.35417E-03
 0.11923001E+03 -0.49827E-03
 0.11928001E+03 -0.62701E-03
 0.11933001E+03 -0.71109E-03
 0.11938001E+03 -0.73379E-03
 0.11943002E+03 -0.67613E-03
 0.11948001E+03 -0.52271E-03
 0.11953001E+03 -0.28973E-03
 0.11958001E+03 -0.19659E-04
 0.11963001E+03  0.22932E-03
 0.11968002E+03  0.40564E-03
 0.11973001E+03  0.48648E-03
 0.11978001E+03  0.47098E-03
 0.11983001E+03  0.37508E-03
 0.11988001E+03  0.22582E-03
 0.11993002E+03  0.44876E-04
 0.11998001E+03 -0.14360E-03
 0.12003001E+03 -0.30169E-03
 0.12008001E+03 -0.40767E-03
 0.12013001E+03 -0.46319E-03
 0.12018002E+03 -0.46281E-03
 0.12023001E+03 -0.39948E-03
 0.12028001E+03 -0.28273E-03
 0.12033001E+03 -0.12676E-03
 0.12038001E+03  0.55166E-04
 0.12043002E+03  0.25198E-03
 0.12048001E+03  0.43823E-03
 0.12053001E+03  0.55483E-03
 0.12058001E+03  0.55832E-03
 0.12063001E+03  0.45175E-03
 0.12068002E+03  0.28281E-03
 0.12073001E+03  0.12257E-03
 0.12078001E+03 -0.71649E-06
 0.12083001E+03 -0.95357E-04
 0.12088001E+03 -0.16640E-03
 0.12093002E+03 -0.20682E-03
 0.12098001E+03 -0.19853E-03
 0.12103001E+03 -0.14806E-03
 0.12108001E+03 -0.10239E-03
 0.12113001E+03 -0.10445E-03
 0.12118002E+03 -0.14884E-03
 0.12123001E+03 -0.19729E-03
 0.12128001E+03 -0.20701E-03
 0.12133001E+03 -0.14318E-03
 0.12138001E+03  0.13188E-05
 0.12143002E+03  0.19737E-03
 0.12148001E+03  0.38599E-03
 0.12153001E+03  0.51160E-03
 0.12158001E+03  0.55406E-03
 0.12163001E+03  0.52013E-03
 0.12168002E+03  0.43268E-03
 0.12173001E+03  0.32445E-03
 0.12178001E+03  0.20344E-03
 0.12183001E+03  0.51423E-04
 0.12188001E+03 -0.13514E-03
 0.12193002E+03 -0.33824E-03
 0.12198001E+03 -0.52466E-03
 0.12203001E+03 -0.65714E-03
 0.12208001E+03 -0.70330E-03
 0.12213001E+03 -0.65723E-03
 0.12218002E+03 -0.54970E-03
 0.12223001E+03 -0.41096E-03
 0.12228001E+03 -0.26215E-03
 0.12233001E+03 -0.11075E-03
 0.12238001E+03  0.41179E-04
 0.12243002E+03  0.17765E-03
 0.12248001E+03  0.29005E-03
 0.12253001E+03  0.37761E-03
 0.12258001E+03  0.43288E-03
 0.12263001E+03  0.45811E-03
 0.12268002E+03  0.47757E-03
 0.12273001E+03  0.49337E-03
 0.12278001E+03  0.47522E-03
 0.12283001E+03  0.42165E-03
 0.12288001E+03  0.34853E-03
 0.12293002E+03  0.26369E-03
 0.12298001E+03  0.18721E-03
 0.12303001E+03  0.12467E-03
 0.12308001E+03  0.57206E-04
 0.12313001E+03 -0.20631E-04
 0.12318002E+03 -0.10373E-03
 0.12323001E+03 -0.19299E-03
 0.12328001E+03 -0.28290E-03
 0.12333001E+03 -0.37137E-03
 0.12338001E+03 -0.45826E-03
 0.12343002E+03 -0.52889E-03
 0.12348001E+03 -0.58482E-03
 0.12353001E+03 -0.64113E-03
 0.12358001E+03 -0.68054E-03
 0.12363001E+03 -0.67594E-03
 0.12368002E+03 -0.62795E-03
 0.12373001E+03 -0.53429E-03
 0.12378001E+03 -0.38081E-03
 0.12383001E+03 -0.16387E-03
 0.12388001E+03  0.10090E-03
 0.12393002E+03  0.37163E-03
 0.12398001E+03  0.60219E-03
 0.12403001E+03  0.76409E-03
 0.12408001E+03  0.84880E-03
 0.12413001E+03  0.85911E-03
 0.12418002E+03  0.80611E-03
 0.12423001E+03  0.71401E-03
 0.12428001E+03  0.58894E-03
 0.12433001E+03  0.42080E-03
 0.12438001E+03  0.22056E-03
 0.12443002E+03  0.10038E-04
 0.12448001E+03 -0.19647E-03
 0.12453001E+03 -0.38261E-03
 0.12458001E+03 -0.51069E-03
 0.12463001E+03 -0.54826E-03
 0.12468002E+03 -0.50149E-03
 0.12473001E+03 -0.38904E-03
 0.12478001E+03 -0.22741E-03
 0.12483001E+03 -0.51423E-04
 0.12488001E+03  0.74813E-04
 0.12493002E+03  0.89329E-04
 0.12498001E+03  0.58187E-06
 0.12503001E+03 -0.11533E-03
 0.12508001E+03 -0.19715E-03
 0.12513001E+03 -0.21884E-03
 0.12518002E+03 -0.17416E-03
 0.12523001E+03 -0.83383E-04
 0.12528001E+03  0.32137E-04
 0.12533001E+03  0.15904E-03
 0.12538001E+03  0.26765E-03
 0.12543002E+03  0.31963E-03
 0.12548001E+03  0.29190E-03
 0.12553001E+03  0.19416E-03
 0.12558001E+03  0.77118E-04
 0.12563001E+03  0.29814E-05
 0.12568002E+03 -0.57977E-06
 0.12573001E+03  0.51992E-04
 0.12578001E+03  0.11670E-03
 0.12583001E+03  0.13729E-03
 0.12588001E+03  0.85778E-04
 0.12593002E+03 -0.28884E-04
 0.12598001E+03 -0.18724E-03
 0.12603001E+03 -0.36054E-03
 0.12608001E+03 -0.51075E-03
 0.12613001E+03 -0.61180E-03
 0.12618002E+03 -0.65650E-03
 0.12623001E+03 -0.65201E-03
 0.12628001E+03 -0.60346E-03
 0.12633001E+03 -0.50604E-03
 0.12638001E+03 -0.36485E-03
 0.12643002E+03 -0.18334E-03
 0.12648001E+03  0.34667E-04
 0.12653001E+03  0.27497E-03
 0.12658001E+03  0.51741E-03
 0.12663001E+03  0.73231E-03
 0.12668002E+03  0.90246E-03
 0.12673001E+03  0.10202E-02
 0.12678001E+03  0.10756E-02
 0.12683001E+03  0.10525E-02
 0.12688001E+03  0.93230E-03
 0.12693002E+03  0.72442E-03
 0.12698001E+03  0.46782E-03
 0.12703001E+03  0.21223E-03
 0.12708001E+03 -0.15700E-05
 0.12713001E+03 -0.15872E-03
 0.12718002E+03 -0.27010E-03
 0.12723001E+03 -0.36008E-03
 0.12728001E+03 -0.43918E-03
 0.12733001E+03 -0.49751E-03
 0.12738001E+03 -0.52536E-03
 0.12743002E+03 -0.51839E-03
 0.12748001E+03 -0.48004E-03
 0.12753001E+03 -0.42924E-03
 0.12758001E+03 -0.38150E-03
 0.12763001E+03 -0.33645E-03
 0.12768002E+03 -0.29453E-03
 0.12773001E+03 -0.24946E-03
 0.12778001E+03 -0.18979E-03
 0.12783001E+03 -0.11648E-03
 0.12788001E+03 -0.33669E-04
 0.12793002E+03  0.49150E-04
 0.12798001E+03  0.11441E-03
 0.12803001E+03  0.15280E-03
 0.12808002E+03  0.17044E-03
 0.12813002E+03  0.16535E-03
 0.12818001E+03  0.12178E-03
 0.12823001E+03  0.47123E-04
 0.12828001E+03 -0.18454E-04
 0.12833002E+03 -0.36278E-04
 0.12838002E+03 -0.10766E-04
 0.12843001E+03  0.31599E-04
 0.12848001E+03  0.88662E-04
 0.12853001E+03  0.16105E-03
 0.12858002E+03  0.22979E-03
 0.12863002E+03  0.27174E-03
 0.12868001E+03  0.26678E-03
 0.12873001E+03  0.20825E-03
 0.12878001E+03  0.11271E-03
 0.12883002E+03  0.26516E-05
 0.12888002E+03 -0.97839E-04
 0.12893001E+03 -0.15857E-03
 0.12898001E+03 -0.17182E-03
 0.12903001E+03 -0.16325E-03
 0.12908002E+03 -0.15832E-03
 0.12913002E+03 -0.16652E-03
 0.12918001E+03 -0.18873E-03
 0.12923001E+03 -0.20964E-03
 0.12928001E+03 -0.20330E-03
 0.12933002E+03 -0.16648E-03
 0.12938002E+03 -0.11200E-03
 0.12943001E+03 -0.37084E-04
 0.12948001E+03  0.56135E-04
 0.12953001E+03  0.13975E-03
 0.12958002E+03  0.19231E-03
 0.12963002E+03  0.21470E-03
 0.12968001E+03  0.20665E-03
 0.12973001E+03  0.17213E-03
 0.12978001E+03  0.12373E-03
 0.12983002E+03  0.61360E-04
 0.12988002E+03 -0.18044E-04
 0.12993001E+03 -0.94289E-04
 0.12998001E+03 -0.15124E-03
 0.13003001E+03 -0.20252E-03
 0.13008002E+03 -0.25120E-03
 0.13013002E+03 -0.28167E-03
 0.13018001E+03 -0.27872E-03
 0.13023001E+03 -0.23562E-03
 0.13028001E+03 -0.16030E-03
 0.13033002E+03 -0.67241E-04
 0.13038002E+03  0.31687E-04
 0.13043001E+03  0.13618E-03
 0.13048001E+03  0.24164E-03
 0.13053001E+03  0.33030E-03
 0.13058002E+03  0.38883E-03
 0.13063002E+03  0.41586E-03
 0.13068001E+03  0.41778E-03
 0.13073001E+03  0.40274E-03
 0.13078001E+03  0.37323E-03
 0.13083002E+03  0.31979E-03
 0.13088002E+03  0.23766E-03
 0.13093001E+03  0.13725E-03
 0.13098001E+03  0.38059E-04
 0.13103001E+03 -0.39114E-04
 0.13108002E+03 -0.94993E-04
 0.13113002E+03 -0.15045E-03
 0.13118001E+03 -0.21483E-03
 0.13123001E+03 -0.28012E-03
 0.13128001E+03 -0.33706E-03
 0.13133002E+03 -0.37902E-03
 0.13138002E+03 -0.39841E-03
 0.13143001E+03 -0.38847E-03
 0.13148001E+03 -0.35332E-03
 0.13153001E+03 -0.31348E-03
 0.13158002E+03 -0.28560E-03
 0.13163002E+03 -0.26531E-03
 0.13168001E+03 -0.23330E-03
 0.13173001E+03 -0.16963E-03
 0.13178001E+03 -0.70054E-04
 0.13183002E+03  0.59373E-04
 0.13188002E+03  0.21379E-03
 0.13193001E+03  0.38067E-03
 0.13198001E+03  0.52320E-03
 0.13203001E+03  0.58773E-03
 0.13208002E+03  0.54617E-03
 0.13213002E+03  0.41072E-03
 0.13218001E+03  0.21341E-03
 0.13223001E+03  0.78476E-06
 0.13228001E+03 -0.17813E-03
 0.13233002E+03 -0.29648E-03
 0.13238002E+03 -0.34237E-03
 0.13243001E+03 -0.31204E-03
 0.13248001E+03 -0.22414E-03
 0.13253001E+03 -0.11334E-03
 0.13258002E+03 -0.12427E-04
 0.13263002E+03  0.59686E-04
 0.13268001E+03  0.10212E-03
 0.13273001E+03  0.12260E-03
 0.13278001E+03  0.12963E-03
 0.13283002E+03  0.12674E-03
 0.13288002E+03  0.10611E-03
 0.13293001E+03  0.63203E-04
 0.13298001E+03  0.63093E-05
 0.13303001E+03 -0.45551E-04
 0.13308002E+03 -0.64323E-04
 0.13313002E+03 -0.40318E-04
 0.13318001E+03  0.11113E-04
 0.13323001E+03  0.72673E-04
 0.13328001E+03  0.12689E-03
 0.13333002E+03  0.15472E-03
 0.13338002E+03  0.14721E-03
 0.13343001E+03  0.11908E-03
 0.13348001E+03  0.93967E-04
 0.13353001E+03  0.80885E-04
 0.13358002E+03  0.78237E-04
 0.13363002E+03  0.73695E-04
 0.13368001E+03  0.47442E-04
 0.13373001E+03 -0.12916E-04
 0.13378001E+03 -0.10514E-03
 0.13383002E+03 -0.20765E-03
 0.13388002E+03 -0.27875E-03
 0.13393001E+03 -0.28370E-03
 0.13398001E+03 -0.22615E-03
 0.13403001E+03 -0.12298E-03
 0.13408002E+03  0.15099E-04
 0.13413002E+03  0.16826E-03
 0.13418001E+03  0.30803E-03
 0.13423001E+03  0.39591E-03
 0.13428001E+03  0.39713E-03
 0.13433002E+03  0.30369E-03
 0.13438002E+03  0.12735E-03
 0.13443001E+03 -0.10302E-03
 0.13448001E+03 -0.33416E-03
 0.13453001E+03 -0.51924E-03
 0.13458002E+03 -0.64042E-03
 0.13463002E+03 -0.69439E-03
 0.13468001E+03 -0.69345E-03
 0.13473001E+03 -0.65452E-03
 0.13478001E+03 -0.57877E-03
 0.13483002E+03 -0.46112E-03
 0.13488002E+03 -0.30703E-03
 0.13493001E+03 -0.13371E-03
 0.13498001E+03  0.39980E-04
 0.13503001E+03  0.19937E-03
 0.13508002E+03  0.33619E-03
 0.13513002E+03  0.45339E-03
 0.13518001E+03  0.56948E-03
 0.13523001E+03  0.68373E-03
 0.13528001E+03  0.75596E-03
 0.13533002E+03  0.75468E-03
 0.13538002E+03  0.68000E-03
 0.13543001E+03  0.55295E-03
 0.13548001E+03  0.39997E-03
 0.13553001E+03  0.24094E-03
 0.13558002E+03  0.96704E-04
 0.13563002E+03 -0.17767E-04
 0.13568001E+03 -0.99900E-04
 0.13573001E+03 -0.15692E-03
 0.13578001E+03 -0.20116E-03
 0.13583002E+03 -0.23610E-03
 0.13588002E+03 -0.26211E-03
 0.13593001E+03 -0.28472E-03
 0.13598001E+03 -0.30188E-03
 0.13603001E+03 -0.31000E-03
 0.13608002E+03 -0.31056E-03
 0.13613002E+03 -0.29272E-03
 0.13618001E+03 -0.24694E-03
 0.13623001E+03 -0.18188E-03
 0.13628001E+03 -0.11015E-03
 0.13633002E+03 -0.35727E-04
 0.13638002E+03  0.41952E-04
 0.13643001E+03  0.11640E-03
 0.13648001E+03  0.18402E-03
 0.13653001E+03  0.24228E-03
 0.13658002E+03  0.27196E-03
 0.13663002E+03  0.25883E-03
 0.13668001E+03  0.20841E-03
 0.13673001E+03  0.12292E-03
 0.13678001E+03  0.83458E-05
 0.13683002E+03 -0.10463E-03
 0.13688002E+03 -0.18387E-03
 0.13693001E+03 -0.21578E-03
 0.13698001E+03 -0.20262E-03
 0.13703001E+03 -0.15515E-03
 0.13708002E+03 -0.80270E-04
 0.13713002E+03  0.80284E-05
 0.13718001E+03  0.86053E-04
 0.13723001E+03  0.14272E-03
 0.13728001E+03  0.18220E-03
 0.13733002E+03  0.20855E-03
 0.13738002E+03  0.21295E-03
 0.13743001E+03  0.18626E-03
 0.13748001E+03  0.13021E-03
 0.13753001E+03  0.49586E-04
 0.13758002E+03 -0.45516E-04
 0.13763002E+03 -0.13401E-03
 0.13768001E+03 -0.18869E-03
 0.13773001E+03 -0.19797E-03
 0.13778001E+03 -0.16803E-03
 0.13783002E+03 -0.11262E-03
 0.13788002E+03 -0.58029E-04
 0.13793001E+03 -0.25687E-04
 0.13798001E+03 -0.95541E-05
 0.13803001E+03  0.82224E-05
 0.13808002E+03  0.29846E-04
 0.13813002E+03  0.47009E-04
 0.13818001E+03  0.57425E-04
 0.13823001E+03  0.59051E-04
 0.13828001E+03  0.38401E-04
 0.13833002E+03 -0.12950E-04
 0.13838002E+03 -0.83315E-04
 0.13843001E+03 -0.14855E-03
 0.13848001E+03 -0.18308E-03
 0.13853001E+03 -0.17968E-03
 0.13858002E+03 -0.14413E-03
 0.13863002E+03 -0.85466E-04
 0.13868001E+03 -0.27623E-04
 0.13873001E+03  0.45351E-05
 0.13878001E+03  0.12198E-04
 0.13883002E+03  0.17059E-04
 0.13888002E+03  0.35585E-04
 0.13893001E+03  0.76318E-04
 0.13898001E+03  0.14125E-03
 0.13903001E+03  0.22030E-03
 0.13908002E+03  0.29996E-03
 0.13913002E+03  0.37020E-03
 0.13918001E+03  0.41672E-03
 0.13923001E+03  0.41681E-03
 0.13928001E+03  0.35626E-03
 0.13933002E+03  0.23759E-03
 0.13938002E+03  0.78169E-04
 0.13943001E+03 -0.92353E-04
 0.13948001E+03 -0.24795E-03
 0.13953001E+03 -0.37236E-03
 0.13958002E+03 -0.45330E-03
 0.13963002E+03 -0.48026E-03
 0.13968001E+03 -0.45037E-03
 0.13973001E+03 -0.37504E-03
 0.13978001E+03 -0.26988E-03
 0.13983002E+03 -0.14586E-03
 0.13988002E+03 -0.20913E-04
 0.13993001E+03  0.84836E-04
 0.13998001E+03  0.15935E-03
 0.14003001E+03  0.19266E-03
 0.14008002E+03  0.18827E-03
 0.14013002E+03  0.15901E-03
 0.14018001E+03  0.10999E-03
 0.14023001E+03  0.47146E-04
 0.14028001E+03 -0.22407E-04
 0.14033002E+03 -0.92411E-04
 0.14038002E+03 -0.14820E-03
 0.14043001E+03 -0.17358E-03
 0.14048001E+03 -0.16095E-03
 0.14053001E+03 -0.11033E-03
 0.14058002E+03 -0.30403E-04
 0.14063002E+03  0.61974E-04
 0.14068001E+03  0.14926E-03
 0.14073001E+03  0.21553E-03
 0.14078001E+03  0.24935E-03
 0.14083002E+03  0.24680E-03
 0.14088002E+03  0.20759E-03
 0.14093001E+03  0.13744E-03
 0.14098001E+03  0.51086E-04
 0.14103001E+03 -0.30726E-04
 0.14108002E+03 -0.86598E-04
 0.14113002E+03 -0.10153E-03
 0.14118001E+03 -0.87810E-04
 0.14123001E+03 -0.80773E-04
 0.14128001E+03 -0.91134E-04
 0.14133002E+03 -0.10701E-03
 0.14138002E+03 -0.12719E-03
 0.14143001E+03 -0.14583E-03
 0.14148001E+03 -0.14450E-03
 0.14153001E+03 -0.11896E-03
 0.14158002E+03 -0.80676E-04
 0.14163002E+03 -0.34206E-04
 0.14168001E+03  0.15850E-04
 0.14173001E+03  0.53516E-04
 0.14178001E+03  0.68326E-04
 0.14183002E+03  0.58688E-04
 0.14188002E+03  0.29293E-04
 0.14193001E+03 -0.41560E-05
 0.14198001E+03 -0.24561E-04
 0.14203001E+03 -0.23786E-04
 0.14208002E+03  0.15287E-05
 0.14213002E+03  0.43889E-04
 0.14218001E+03  0.81752E-04
 0.14223001E+03  0.10637E-03
 0.14228001E+03  0.12383E-03
 0.14233002E+03  0.13251E-03
 0.14238002E+03  0.12098E-03
 0.14243001E+03  0.81300E-04
 0.14248001E+03  0.11958E-04
 0.14253001E+03 -0.84457E-04
 0.14258002E+03 -0.18776E-03
 0.14263002E+03 -0.26795E-03
 0.14268001E+03 -0.30433E-03
 0.14273001E+03 -0.28128E-03
 0.14278001E+03 -0.19773E-03
 0.14283002E+03 -0.81476E-04
 0.14288002E+03  0.38402E-04
 0.14293001E+03  0.15204E-03
 0.14298001E+03  0.24574E-03
 0.14303001E+03  0.30097E-03
 0.14308002E+03  0.31152E-03
 0.14313002E+03  0.28029E-03
 0.14318001E+03  0.21320E-03
 0.14323001E+03  0.11987E-03
 0.14328001E+03  0.21427E-04
 0.14333002E+03 -0.55642E-04
 0.14338002E+03 -0.10149E-03
 0.14343001E+03 -0.11600E-03
 0.14348001E+03 -0.87426E-04
 0.14353001E+03 -0.10670E-04
 0.14358002E+03  0.92804E-04
 0.14363002E+03  0.20040E-03
 0.14368001E+03  0.29950E-03
 0.14373001E+03  0.36418E-03
 0.14378001E+03  0.36699E-03
 0.14383002E+03  0.30875E-03
 0.14388002E+03  0.21391E-03
 0.14393001E+03  0.11546E-03
 0.14398001E+03  0.37630E-04
 0.14403001E+03 -0.18051E-04
 0.14408002E+03 -0.63879E-04
 0.14413002E+03 -0.11192E-03
 0.14418001E+03 -0.17209E-03
 0.14423001E+03 -0.24743E-03
 0.14428001E+03 -0.32918E-03
 0.14433002E+03 -0.40692E-03
 0.14438002E+03 -0.47361E-03
 0.14443001E+03 -0.52261E-03
 0.14448001E+03 -0.54547E-03
 0.14453001E+03 -0.53260E-03
 0.14458002E+03 -0.47616E-03
 0.14463002E+03 -0.37883E-03
 0.14468001E+03 -0.25397E-03
 0.14473001E+03 -0.10871E-03
 0.14478001E+03  0.49274E-04
 0.14483002E+03  0.19831E-03
 0.14488002E+03  0.32123E-03
 0.14493001E+03  0.41514E-03
 0.14498001E+03  0.48133E-03
 0.14503001E+03  0.51935E-03
 0.14508002E+03  0.52064E-03
 0.14513002E+03  0.47305E-03
 0.14518001E+03  0.37935E-03
 0.14523001E+03  0.26189E-03
 0.14528001E+03  0.14212E-03
 0.14533002E+03  0.29939E-04
 0.14538002E+03 -0.73794E-04
 0.14543001E+03 -0.16655E-03
 0.14548001E+03 -0.23864E-03
 0.14553001E+03 -0.28624E-03
 0.14558002E+03 -0.30322E-03
 0.14563002E+03 -0.28194E-03
 0.14568001E+03 -0.23556E-03
 0.14573001E+03 -0.18555E-03
 0.14578001E+03 -0.13512E-03
 0.14583002E+03 -0.79885E-04
 0.14588002E+03 -0.26557E-04
 0.14593001E+03  0.16439E-04
 0.14598001E+03  0.44544E-04
 0.14603001E+03  0.59111E-04
 0.14608002E+03  0.69051E-04
 0.14613002E+03  0.77278E-04
 0.14618001E+03  0.85730E-04
 0.14623001E+03  0.10131E-03
 0.14628001E+03  0.12889E-03
 0.14633002E+03  0.17417E-03
 0.14638002E+03  0.23794E-03
 0.14643001E+03  0.30724E-03
 0.14648001E+03  0.35262E-03
 0.14653001E+03  0.34409E-03
 0.14658002E+03  0.27166E-03
 0.14663002E+03  0.14383E-03
 0.14668001E+03 -0.20565E-04
 0.14673001E+03 -0.19832E-03
 0.14678001E+03 -0.36066E-03
 0.14683002E+03 -0.47888E-03
 0.14688002E+03 -0.53654E-03
 0.14693001E+03 -0.53183E-03
 0.14698001E+03 -0.47281E-03
 0.14703001E+03 -0.36984E-03
 0.14708002E+03 -0.23005E-03
 0.14713002E+03 -0.71879E-04
 0.14718001E+03  0.70166E-04
 0.14723001E+03  0.17464E-03
 0.14728001E+03  0.23748E-03
 0.14733002E+03  0.25665E-03
 0.14738002E+03  0.23545E-03
 0.14743001E+03  0.18990E-03
 0.14748001E+03  0.14333E-03
 0.14753001E+03  0.11173E-03
 0.14758002E+03  0.10202E-03
 0.14763002E+03  0.11570E-03
 0.14768001E+03  0.14189E-03
 0.14773001E+03  0.16412E-03
 0.14778001E+03  0.17327E-03
 0.14783002E+03  0.16336E-03
 0.14788002E+03  0.13633E-03
 0.14793001E+03  0.10237E-03
 0.14798001E+03  0.64338E-04
 0.14803001E+03  0.25461E-04
 0.14808002E+03 -0.83657E-05
 0.14813002E+03 -0.37871E-04
 0.14818001E+03 -0.61551E-04
 0.14823001E+03 -0.80107E-04
 0.14828001E+03 -0.10222E-03
 0.14833002E+03 -0.13220E-03
 0.14838002E+03 -0.16593E-03
 0.14843001E+03 -0.20353E-03
 0.14848001E+03 -0.24970E-03
 0.14853001E+03 -0.30164E-03
 0.14858002E+03 -0.34914E-03
 0.14863002E+03 -0.37236E-03
 0.14868001E+03 -0.35280E-03
 0.14873001E+03 -0.28442E-03
 0.14878001E+03 -0.17475E-03
 0.14883002E+03 -0.44086E-04
 0.14888002E+03  0.92738E-04
 0.14893001E+03  0.22330E-03
 0.14898001E+03  0.33113E-03
 0.14903001E+03  0.40646E-03
 0.14908002E+03  0.43935E-03
 0.14913002E+03  0.42146E-03
 0.14918001E+03  0.36031E-03
 0.14923001E+03  0.26820E-03
 0.14928001E+03  0.15710E-03
 0.14933002E+03  0.53427E-04
 0.14938002E+03 -0.18140E-04
 0.14943001E+03 -0.53981E-04
 0.14948001E+03 -0.65339E-04
 0.14953001E+03 -0.68880E-04
 0.14958002E+03 -0.72761E-04
 0.14963002E+03 -0.75885E-04
 0.14968001E+03 -0.76670E-04
 0.14973001E+03 -0.82462E-04
 0.14978001E+03 -0.96950E-04
 0.14983002E+03 -0.10464E-03
 0.14988002E+03 -0.94484E-04
 0.14993001E+03 -0.64293E-04
 0.14998001E+03 -0.19893E-04
