-0.19989014E-01 -0.26066E-07
 0.30010987E-01  0.40153E-08
 0.80010988E-01 -0.59374E-08
 0.13001099E+00 -0.96187E-08
 0.18001099E+00 -0.31866E-07
 0.23001099E+00 -0.79774E-08
 0.28001100E+00 -0.50466E-08
 0.33001098E+00 -0.88004E-08
 0.38001099E+00 -0.70572E-07
 0.43001100E+00 -0.17751E-07
 0.48001099E+00  0.37894E-07
 0.53001100E+00  0.26994E-07
 0.58001101E+00  0.75363E-07
 0.63001102E+00  0.30406E-07
 0.68001097E+00  0.45535E-07
 0.73001099E+00  0.26470E-07
 0.78001100E+00  0.31505E-07
 0.83001101E+00  0.35699E-07
 0.88001102E+00  0.46913E-08
 0.93001097E+00  0.36870E-07
 0.98001099E+00  0.71890E-08
 0.10300111E+01  0.33661E-07
 0.10800110E+01  0.88416E-08
 0.11300110E+01  0.12872E-07
 0.11800110E+01  0.13470E-07
 0.12300110E+01  0.10546E-07
 0.12800111E+01  0.49778E-07
 0.13300110E+01 -0.23138E-07
 0.13800110E+01 -0.26408E-07
 0.14300110E+01 -0.68338E-07
 0.14800110E+01 -0.41747E-07
 0.15300111E+01 -0.15936E-07
 0.15800110E+01 -0.61351E-07
 0.16300110E+01  0.63049E-08
 0.16800110E+01 -0.19463E-07
 0.17300110E+01 -0.26162E-07
 0.17800111E+01 -0.37891E-07
 0.18300110E+01 -0.22029E-07
 0.18800110E+01 -0.32016E-07
 0.19300110E+01 -0.10069E-06
 0.19800110E+01 -0.70215E-07
 0.20300109E+01 -0.75542E-07
 0.20800111E+01 -0.25533E-07
 0.21300111E+01 -0.94344E-09
 0.21800110E+01  0.91819E-08
 0.22300110E+01  0.48629E-07
 0.22800109E+01  0.23618E-07
 0.23300111E+01  0.16804E-07
 0.23800111E+01  0.45728E-07
 0.24300110E+01  0.30092E-07
 0.24800110E+01  0.77944E-08
 0.25300109E+01  0.49543E-09
 0.25800111E+01 -0.24249E-07
 0.26300111E+01 -0.51163E-08
 0.26800110E+01  0.24729E-07
 0.27300110E+01  0.68581E-07
 0.27800109E+01  0.10149E-07
 0.28300111E+01  0.10634E-07
 0.28800111E+01  0.52363E-07
 0.29300110E+01 -0.22021E-07
 0.29800110E+01 -0.10429E-07
 0.30300109E+01 -0.13282E-07
 0.30800111E+01 -0.13306E-08
 0.31300111E+01  0.44581E-07
 0.31800110E+01  0.53283E-07
 0.32300110E+01  0.56172E-07
 0.32800109E+01  0.50016E-07
 0.33300111E+01  0.29973E-07
 0.33800111E+01  0.28377E-07
 0.34300110E+01  0.41283E-07
 0.34800110E+01  0.20818E-07
 0.35300109E+01  0.61633E-09
 0.35800111E+01 -0.36545E-07
 0.36300111E+01  0.35821E-08
 0.36800110E+01  0.28712E-07
 0.37300110E+01 -0.23587E-07
 0.37800109E+01 -0.15187E-07
 0.38300111E+01 -0.26697E-07
 0.38800111E+01  0.21463E-07
 0.39300110E+01  0.40455E-07
 0.39800110E+01 -0.15135E-07
 0.40300112E+01  0.64654E-09
 0.40800109E+01 -0.19161E-07
 0.41300111E+01 -0.36046E-07
 0.41800113E+01 -0.74174E-07
 0.42300110E+01 -0.61203E-07
 0.42800112E+01 -0.76255E-07
 0.43300109E+01 -0.10775E-06
 0.43800111E+01 -0.65265E-07
 0.44300113E+01 -0.78223E-07
 0.44800110E+01 -0.37660E-07
 0.45300112E+01 -0.18154E-07
 0.45800109E+01  0.61924E-07
 0.46300111E+01  0.10576E-06
 0.46800113E+01  0.97416E-07
 0.47300110E+01  0.78197E-07
 0.47800112E+01  0.35116E-07
 0.48300109E+01  0.90798E-07
 0.48800111E+01  0.40392E-07
 0.49300113E+01  0.26115E-07
 0.49800110E+01  0.16132E-07
 0.50300112E+01 -0.56088E-07
 0.50800109E+01 -0.38783E-07
 0.51300111E+01 -0.51902E-07
 0.51800113E+01 -0.86342E-07
 0.52300110E+01 -0.54453E-07
 0.52800112E+01 -0.57915E-07
 0.53300109E+01 -0.38319E-07
 0.53800111E+01 -0.70992E-08
 0.54300113E+01 -0.65296E-08
 0.54800110E+01  0.32818E-07
 0.55300112E+01 -0.20338E-09
 0.55800109E+01  0.21860E-07
 0.56300111E+01  0.14866E-07
 0.56800113E+01  0.15861E-07
 0.57300110E+01  0.38109E-07
 0.57800112E+01 -0.12026E-07
 0.58300109E+01  0.35292E-07
 0.58800111E+01 -0.37950E-07
 0.59300113E+01 -0.35471E-07
 0.59800110E+01  0.90153E-08
 0.60300112E+01 -0.42636E-07
 0.60800109E+01 -0.36854E-08
 0.61300111E+01 -0.60092E-07
 0.61800113E+01 -0.35820E-07
 0.62300110E+01 -0.37083E-08
 0.62800112E+01  0.97476E-09
 0.63300109E+01  0.46172E-07
 0.63800111E+01 -0.31211E-07
 0.64300113E+01 -0.12223E-07
 0.64800110E+01  0.48612E-07
 0.65300112E+01  0.25559E-07
 0.65800109E+01  0.14111E-08
 0.66300111E+01  0.26493E-07
 0.66800113E+01  0.44583E-07
 0.67300110E+01  0.10332E-07
 0.67800112E+01  0.15822E-07
 0.68300109E+01  0.47948E-07
 0.68800111E+01  0.29103E-07
 0.69300113E+01 -0.29818E-07
 0.69800110E+01 -0.27071E-07
 0.70300112E+01  0.44246E-07
 0.70800109E+01  0.69268E-07
 0.71300111E+01  0.15548E-07
 0.71800113E+01  0.81871E-07
 0.72300110E+01  0.13054E-06
 0.72800112E+01  0.93735E-09
 0.73300109E+01  0.46780E-07
 0.73800111E+01  0.98803E-07
 0.74300113E+01  0.34537E-08
 0.74800110E+01 -0.77582E-08
 0.75300112E+01 -0.44729E-08
 0.75800109E+01 -0.41728E-09
 0.76300111E+01 -0.14310E-07
 0.76800113E+01 -0.39552E-07
 0.77300110E+01 -0.29808E-08
 0.77800112E+01  0.29147E-08
 0.78300109E+01 -0.43121E-07
 0.78800111E+01 -0.20235E-07
 0.79300113E+01  0.20038E-09
 0.79800110E+01 -0.62672E-07
 0.80300112E+01 -0.74759E-07
 0.80800114E+01 -0.50760E-07
 0.81300116E+01 -0.91044E-07
 0.81800108E+01 -0.12069E-06
 0.82300110E+01 -0.47372E-07
 0.82800112E+01 -0.34048E-07
 0.83300114E+01 -0.38023E-07
 0.83800116E+01  0.14607E-07
 0.84300108E+01  0.39242E-07
 0.84800110E+01  0.13749E-07
 0.85300112E+01 -0.72994E-07
 0.85800114E+01 -0.35358E-07
 0.86300116E+01 -0.10692E-08
 0.86800108E+01 -0.27303E-07
 0.87300110E+01 -0.38121E-07
 0.87800112E+01 -0.37547E-07
 0.88300114E+01  0.25590E-07
 0.88800116E+01  0.16353E-07
 0.89300108E+01  0.85070E-09
 0.89800110E+01  0.23895E-07
 0.90300112E+01  0.24287E-08
 0.90800114E+01  0.11986E-07
 0.91300116E+01  0.32727E-07
 0.91800108E+01  0.15748E-07
 0.92300110E+01  0.11222E-07
 0.92800112E+01  0.29030E-07
 0.93300114E+01  0.18096E-07
 0.93800116E+01 -0.34868E-07
 0.94300108E+01  0.12788E-07
 0.94800110E+01  0.44868E-07
 0.95300112E+01 -0.15714E-07
 0.95800114E+01  0.19478E-07
 0.96300116E+01  0.56058E-07
 0.96800108E+01  0.53403E-07
 0.97300110E+01  0.41053E-07
 0.97800112E+01  0.32059E-07
 0.98300114E+01  0.38336E-07
 0.98800116E+01  0.44367E-07
 0.99300108E+01  0.56749E-07
 0.99800110E+01  0.42333E-07
 0.10030011E+02  0.82446E-07
 0.10080011E+02  0.76759E-07
 0.10130012E+02  0.49464E-07
 0.10180011E+02  0.48327E-07
 0.10230011E+02  0.23055E-07
 0.10280011E+02  0.14531E-07
 0.10330011E+02 -0.79827E-07
 0.10380012E+02 -0.70999E-07
 0.10430011E+02 -0.54866E-07
 0.10480011E+02 -0.99546E-07
 0.10530011E+02 -0.49964E-07
 0.10580011E+02 -0.72950E-07
 0.10630012E+02 -0.44327E-07
 0.10680011E+02 -0.40525E-07
 0.10730011E+02 -0.83461E-07
 0.10780011E+02 -0.43904E-07
 0.10830011E+02 -0.89380E-07
 0.10880012E+02 -0.84033E-07
 0.10930011E+02 -0.49061E-07
 0.10980011E+02 -0.89436E-07
 0.11030011E+02 -0.37587E-07
 0.11080011E+02 -0.32206E-08
 0.11130012E+02 -0.50765E-08
 0.11180011E+02  0.30692E-07
 0.11230011E+02  0.43539E-07
 0.11280011E+02  0.71800E-07
 0.11330011E+02  0.21544E-07
 0.11380012E+02  0.43203E-07
 0.11430011E+02  0.87631E-07
 0.11480011E+02  0.16576E-08
 0.11530011E+02  0.16309E-07
 0.11580011E+02 -0.57991E-08
 0.11630012E+02  0.16721E-07
 0.11680011E+02  0.52070E-07
 0.11730011E+02  0.23836E-07
 0.11780011E+02  0.93125E-07
 0.11830011E+02  0.54120E-07
 0.11880012E+02  0.75928E-07
 0.11930011E+02  0.85086E-07
 0.11980011E+02  0.23100E-07
 0.12030011E+02  0.74615E-07
 0.12080011E+02  0.11395E-07
 0.12130012E+02 -0.14492E-07
 0.12180011E+02 -0.15629E-07
 0.12230011E+02 -0.26862E-07
 0.12280011E+02  0.15449E-07
 0.12330011E+02 -0.61634E-07
 0.12380012E+02 -0.48592E-07
 0.12430011E+02 -0.20115E-07
 0.12480011E+02 -0.11995E-07
 0.12530011E+02  0.33588E-07
 0.12580011E+02  0.12767E-07
 0.12630012E+02  0.61637E-07
 0.12680011E+02  0.20330E-07
 0.12730011E+02 -0.23370E-07
 0.12780011E+02  0.15319E-07
 0.12830011E+02 -0.10363E-07
 0.12880012E+02 -0.14560E-07
 0.12930011E+02 -0.54222E-07
 0.12980011E+02 -0.79117E-07
 0.13030011E+02 -0.26115E-07
 0.13080011E+02 -0.10683E-07
 0.13130012E+02 -0.58727E-07
 0.13180011E+02 -0.60985E-07
 0.13230011E+02 -0.44820E-07
 0.13280011E+02 -0.71853E-07
 0.13330011E+02 -0.38922E-07
 0.13380012E+02  0.85276E-08
 0.13430011E+02  0.39480E-08
 0.13480011E+02  0.95931E-08
 0.13530011E+02 -0.22837E-07
 0.13580011E+02 -0.42755E-07
 0.13630012E+02 -0.24760E-07
 0.13680011E+02 -0.58270E-07
 0.13730011E+02 -0.51561E-07
 0.13780011E+02  0.36056E-08
 0.13830011E+02  0.27573E-07
 0.13880012E+02  0.16574E-07
 0.13930011E+02  0.12002E-07
 0.13980011E+02  0.47818E-09
 0.14030011E+02 -0.37730E-08
 0.14080011E+02  0.14145E-07
 0.14130012E+02  0.79731E-08
 0.14180011E+02  0.18312E-07
 0.14230011E+02  0.44767E-07
 0.14280011E+02  0.25083E-07
 0.14330011E+02  0.11397E-07
 0.14380012E+02 -0.16730E-07
 0.14430011E+02  0.36180E-07
 0.14480011E+02  0.10471E-06
 0.14530011E+02  0.30282E-07
 0.14580011E+02  0.55441E-07
 0.14630012E+02  0.48053E-07
 0.14680011E+02  0.19748E-07
 0.14730011E+02  0.45141E-07
 0.14780011E+02  0.49855E-07
 0.14830011E+02  0.78114E-07
 0.14880012E+02  0.30845E-07
 0.14930011E+02 -0.35943E-09
 0.14980011E+02 -0.33693E-07
 0.15030011E+02 -0.16131E-07
 0.15080011E+02 -0.23914E-07
 0.15130012E+02 -0.97543E-07
 0.15180011E+02 -0.88422E-08
 0.15230011E+02  0.43354E-07
 0.15280011E+02  0.14865E-07
 0.15330011E+02  0.44028E-07
 0.15380012E+02  0.80239E-08
 0.15430011E+02  0.36758E-08
 0.15480011E+02  0.18073E-07
 0.15530011E+02  0.29703E-08
 0.15580011E+02  0.40085E-07
 0.15630012E+02 -0.22625E-08
 0.15680011E+02 -0.66427E-07
 0.15730011E+02 -0.12640E-06
 0.15780011E+02 -0.63806E-07
 0.15830011E+02 -0.32809E-08
 0.15880012E+02 -0.55100E-07
 0.15930011E+02 -0.14620E-07
 0.15980011E+02 -0.15135E-07
 0.16030012E+02  0.12448E-07
 0.16080011E+02  0.26279E-07
 0.16130011E+02  0.36534E-07
 0.16180012E+02  0.36362E-07
 0.16230011E+02 -0.10848E-07
 0.16280012E+02 -0.20867E-07
 0.16330011E+02 -0.82191E-07
 0.16380011E+02 -0.48173E-07
 0.16430012E+02 -0.43145E-07
 0.16480011E+02 -0.57750E-07
 0.16530012E+02 -0.97161E-08
 0.16580011E+02  0.66146E-08
 0.16630011E+02  0.26728E-07
 0.16680012E+02 -0.17823E-07
 0.16730011E+02 -0.42104E-07
 0.16780012E+02 -0.50291E-08
 0.16830011E+02  0.35680E-07
 0.16880011E+02  0.59876E-07
 0.16930012E+02  0.37212E-07
 0.16980011E+02 -0.20043E-07
 0.17030012E+02 -0.39579E-07
 0.17080011E+02 -0.32402E-07
 0.17130011E+02 -0.13754E-07
 0.17180012E+02  0.47940E-07
 0.17230011E+02  0.76664E-07
 0.17280012E+02  0.53330E-07
 0.17330011E+02  0.13421E-07
 0.17380011E+02  0.42280E-08
 0.17430012E+02  0.18016E-07
 0.17480011E+02  0.32722E-07
 0.17530012E+02  0.58346E-08
 0.17580011E+02 -0.20256E-08
 0.17630011E+02  0.47764E-07
 0.17680012E+02 -0.13749E-08
 0.17730011E+02 -0.99603E-09
 0.17780012E+02  0.60669E-07
 0.17830011E+02  0.20971E-07
 0.17880011E+02  0.19253E-07
 0.17930012E+02  0.15968E-07
 0.17980011E+02 -0.93515E-08
 0.18030012E+02  0.25379E-07
 0.18080011E+02 -0.19224E-07
 0.18130011E+02 -0.33890E-07
 0.18180012E+02  0.12187E-07
 0.18230011E+02 -0.26622E-07
 0.18280012E+02 -0.33481E-07
 0.18330011E+02 -0.54579E-07
 0.18380011E+02 -0.25585E-07
 0.18430012E+02  0.52276E-07
 0.18480011E+02  0.28406E-07
 0.18530012E+02 -0.47580E-08
 0.18580011E+02  0.26415E-08
 0.18630011E+02 -0.17616E-07
 0.18680012E+02 -0.63837E-07
 0.18730011E+02 -0.41313E-07
 0.18780012E+02 -0.58511E-07
 0.18830011E+02 -0.30514E-07
 0.18880011E+02  0.29248E-08
 0.18930012E+02 -0.30850E-07
 0.18980011E+02  0.15759E-07
 0.19030012E+02  0.11600E-08
 0.19080011E+02  0.13952E-07
 0.19130011E+02 -0.66160E-08
 0.19180012E+02 -0.49152E-07
 0.19230011E+02 -0.65395E-09
 0.19280012E+02 -0.51498E-07
 0.19330011E+02 -0.15132E-07
 0.19380011E+02  0.43098E-07
 0.19430012E+02 -0.10423E-07
 0.19480011E+02  0.15841E-07
 0.19530012E+02  0.21560E-07
 0.19580011E+02  0.25194E-08
 0.19630011E+02  0.40641E-07
 0.19680012E+02  0.11607E-07
 0.19730011E+02 -0.29877E-07
 0.19780012E+02  0.41904E-07
 0.19830011E+02  0.62008E-07
 0.19880011E+02  0.41633E-07
 0.19930012E+02  0.41431E-07
 0.19980011E+02  0.17631E-07
 0.20030012E+02  0.40680E-07
 0.20080011E+02  0.43613E-07
 0.20130011E+02  0.19107E-07
 0.20180012E+02  0.23785E-07
 0.20230011E+02  0.62062E-07
 0.20280012E+02  0.32678E-07
 0.20330011E+02 -0.56377E-08
 0.20380011E+02  0.26816E-07
 0.20430012E+02  0.11468E-07
 0.20480011E+02 -0.26313E-07
 0.20530012E+02 -0.70361E-07
 0.20580011E+02 -0.50686E-07
 0.20630011E+02 -0.40035E-07
 0.20680012E+02 -0.74167E-07
 0.20730011E+02 -0.32889E-07
 0.20780012E+02 -0.11401E-07
 0.20830011E+02 -0.14821E-07
 0.20880011E+02 -0.46991E-08
 0.20930012E+02  0.97980E-08
 0.20980011E+02 -0.15382E-07
 0.21030012E+02 -0.10272E-07
 0.21080011E+02  0.12583E-07
 0.21130011E+02 -0.55771E-07
 0.21180012E+02 -0.66207E-07
 0.21230011E+02 -0.54868E-07
 0.21280012E+02 -0.74654E-07
 0.21330011E+02 -0.10469E-07
 0.21380011E+02  0.40437E-07
 0.21430012E+02  0.39006E-07
 0.21480011E+02  0.35274E-07
 0.21530012E+02  0.68438E-08
 0.21580011E+02  0.26836E-07
 0.21630011E+02  0.48309E-07
 0.21680012E+02  0.59789E-07
 0.21730011E+02  0.30883E-07
 0.21780012E+02  0.35066E-08
 0.21830011E+02  0.33342E-07
 0.21880011E+02 -0.11226E-07
 0.21930012E+02 -0.10938E-07
 0.21980011E+02  0.21591E-07
 0.22030012E+02  0.19742E-07
 0.22080011E+02  0.22055E-07
 0.22130011E+02 -0.17526E-08
 0.22180012E+02 -0.43261E-07
 0.22230011E+02 -0.71493E-07
 0.22280012E+02 -0.65104E-07
 0.22330011E+02 -0.11597E-07
 0.22380011E+02 -0.82214E-09
 0.22430012E+02 -0.28490E-07
 0.22480011E+02  0.27763E-08
 0.22530012E+02  0.10846E-07
 0.22580011E+02  0.21507E-07
 0.22630011E+02  0.24074E-07
 0.22680012E+02 -0.35331E-07
 0.22730011E+02  0.25095E-08
 0.22780012E+02  0.35795E-07
 0.22830011E+02  0.81803E-08
 0.22880011E+02 -0.38792E-07
 0.22930012E+02 -0.11380E-06
 0.22980011E+02 -0.50414E-07
 0.23030012E+02 -0.92105E-08
 0.23080011E+02  0.37979E-07
 0.23130011E+02  0.76317E-07
 0.23180012E+02  0.78565E-07
 0.23230011E+02  0.93083E-07
 0.23280012E+02  0.71944E-08
 0.23330011E+02  0.48471E-07
 0.23380011E+02  0.46895E-07
 0.23430012E+02  0.93795E-08
 0.23480011E+02  0.25884E-07
 0.23530012E+02 -0.40301E-07
 0.23580011E+02  0.10436E-07
 0.23630011E+02  0.23067E-07
 0.23680012E+02 -0.11367E-07
 0.23730011E+02  0.52835E-08
 0.23780012E+02 -0.25463E-07
 0.23830011E+02  0.28059E-07
 0.23880011E+02  0.32479E-07
 0.23930012E+02 -0.40079E-07
 0.23980011E+02 -0.42394E-07
 0.24030012E+02 -0.31256E-07
 0.24080011E+02 -0.50207E-07
 0.24130011E+02 -0.55467E-07
 0.24180012E+02  0.38741E-07
 0.24230011E+02  0.53141E-07
 0.24280012E+02  0.26189E-09
 0.24330011E+02  0.47847E-08
 0.24380011E+02  0.18743E-07
 0.24430012E+02  0.33500E-07
 0.24480011E+02 -0.72777E-09
 0.24530012E+02 -0.23893E-07
 0.24580011E+02 -0.31427E-07
 0.24630011E+02 -0.43269E-07
 0.24680012E+02 -0.61055E-07
 0.24730011E+02 -0.51984E-07
 0.24780012E+02 -0.44852E-08
 0.24830011E+02  0.22524E-07
 0.24880011E+02  0.39945E-07
 0.24930012E+02  0.33923E-07
 0.24980011E+02  0.24476E-07
 0.25030012E+02 -0.16286E-07
 0.25080011E+02 -0.12516E-07
 0.25130011E+02 -0.15449E-07
 0.25180012E+02 -0.43105E-07
 0.25230011E+02 -0.52544E-08
 0.25280012E+02 -0.33000E-07
 0.25330011E+02 -0.27802E-07
 0.25380011E+02 -0.72963E-08
 0.25430012E+02 -0.23118E-07
 0.25480011E+02  0.16473E-08
 0.25530012E+02 -0.51683E-08
 0.25580011E+02 -0.13753E-06
 0.25630011E+02 -0.27494E-06
 0.25680012E+02 -0.39024E-06
 0.25730011E+02 -0.61846E-06
 0.25780012E+02 -0.88582E-06
 0.25830011E+02 -0.12909E-05
 0.25880011E+02 -0.17471E-05
 0.25930012E+02 -0.21091E-05
 0.25980011E+02 -0.21909E-05
 0.26030012E+02 -0.18734E-05
 0.26080011E+02 -0.17043E-05
 0.26130011E+02 -0.21487E-05
 0.26180012E+02 -0.32228E-05
 0.26230011E+02 -0.45345E-05
 0.26280012E+02 -0.51653E-05
 0.26330011E+02 -0.46197E-05
 0.26380011E+02 -0.32614E-05
 0.26430012E+02 -0.24359E-05
 0.26480011E+02 -0.32011E-05
 0.26530012E+02 -0.40313E-05
 0.26580011E+02 -0.17563E-05
 0.26630011E+02  0.39299E-05
 0.26680012E+02  0.73040E-05
 0.26730011E+02  0.78247E-05
 0.26780012E+02  0.62581E-05
 0.26830011E+02 -0.23253E-05
 0.26880011E+02 -0.12666E-04
 0.26930012E+02 -0.19549E-04
 0.26980011E+02 -0.21415E-04
 0.27030012E+02 -0.16618E-04
 0.27080011E+02 -0.85915E-05
 0.27130011E+02 -0.49690E-06
 0.27180012E+02  0.64521E-05
 0.27230011E+02  0.14142E-04
 0.27280012E+02  0.19308E-04
 0.27330011E+02  0.25203E-04
 0.27380011E+02  0.28072E-04
 0.27430012E+02  0.21278E-04
 0.27480011E+02  0.20802E-04
 0.27530012E+02  0.24699E-04
 0.27580011E+02  0.22840E-04
 0.27630011E+02  0.16948E-04
 0.27680012E+02  0.10060E-04
 0.27730011E+02  0.48690E-05
 0.27780012E+02 -0.74349E-06
 0.27830011E+02 -0.49174E-05
 0.27880011E+02 -0.10909E-05
 0.27930012E+02  0.13121E-04
 0.27980011E+02  0.23658E-04
 0.28030012E+02  0.21544E-04
 0.28080011E+02  0.19315E-04
 0.28130011E+02  0.13086E-04
 0.28180012E+02 -0.15053E-04
 0.28230011E+02 -0.44467E-04
 0.28280012E+02 -0.66223E-04
 0.28330011E+02 -0.87913E-04
 0.28380011E+02 -0.82818E-04
 0.28430012E+02 -0.58791E-04
 0.28480011E+02 -0.27639E-04
 0.28530012E+02  0.80202E-05
 0.28580011E+02  0.20228E-04
 0.28630011E+02  0.14737E-04
 0.28680012E+02  0.67257E-05
 0.28730011E+02  0.79686E-05
 0.28780012E+02  0.39035E-04
 0.28830011E+02  0.76567E-04
 0.28880011E+02  0.86485E-04
 0.28930012E+02  0.57511E-04
 0.28980011E+02  0.12523E-05
 0.29030012E+02 -0.41024E-04
 0.29080011E+02 -0.72957E-04
 0.29130011E+02 -0.87551E-04
 0.29180012E+02 -0.51047E-04
 0.29230011E+02  0.66816E-05
 0.29280012E+02  0.44280E-04
 0.29330011E+02  0.64294E-04
 0.29380011E+02  0.68446E-04
 0.29430012E+02  0.14056E-04
 0.29480011E+02 -0.58580E-04
 0.29530012E+02 -0.62035E-04
 0.29580011E+02 -0.85136E-05
 0.29630011E+02  0.41093E-04
 0.29680012E+02  0.40746E-04
 0.29730011E+02  0.10977E-04
 0.29780012E+02 -0.33182E-04
 0.29830011E+02 -0.78412E-04
 0.29880011E+02 -0.75401E-04
 0.29930012E+02 -0.33287E-04
 0.29980011E+02  0.25809E-04
 0.30030012E+02  0.64453E-04
 0.30080011E+02  0.50742E-04
 0.30130011E+02  0.22999E-04
 0.30180012E+02  0.15369E-05
 0.30230011E+02 -0.14703E-04
 0.30280012E+02 -0.13276E-04
 0.30330011E+02  0.10164E-05
 0.30380011E+02  0.24882E-04
 0.30430012E+02  0.46410E-04
 0.30480011E+02  0.38172E-04
 0.30530012E+02  0.20849E-04
 0.30580011E+02  0.97983E-05
 0.30630011E+02  0.21293E-04
 0.30680012E+02  0.79161E-04
 0.30730011E+02  0.11412E-03
 0.30780012E+02  0.84477E-04
 0.30830011E+02  0.28698E-04
 0.30880011E+02 -0.49859E-04
 0.30930012E+02 -0.15431E-03
 0.30980011E+02 -0.21158E-03
 0.31030012E+02 -0.15995E-03
 0.31080011E+02 -0.55271E-04
 0.31130011E+02  0.50093E-04
 0.31180012E+02  0.10842E-03
 0.31230011E+02  0.44689E-04
 0.31280012E+02 -0.61279E-04
 0.31330011E+02 -0.91611E-04
 0.31380011E+02 -0.58940E-04
 0.31430012E+02  0.14795E-04
 0.31480011E+02  0.10758E-03
 0.31530012E+02  0.15039E-03
 0.31580011E+02  0.12466E-03
 0.31630011E+02  0.60809E-04
 0.31680012E+02 -0.55749E-04
 0.31730011E+02 -0.15901E-03
 0.31780012E+02 -0.18846E-03
 0.31830011E+02 -0.14739E-03
 0.31880011E+02  0.99686E-05
 0.31930012E+02  0.17377E-03
 0.31980011E+02  0.20712E-03
 0.32030010E+02  0.13276E-03
 0.32080013E+02  0.94764E-05
 0.32130013E+02 -0.76042E-04
 0.32180012E+02 -0.93296E-04
 0.32230011E+02 -0.42496E-04
 0.32280010E+02  0.67488E-04
 0.32330013E+02  0.88643E-04
 0.32380013E+02  0.24118E-04
 0.32430012E+02 -0.83303E-05
 0.32480011E+02 -0.34380E-04
 0.32530010E+02 -0.33205E-04
 0.32580013E+02 -0.32277E-04
 0.32630013E+02 -0.45872E-04
 0.32680012E+02 -0.11965E-04
 0.32730011E+02  0.35355E-04
 0.32780010E+02  0.35177E-04
 0.32830013E+02 -0.49723E-04
 0.32880013E+02 -0.13306E-03
 0.32930012E+02 -0.14182E-03
 0.32980011E+02 -0.11514E-03
 0.33030010E+02 -0.15872E-04
 0.33080013E+02  0.93516E-04
 0.33130013E+02  0.79195E-04
 0.33180012E+02  0.42790E-04
 0.33230011E+02  0.50483E-04
 0.33280010E+02  0.41338E-04
 0.33330013E+02  0.65860E-04
 0.33380013E+02  0.11371E-03
 0.33430012E+02  0.97053E-04
 0.33480011E+02  0.38743E-05
 0.33530010E+02 -0.10113E-03
 0.33580013E+02 -0.15220E-03
 0.33630013E+02 -0.12183E-03
 0.33680012E+02  0.44590E-05
 0.33730011E+02  0.12987E-03
 0.33780010E+02  0.14005E-03
 0.33830013E+02  0.28322E-04
 0.33880013E+02 -0.10887E-03
 0.33930012E+02 -0.13789E-03
 0.33980011E+02 -0.75313E-04
 0.34030010E+02  0.45253E-05
 0.34080013E+02  0.81052E-04
 0.34130013E+02  0.98518E-04
 0.34180012E+02  0.49775E-04
 0.34230011E+02  0.25488E-05
 0.34280010E+02 -0.37897E-04
 0.34330013E+02 -0.73903E-04
 0.34380013E+02 -0.10209E-03
 0.34430012E+02 -0.13434E-03
 0.34480011E+02 -0.80676E-04
 0.34530010E+02  0.27443E-04
 0.34580013E+02  0.61287E-04
 0.34630013E+02  0.69219E-04
 0.34680012E+02  0.51812E-04
 0.34730011E+02 -0.31368E-05
 0.34780010E+02 -0.21864E-04
 0.34830013E+02  0.16326E-04
 0.34880013E+02  0.11652E-03
 0.34930012E+02  0.20857E-03
 0.34980011E+02  0.22224E-03
 0.35030010E+02  0.15773E-03
 0.35080013E+02  0.30989E-04
 0.35130013E+02 -0.87821E-04
 0.35180012E+02 -0.12048E-03
 0.35230011E+02 -0.53220E-04
 0.35280010E+02 -0.93960E-05
 0.35330013E+02 -0.64824E-04
 0.35380013E+02 -0.12009E-03
 0.35430012E+02 -0.96733E-04
 0.35480011E+02 -0.19548E-04
 0.35530010E+02  0.31328E-04
 0.35580013E+02  0.42863E-04
 0.35630013E+02  0.53607E-04
 0.35680012E+02  0.10132E-04
 0.35730011E+02 -0.62885E-04
 0.35780010E+02 -0.30930E-04
 0.35830013E+02  0.33041E-04
 0.35880013E+02  0.16216E-04
 0.35930012E+02 -0.66654E-04
 0.35980011E+02 -0.14766E-03
 0.36030010E+02 -0.15191E-03
 0.36080013E+02 -0.12009E-03
 0.36130013E+02 -0.94871E-04
 0.36180012E+02 -0.88732E-04
 0.36230011E+02 -0.74151E-04
 0.36280010E+02 -0.40252E-05
 0.36330013E+02  0.11579E-03
 0.36380013E+02  0.19781E-03
 0.36430012E+02  0.17172E-03
 0.36480011E+02  0.13446E-03
 0.36530010E+02  0.11002E-03
 0.36580013E+02  0.89561E-04
 0.36630013E+02  0.92862E-04
 0.36680012E+02  0.59071E-04
 0.36730011E+02 -0.51551E-07
 0.36780010E+02 -0.35943E-04
 0.36830013E+02 -0.19859E-04
 0.36880013E+02  0.88236E-05
 0.36930012E+02 -0.18027E-05
 0.36980011E+02 -0.92388E-05
 0.37030010E+02  0.38973E-05
 0.37080013E+02  0.47115E-04
 0.37130013E+02  0.10651E-03
 0.37180012E+02  0.93705E-04
 0.37230011E+02 -0.87124E-05
 0.37280010E+02 -0.13150E-03
 0.37330013E+02 -0.21804E-03
 0.37380013E+02 -0.26151E-03
 0.37430012E+02 -0.26872E-03
 0.37480011E+02 -0.19555E-03
 0.37530010E+02 -0.94719E-04
 0.37580013E+02  0.17107E-04
 0.37630013E+02  0.15220E-03
 0.37680012E+02  0.18866E-03
 0.37730011E+02  0.17320E-03
 0.37780010E+02  0.11351E-03
 0.37830013E+02  0.28516E-04
 0.37880013E+02  0.48132E-05
 0.37930012E+02 -0.12987E-04
 0.37980011E+02  0.26839E-05
 0.38030010E+02  0.11679E-04
 0.38080013E+02  0.16439E-04
 0.38130013E+02  0.96123E-04
 0.38180012E+02  0.17843E-03
 0.38230011E+02  0.21989E-03
 0.38280010E+02  0.22229E-03
 0.38330013E+02  0.14805E-03
 0.38380013E+02  0.29809E-04
 0.38430012E+02 -0.65442E-04
 0.38480011E+02 -0.14226E-03
 0.38530010E+02 -0.17080E-03
 0.38580013E+02 -0.17874E-03
 0.38630013E+02 -0.21121E-03
 0.38680012E+02 -0.20239E-03
 0.38730011E+02 -0.15215E-03
 0.38780010E+02 -0.89613E-04
 0.38830013E+02 -0.50390E-04
 0.38880013E+02 -0.47723E-04
 0.38930012E+02 -0.13028E-04
 0.38980011E+02  0.42891E-04
 0.39030010E+02  0.86903E-04
 0.39080013E+02  0.10644E-03
 0.39130013E+02  0.70588E-04
 0.39180012E+02 -0.17276E-04
 0.39230011E+02 -0.96114E-04
 0.39280010E+02 -0.10105E-03
 0.39330013E+02 -0.38431E-04
 0.39380013E+02  0.88450E-04
 0.39430012E+02  0.19387E-03
 0.39480011E+02  0.19377E-03
 0.39530010E+02  0.10525E-03
 0.39580013E+02 -0.59965E-04
 0.39630013E+02 -0.18525E-03
 0.39680012E+02 -0.21876E-03
 0.39730011E+02 -0.18951E-03
 0.39780010E+02 -0.11544E-03
 0.39830013E+02 -0.68087E-04
 0.39880013E+02 -0.42596E-05
 0.39930012E+02  0.88788E-04
 0.39980011E+02  0.15317E-03
 0.40030010E+02  0.14012E-03
 0.40080013E+02  0.52581E-04
 0.40130013E+02  0.15724E-04
 0.40180012E+02  0.32304E-04
 0.40230011E+02  0.75242E-04
 0.40280010E+02  0.91322E-04
 0.40330013E+02  0.25444E-05
 0.40380013E+02 -0.93755E-04
 0.40430012E+02 -0.12886E-03
 0.40480011E+02 -0.11929E-03
 0.40530010E+02 -0.10835E-03
 0.40580013E+02 -0.70580E-04
 0.40630013E+02  0.23159E-04
 0.40680012E+02  0.11545E-03
 0.40730011E+02  0.18802E-03
 0.40780010E+02  0.19159E-03
 0.40830013E+02  0.11324E-03
 0.40880013E+02  0.14807E-04
 0.40930012E+02 -0.65062E-04
 0.40980011E+02 -0.66359E-04
 0.41030010E+02 -0.60050E-05
 0.41080013E+02  0.42838E-04
 0.41130013E+02  0.55608E-04
 0.41180012E+02 -0.12435E-04
 0.41230011E+02 -0.76179E-04
 0.41280010E+02 -0.23151E-04
 0.41330013E+02  0.41816E-04
 0.41380013E+02  0.42581E-04
 0.41430012E+02 -0.26609E-05
 0.41480011E+02 -0.92756E-04
 0.41530010E+02 -0.12315E-03
 0.41580013E+02 -0.53645E-04
 0.41630013E+02 -0.55652E-05
 0.41680012E+02 -0.20802E-04
 0.41730011E+02 -0.81983E-04
 0.41780010E+02 -0.12277E-03
 0.41830013E+02 -0.90572E-04
 0.41880013E+02 -0.15698E-04
 0.41930012E+02  0.71959E-04
 0.41980011E+02  0.12764E-03
 0.42030010E+02  0.13887E-03
 0.42080013E+02  0.14168E-03
 0.42130013E+02  0.12367E-03
 0.42180012E+02  0.37767E-04
 0.42230011E+02 -0.39530E-04
 0.42280010E+02 -0.80717E-04
 0.42330013E+02 -0.11377E-03
 0.42380013E+02 -0.45438E-04
 0.42430012E+02  0.87958E-04
 0.42480011E+02  0.18139E-03
 0.42530010E+02  0.18598E-03
 0.42580013E+02  0.12151E-03
 0.42630013E+02  0.71015E-04
 0.42680012E+02  0.33285E-04
 0.42730011E+02  0.16837E-04
 0.42780010E+02  0.25337E-04
 0.42830013E+02  0.10388E-04
 0.42880013E+02 -0.45201E-04
 0.42930012E+02 -0.14392E-03
 0.42980011E+02 -0.26149E-03
 0.43030010E+02 -0.32253E-03
 0.43080013E+02 -0.24848E-03
 0.43130013E+02 -0.63322E-04
 0.43180012E+02  0.10079E-03
 0.43230011E+02  0.17545E-03
 0.43280010E+02  0.18042E-03
 0.43330013E+02  0.12529E-03
 0.43380013E+02  0.41318E-04
 0.43430012E+02 -0.54432E-05
 0.43480011E+02  0.29711E-04
 0.43530010E+02  0.79540E-04
 0.43580013E+02  0.59828E-04
 0.43630013E+02 -0.26583E-05
 0.43680012E+02 -0.62345E-04
 0.43730011E+02 -0.13896E-03
 0.43780010E+02 -0.25415E-03
 0.43830013E+02 -0.31865E-03
 0.43880013E+02 -0.28211E-03
 0.43930012E+02 -0.13689E-03
 0.43980011E+02  0.82761E-04
 0.44030010E+02  0.22888E-03
 0.44080013E+02  0.30231E-03
 0.44130013E+02  0.31927E-03
 0.44180012E+02  0.25822E-03
 0.44230011E+02  0.20905E-03
 0.44280010E+02  0.17523E-03
 0.44330013E+02  0.10752E-03
 0.44380013E+02  0.18327E-04
 0.44430012E+02 -0.47962E-04
 0.44480011E+02 -0.81529E-04
 0.44530010E+02 -0.10925E-03
 0.44580013E+02 -0.15939E-03
 0.44630013E+02 -0.19818E-03
 0.44680012E+02 -0.13819E-03
 0.44730011E+02 -0.38588E-04
 0.44780010E+02 -0.99575E-05
 0.44830013E+02 -0.66207E-04
 0.44880013E+02 -0.15747E-03
 0.44930012E+02 -0.19368E-03
 0.44980011E+02 -0.17568E-03
 0.45030010E+02 -0.12082E-03
 0.45080013E+02 -0.10689E-04
 0.45130013E+02  0.13415E-03
 0.45180012E+02  0.23824E-03
 0.45230011E+02  0.18315E-03
 0.45280010E+02  0.54497E-04
 0.45330013E+02 -0.68151E-05
 0.45380013E+02  0.21462E-04
 0.45430012E+02  0.13591E-03
 0.45480011E+02  0.21847E-03
 0.45530010E+02  0.19961E-03
 0.45580013E+02  0.12220E-03
 0.45630013E+02  0.41824E-04
 0.45680012E+02 -0.66878E-05
 0.45730011E+02 -0.32556E-04
 0.45780010E+02 -0.36327E-04
 0.45830013E+02 -0.21817E-04
 0.45880013E+02 -0.32227E-04
 0.45930012E+02 -0.81519E-04
 0.45980011E+02 -0.10111E-03
 0.46030010E+02 -0.85709E-04
 0.46080013E+02 -0.10988E-03
 0.46130013E+02 -0.20814E-03
 0.46180012E+02 -0.32241E-03
 0.46230011E+02 -0.32349E-03
 0.46280010E+02 -0.22318E-03
 0.46330013E+02 -0.89790E-04
 0.46380013E+02  0.72254E-04
 0.46430012E+02  0.14262E-03
 0.46480011E+02  0.71860E-04
 0.46530010E+02 -0.46166E-04
 0.46580013E+02 -0.11628E-03
 0.46630013E+02 -0.56968E-04
 0.46680012E+02  0.66158E-04
 0.46730011E+02  0.15612E-03
 0.46780010E+02  0.18953E-03
 0.46830013E+02  0.19333E-03
 0.46880013E+02  0.19412E-03
 0.46930012E+02  0.17102E-03
 0.46980011E+02  0.16835E-03
 0.47030010E+02  0.15465E-03
 0.47080013E+02  0.83652E-04
 0.47130013E+02 -0.10284E-04
 0.47180012E+02 -0.10062E-03
 0.47230011E+02 -0.13246E-03
 0.47280010E+02 -0.72592E-04
 0.47330013E+02  0.57838E-04
 0.47380013E+02  0.16476E-03
 0.47430012E+02  0.23585E-03
 0.47480011E+02  0.31548E-03
 0.47530010E+02  0.40236E-03
 0.47580013E+02  0.44652E-03
 0.47630013E+02  0.32970E-03
 0.47680012E+02  0.42275E-04
 0.47730011E+02 -0.27257E-03
 0.47780010E+02 -0.44378E-03
 0.47830013E+02 -0.43783E-03
 0.47880013E+02 -0.34783E-03
 0.47930012E+02 -0.29212E-03
 0.47980011E+02 -0.27666E-03
 0.48030010E+02 -0.26498E-03
 0.48080013E+02 -0.29569E-03
 0.48130013E+02 -0.33887E-03
 0.48180012E+02 -0.45536E-03
 0.48230011E+02 -0.60024E-03
 0.48280010E+02 -0.53915E-03
 0.48330013E+02 -0.30358E-03
 0.48380013E+02  0.25900E-04
 0.48430012E+02  0.44367E-03
 0.48480011E+02  0.82486E-03
 0.48530010E+02  0.10060E-02
 0.48580013E+02  0.85017E-03
 0.48630013E+02  0.44718E-03
 0.48680012E+02  0.28162E-04
 0.48730011E+02 -0.23055E-03
 0.48780010E+02 -0.18368E-03
 0.48830013E+02  0.11279E-03
 0.48880013E+02  0.41889E-03
 0.48930012E+02  0.45326E-03
 0.48980011E+02  0.23578E-03
 0.49030010E+02 -0.21213E-05
 0.49080013E+02 -0.22523E-03
 0.49130013E+02 -0.33157E-03
 0.49180012E+02 -0.28229E-03
 0.49230011E+02 -0.18834E-03
 0.49280010E+02 -0.14850E-03
 0.49330013E+02 -0.23990E-03
 0.49380013E+02 -0.38898E-03
 0.49430012E+02 -0.47025E-03
 0.49480011E+02 -0.45954E-03
 0.49530010E+02 -0.48707E-03
 0.49580013E+02 -0.49858E-03
 0.49630013E+02 -0.36984E-03
 0.49680012E+02 -0.20230E-03
 0.49730011E+02 -0.22382E-04
 0.49780010E+02  0.13382E-03
 0.49830013E+02  0.30196E-03
 0.49880013E+02  0.49783E-03
 0.49930012E+02  0.51794E-03
 0.49980011E+02  0.41463E-03
 0.50030010E+02  0.42272E-03
 0.50080013E+02  0.65984E-03
 0.50130013E+02  0.98039E-03
 0.50180012E+02  0.11035E-02
 0.50230011E+02  0.93394E-03
 0.50280010E+02  0.49771E-03
 0.50330013E+02 -0.44251E-04
 0.50380013E+02 -0.55798E-03
 0.50430012E+02 -0.94612E-03
 0.50480011E+02 -0.10495E-02
 0.50530010E+02 -0.81447E-03
 0.50580013E+02 -0.33089E-03
 0.50630013E+02  0.11731E-03
 0.50680012E+02  0.22924E-03
 0.50730011E+02  0.18747E-05
 0.50780010E+02 -0.21736E-03
 0.50830013E+02 -0.20156E-03
 0.50880013E+02 -0.24409E-04
 0.50930012E+02  0.16354E-03
 0.50980011E+02  0.12813E-03
 0.51030010E+02 -0.28004E-04
 0.51080013E+02 -0.18432E-03
 0.51130013E+02 -0.46069E-03
 0.51180012E+02 -0.61841E-03
 0.51230011E+02 -0.42691E-03
 0.51280010E+02 -0.64633E-04
 0.51330013E+02  0.10981E-03
 0.51380013E+02 -0.25646E-04
 0.51430012E+02 -0.31333E-03
 0.51480011E+02 -0.53337E-03
 0.51530010E+02 -0.47687E-03
 0.51580013E+02 -0.14936E-03
 0.51630013E+02  0.37137E-03
 0.51680012E+02  0.98813E-03
 0.51730011E+02  0.14235E-02
 0.51780010E+02  0.14682E-02
 0.51830013E+02  0.11466E-02
 0.51880013E+02  0.64553E-03
 0.51930012E+02  0.62068E-04
 0.51980011E+02 -0.59822E-03
 0.52030010E+02 -0.10406E-02
 0.52080013E+02 -0.10182E-02
 0.52130013E+02 -0.71140E-03
 0.52180012E+02 -0.32855E-03
 0.52230011E+02  0.42249E-04
 0.52280010E+02  0.23921E-03
 0.52330013E+02  0.27638E-03
 0.52380013E+02  0.29400E-03
 0.52430012E+02  0.28486E-03
 0.52480011E+02  0.25509E-03
 0.52530010E+02  0.16908E-03
 0.52580013E+02 -0.72012E-04
 0.52630013E+02 -0.40048E-03
 0.52680012E+02 -0.63609E-03
 0.52730011E+02 -0.72103E-03
 0.52780010E+02 -0.64959E-03
 0.52830013E+02 -0.50961E-03
 0.52880013E+02 -0.38362E-03
 0.52930012E+02 -0.13944E-03
 0.52980011E+02  0.24328E-03
 0.53030010E+02  0.52778E-03
 0.53080013E+02  0.57601E-03
 0.53130013E+02  0.52945E-03
 0.53180012E+02  0.46035E-03
 0.53230011E+02  0.45534E-03
 0.53280010E+02  0.62196E-03
 0.53330013E+02  0.70097E-03
 0.53380013E+02  0.48005E-03
 0.53430012E+02  0.61374E-04
 0.53480011E+02 -0.28912E-03
 0.53530010E+02 -0.45435E-03
 0.53580013E+02 -0.57020E-03
 0.53630013E+02 -0.58955E-03
 0.53680012E+02 -0.52390E-03
 0.53730011E+02 -0.51502E-03
 0.53780010E+02 -0.45112E-03
 0.53830013E+02 -0.31979E-03
 0.53880013E+02 -0.23122E-03
 0.53930012E+02 -0.36158E-04
 0.53980011E+02  0.32115E-03
 0.54030010E+02  0.70670E-03
 0.54080013E+02  0.10055E-02
 0.54130013E+02  0.10414E-02
 0.54180012E+02  0.90406E-03
 0.54230011E+02  0.73832E-03
 0.54280010E+02  0.31624E-03
 0.54330013E+02 -0.38852E-03
 0.54380013E+02 -0.99956E-03
 0.54430012E+02 -0.13506E-02
 0.54480011E+02 -0.14799E-02
 0.54530010E+02 -0.12711E-02
 0.54580013E+02 -0.73279E-03
 0.54630013E+02 -0.77703E-04
 0.54680012E+02  0.41808E-03
 0.54730011E+02  0.68314E-03
 0.54780010E+02  0.89157E-03
 0.54830013E+02  0.95151E-03
 0.54880013E+02  0.80984E-03
 0.54930012E+02  0.64586E-03
 0.54980011E+02  0.44262E-03
 0.55030010E+02  0.10278E-03
 0.55080013E+02 -0.26826E-03
 0.55130013E+02 -0.60141E-03
 0.55180012E+02 -0.92750E-03
 0.55230011E+02 -0.10321E-02
 0.55280010E+02 -0.72188E-03
 0.55330013E+02 -0.13109E-03
 0.55380013E+02  0.50786E-03
 0.55430012E+02  0.98694E-03
 0.55480011E+02  0.10969E-02
 0.55530010E+02  0.91588E-03
 0.55580013E+02  0.63467E-03
 0.55630013E+02  0.22652E-03
 0.55680012E+02 -0.29184E-03
 0.55730011E+02 -0.67154E-03
 0.55780010E+02 -0.64239E-03
 0.55830013E+02 -0.37925E-03
 0.55880013E+02 -0.13447E-03
 0.55930012E+02  0.96763E-04
 0.55980011E+02  0.16616E-03
 0.56030010E+02 -0.79496E-04
 0.56080013E+02 -0.44123E-03
 0.56130013E+02 -0.66678E-03
 0.56180012E+02 -0.70598E-03
 0.56230011E+02 -0.56762E-03
 0.56280010E+02 -0.36165E-03
 0.56330013E+02 -0.16919E-03
 0.56380013E+02  0.38198E-04
 0.56430012E+02  0.23355E-03
 0.56480011E+02  0.41728E-03
 0.56530010E+02  0.67648E-03
 0.56580013E+02  0.93456E-03
 0.56630013E+02  0.97949E-03
 0.56680012E+02  0.78833E-03
 0.56730011E+02  0.41067E-03
 0.56780010E+02 -0.48096E-04
 0.56830013E+02 -0.46250E-03
 0.56880013E+02 -0.70346E-03
 0.56930012E+02 -0.67229E-03
 0.56980011E+02 -0.53288E-03
 0.57030010E+02 -0.35064E-03
 0.57080013E+02 -0.91834E-04
 0.57130013E+02  0.18342E-03
 0.57180012E+02  0.33421E-03
 0.57230011E+02  0.28775E-03
 0.57280010E+02  0.22956E-03
 0.57330013E+02  0.19289E-03
 0.57380013E+02  0.12231E-03
 0.57430012E+02  0.83609E-04
 0.57480011E+02  0.12229E-03
 0.57530010E+02  0.21189E-03
 0.57580013E+02  0.15507E-03
 0.57630013E+02 -0.53464E-04
 0.57680012E+02 -0.23744E-03
 0.57730011E+02 -0.38174E-03
 0.57780010E+02 -0.44421E-03
 0.57830013E+02 -0.48330E-03
 0.57880013E+02 -0.51263E-03
 0.57930012E+02 -0.50009E-03
 0.57980011E+02 -0.50351E-03
 0.58030010E+02 -0.36137E-03
 0.58080013E+02 -0.65325E-04
 0.58130013E+02  0.28942E-03
 0.58180012E+02  0.65329E-03
 0.58230011E+02  0.83698E-03
 0.58280010E+02  0.76376E-03
 0.58330013E+02  0.48160E-03
 0.58380013E+02  0.16577E-03
 0.58430012E+02 -0.43012E-04
 0.58480011E+02 -0.13232E-03
 0.58530010E+02 -0.66796E-04
 0.58580013E+02  0.91411E-04
 0.58630013E+02  0.17664E-03
 0.58680012E+02  0.93206E-04
 0.58730011E+02 -0.10972E-03
 0.58780010E+02 -0.29709E-03
 0.58830013E+02 -0.28293E-03
 0.58880013E+02 -0.95779E-04
 0.58930012E+02  0.11512E-03
 0.58980011E+02  0.30515E-03
 0.59030010E+02  0.35074E-03
 0.59080013E+02  0.21566E-03
 0.59130013E+02 -0.83481E-04
 0.59180012E+02 -0.46245E-03
 0.59230011E+02 -0.75910E-03
 0.59280010E+02 -0.89749E-03
 0.59330013E+02 -0.81456E-03
 0.59380013E+02 -0.55503E-03
 0.59430012E+02 -0.22681E-03
 0.59480011E+02  0.80801E-04
 0.59530010E+02  0.34829E-03
 0.59580013E+02  0.55180E-03
 0.59630013E+02  0.61688E-03
 0.59680012E+02  0.58417E-03
 0.59730011E+02  0.49510E-03
 0.59780010E+02  0.34433E-03
 0.59830013E+02  0.15907E-03
 0.59880013E+02 -0.25165E-04
 0.59930012E+02 -0.16372E-03
 0.59980011E+02 -0.25869E-03
 0.60030010E+02 -0.26990E-03
 0.60080013E+02 -0.10334E-03
 0.60130013E+02  0.12375E-03
 0.60180012E+02  0.24168E-03
 0.60230011E+02  0.21464E-03
 0.60280010E+02  0.11156E-03
 0.60330013E+02  0.91999E-04
 0.60380013E+02  0.15831E-03
 0.60430012E+02  0.18271E-03
 0.60480011E+02  0.12377E-03
 0.60530010E+02  0.13374E-03
 0.60580013E+02  0.26832E-03
 0.60630013E+02  0.35762E-03
 0.60680012E+02  0.36061E-03
 0.60730011E+02  0.22089E-03
 0.60780010E+02 -0.11637E-03
 0.60830013E+02 -0.61124E-03
 0.60880013E+02 -0.11370E-02
 0.60930012E+02 -0.13866E-02
 0.60980011E+02 -0.12719E-02
 0.61030010E+02 -0.96999E-03
 0.61080013E+02 -0.62335E-03
 0.61130013E+02 -0.34751E-03
 0.61180012E+02 -0.18161E-03
 0.61230011E+02 -0.85531E-04
 0.61280010E+02  0.20895E-04
 0.61330013E+02  0.26485E-03
 0.61380013E+02  0.60207E-03
 0.61430012E+02  0.79980E-03
 0.61480011E+02  0.74284E-03
 0.61530010E+02  0.56830E-03
 0.61580013E+02  0.46970E-03
 0.61630013E+02  0.50260E-03
 0.61680012E+02  0.61921E-03
 0.61730011E+02  0.70195E-03
 0.61780010E+02  0.66863E-03
 0.61830013E+02  0.51908E-03
 0.61880013E+02  0.34250E-03
 0.61930012E+02  0.23918E-03
 0.61980011E+02  0.21680E-03
 0.62030010E+02  0.20100E-03
 0.62080013E+02  0.56992E-04
 0.62130013E+02 -0.18528E-03
 0.62180012E+02 -0.36681E-03
 0.62230011E+02 -0.45591E-03
 0.62280010E+02 -0.49514E-03
 0.62330013E+02 -0.50003E-03
 0.62380013E+02 -0.47313E-03
 0.62430012E+02 -0.34615E-03
 0.62480011E+02 -0.18562E-03
 0.62530010E+02 -0.15565E-03
 0.62580013E+02 -0.17950E-03
 0.62630013E+02 -0.16238E-03
 0.62680012E+02 -0.74047E-04
 0.62730011E+02  0.53611E-05
 0.62780010E+02 -0.44209E-04
 0.62830013E+02 -0.17468E-03
 0.62880013E+02 -0.32441E-03
 0.62930012E+02 -0.38143E-03
 0.62980011E+02 -0.24661E-03
 0.63030010E+02  0.25459E-04
 0.63080013E+02  0.24456E-03
 0.63130013E+02  0.28920E-03
 0.63180012E+02  0.26643E-03
 0.63230011E+02  0.29362E-03
 0.63280010E+02  0.35967E-03
 0.63330013E+02  0.32297E-03
 0.63380013E+02  0.10048E-03
 0.63430012E+02 -0.17401E-03
 0.63480011E+02 -0.29266E-03
 0.63530010E+02 -0.17245E-03
 0.63580013E+02  0.55724E-04
 0.63630013E+02  0.22954E-03
 0.63680012E+02  0.27185E-03
 0.63730011E+02  0.17905E-03
 0.63780010E+02  0.32588E-04
 0.63830013E+02 -0.81840E-04
 0.63880013E+02 -0.15322E-03
 0.63930012E+02 -0.20920E-03
 0.63980011E+02 -0.18308E-03
 0.64030014E+02 -0.27121E-04
 0.64080009E+02  0.16404E-03
 0.64130013E+02  0.29289E-03
 0.64180016E+02  0.33021E-03
 0.64230011E+02  0.26105E-03
 0.64280014E+02  0.10630E-03
 0.64330009E+02 -0.50034E-04
 0.64380013E+02 -0.18435E-03
 0.64430016E+02 -0.26034E-03
 0.64480011E+02 -0.25275E-03
 0.64530014E+02 -0.22392E-03
 0.64580009E+02 -0.16442E-03
 0.64630013E+02 -0.56621E-04
 0.64680016E+02  0.47240E-04
 0.64730011E+02  0.21274E-04
 0.64780014E+02 -0.18953E-03
 0.64830009E+02 -0.40345E-03
 0.64880013E+02 -0.45946E-03
 0.64930016E+02 -0.38076E-03
 0.64980011E+02 -0.22697E-03
 0.65030014E+02 -0.53244E-04
 0.65080009E+02  0.90902E-04
 0.65130013E+02  0.15697E-03
 0.65180016E+02  0.14891E-03
 0.65230011E+02  0.18152E-03
 0.65280014E+02  0.33953E-03
 0.65330009E+02  0.56890E-03
 0.65380013E+02  0.69297E-03
 0.65430016E+02  0.63141E-03
 0.65480011E+02  0.49252E-03
 0.65530014E+02  0.34208E-03
 0.65580009E+02  0.16756E-03
 0.65630013E+02 -0.30672E-04
 0.65680016E+02 -0.20769E-03
 0.65730011E+02 -0.27502E-03
 0.65780014E+02 -0.23580E-03
 0.65830009E+02 -0.22080E-03
 0.65880013E+02 -0.23553E-03
 0.65930016E+02 -0.19407E-03
 0.65980011E+02 -0.10430E-03
 0.66030014E+02  0.48938E-04
 0.66080009E+02  0.21911E-03
 0.66130013E+02  0.29517E-03
 0.66180016E+02  0.26003E-03
 0.66230011E+02  0.13420E-03
 0.66280014E+02 -0.74432E-04
 0.66330009E+02 -0.32676E-03
 0.66380013E+02 -0.56717E-03
 0.66430016E+02 -0.72993E-03
 0.66480011E+02 -0.70070E-03
 0.66530014E+02 -0.54203E-03
 0.66580009E+02 -0.41833E-03
 0.66630013E+02 -0.34487E-03
 0.66680016E+02 -0.29524E-03
 0.66730011E+02 -0.21404E-03
 0.66780014E+02 -0.37764E-04
 0.66830009E+02  0.18526E-03
 0.66880013E+02  0.38114E-03
 0.66930016E+02  0.53686E-03
 0.66980011E+02  0.61504E-03
 0.67030014E+02  0.64256E-03
 0.67080009E+02  0.66695E-03
 0.67130013E+02  0.64946E-03
 0.67180016E+02  0.56254E-03
 0.67230011E+02  0.41500E-03
 0.67280014E+02  0.26820E-03
 0.67330009E+02  0.14612E-03
 0.67380013E+02  0.41475E-04
 0.67430016E+02 -0.44827E-04
 0.67480011E+02 -0.13467E-03
 0.67530014E+02 -0.23276E-03
 0.67580009E+02 -0.34977E-03
 0.67630013E+02 -0.45755E-03
 0.67680016E+02 -0.52122E-03
 0.67730011E+02 -0.48843E-03
 0.67780014E+02 -0.33117E-03
 0.67830009E+02 -0.18817E-03
 0.67880013E+02 -0.11189E-03
 0.67930016E+02 -0.47722E-04
 0.67980011E+02 -0.45381E-05
 0.68030014E+02  0.17109E-04
 0.68080009E+02  0.15140E-04
 0.68130013E+02 -0.10245E-04
 0.68180016E+02 -0.84837E-04
 0.68230011E+02 -0.19087E-03
 0.68280014E+02 -0.25883E-03
 0.68330009E+02 -0.26946E-03
 0.68380013E+02 -0.22082E-03
 0.68430016E+02 -0.14141E-03
 0.68480011E+02 -0.94174E-05
 0.68530014E+02  0.18782E-03
 0.68580009E+02  0.34962E-03
 0.68630013E+02  0.42381E-03
 0.68680016E+02  0.42169E-03
 0.68730011E+02  0.33933E-03
 0.68780014E+02  0.17991E-03
 0.68830009E+02  0.16735E-04
 0.68880013E+02 -0.50543E-04
 0.68930016E+02 -0.61793E-04
 0.68980011E+02 -0.86984E-04
 0.69030014E+02 -0.62022E-04
 0.69080009E+02  0.73638E-04
 0.69130013E+02  0.23022E-03
 0.69180016E+02  0.27778E-03
 0.69230011E+02  0.22529E-03
 0.69280014E+02  0.13837E-03
 0.69330009E+02  0.68940E-04
 0.69380013E+02  0.48948E-04
 0.69430016E+02  0.81047E-04
 0.69480011E+02  0.11791E-03
 0.69530014E+02  0.68314E-04
 0.69580009E+02 -0.43027E-04
 0.69630013E+02 -0.14845E-03
 0.69680016E+02 -0.20331E-03
 0.69730011E+02 -0.17885E-03
 0.69780014E+02 -0.10506E-03
 0.69830009E+02 -0.49257E-04
 0.69880013E+02 -0.71766E-04
 0.69930016E+02 -0.10991E-03
 0.69980011E+02 -0.10815E-03
 0.70030014E+02 -0.67512E-04
 0.70080009E+02  0.10711E-04
 0.70130013E+02  0.81238E-04
 0.70180016E+02  0.11771E-03
 0.70230011E+02  0.10598E-03
 0.70280014E+02  0.58520E-04
 0.70330009E+02 -0.85391E-06
 0.70380013E+02 -0.88041E-04
 0.70430016E+02 -0.21575E-03
 0.70480011E+02 -0.32688E-03
 0.70530014E+02 -0.35695E-03
 0.70580009E+02 -0.32105E-03
 0.70630013E+02 -0.26360E-03
 0.70680016E+02 -0.20441E-03
 0.70730011E+02 -0.15017E-03
 0.70780014E+02 -0.13220E-03
 0.70830009E+02 -0.14009E-03
 0.70880013E+02 -0.96879E-04
 0.70930016E+02  0.31304E-04
 0.70980011E+02  0.16053E-03
 0.71030014E+02  0.22265E-03
 0.71080009E+02  0.23867E-03
 0.71130013E+02  0.27004E-03
 0.71180016E+02  0.39719E-03
 0.71230011E+02  0.58757E-03
 0.71280014E+02  0.70827E-03
 0.71330009E+02  0.62805E-03
 0.71380013E+02  0.36671E-03
 0.71430016E+02  0.85677E-04
 0.71480011E+02 -0.13382E-03
 0.71530014E+02 -0.27661E-03
 0.71580009E+02 -0.32152E-03
 0.71630013E+02 -0.27540E-03
 0.71680016E+02 -0.23125E-03
 0.71730011E+02 -0.21899E-03
 0.71780014E+02 -0.17549E-03
 0.71830009E+02 -0.13496E-03
 0.71880013E+02 -0.13698E-03
 0.71930016E+02 -0.18434E-03
 0.71980011E+02 -0.24110E-03
 0.72030014E+02 -0.23740E-03
 0.72080009E+02 -0.17054E-03
 0.72130013E+02 -0.60082E-04
 0.72180016E+02  0.54577E-04
 0.72230011E+02  0.11975E-03
 0.72280014E+02  0.12105E-03
 0.72330009E+02  0.10393E-03
 0.72380013E+02  0.11613E-03
 0.72430016E+02  0.13780E-03
 0.72480011E+02  0.14672E-03
 0.72530014E+02  0.11508E-03
 0.72580009E+02  0.24812E-04
 0.72630013E+02 -0.68332E-04
 0.72680016E+02 -0.10754E-03
 0.72730011E+02 -0.78147E-04
 0.72780014E+02 -0.44689E-05
 0.72830009E+02  0.60125E-04
 0.72880013E+02  0.70067E-04
 0.72930016E+02  0.24452E-04
 0.72980011E+02 -0.22678E-04
 0.73030014E+02 -0.35472E-04
 0.73080009E+02 -0.23943E-04
 0.73130013E+02  0.40023E-05
 0.73180016E+02  0.32778E-04
 0.73230011E+02  0.22021E-04
 0.73280014E+02 -0.28696E-04
 0.73330009E+02 -0.68301E-04
 0.73380013E+02 -0.50487E-04
 0.73430016E+02  0.27484E-04
 0.73480011E+02  0.12731E-03
 0.73530014E+02  0.22449E-03
 0.73580009E+02  0.27701E-03
 0.73630013E+02  0.23196E-03
 0.73680016E+02  0.11629E-03
 0.73730011E+02 -0.31669E-05
 0.73780014E+02 -0.96735E-04
 0.73830009E+02 -0.16191E-03
 0.73880013E+02 -0.16455E-03
 0.73930016E+02 -0.85289E-04
 0.73980011E+02  0.51339E-05
 0.74030014E+02  0.64478E-04
 0.74080009E+02  0.95678E-04
 0.74130013E+02  0.76001E-04
 0.74180016E+02  0.13349E-04
 0.74230011E+02 -0.61694E-04
 0.74280014E+02 -0.10588E-03
 0.74330009E+02 -0.86683E-04
 0.74380013E+02 -0.49982E-05
 0.74430016E+02  0.11205E-03
 0.74480011E+02  0.20319E-03
 0.74530014E+02  0.22149E-03
 0.74580009E+02  0.14095E-03
 0.74630013E+02 -0.29563E-05
 0.74680016E+02 -0.14359E-03
 0.74730011E+02 -0.24517E-03
 0.74780014E+02 -0.27445E-03
 0.74830009E+02 -0.24638E-03
 0.74880013E+02 -0.18399E-03
 0.74930016E+02 -0.11080E-03
 0.74980011E+02 -0.68985E-04
 0.75030014E+02 -0.45026E-04
 0.75080009E+02 -0.13474E-04
 0.75130013E+02  0.20362E-04
 0.75180016E+02  0.41677E-04
 0.75230011E+02  0.33887E-04
 0.75280014E+02  0.50904E-05
 0.75330009E+02 -0.10287E-04
 0.75380013E+02  0.10622E-04
 0.75430016E+02  0.56131E-04
 0.75480011E+02  0.10675E-03
 0.75530014E+02  0.14345E-03
 0.75580009E+02  0.14585E-03
 0.75630013E+02  0.12168E-03
 0.75680016E+02  0.91262E-04
 0.75730011E+02  0.65401E-04
 0.75780014E+02  0.51180E-04
 0.75830009E+02  0.60658E-04
 0.75880013E+02  0.84663E-04
 0.75930016E+02  0.59898E-04
 0.75980011E+02 -0.62799E-04
 0.76030014E+02 -0.22925E-03
 0.76080009E+02 -0.35116E-03
 0.76130013E+02 -0.38348E-03
 0.76180016E+02 -0.31212E-03
 0.76230011E+02 -0.19144E-03
 0.76280014E+02 -0.83612E-04
 0.76330009E+02  0.97152E-06
 0.76380013E+02  0.47782E-04
 0.76430016E+02  0.64180E-04
 0.76480011E+02  0.70700E-04
 0.76530014E+02  0.74466E-04
 0.76580009E+02  0.99415E-04
 0.76630013E+02  0.14132E-03
 0.76680016E+02  0.15012E-03
 0.76730011E+02  0.10501E-03
 0.76780014E+02  0.53726E-04
 0.76830009E+02  0.44375E-04
 0.76880013E+02  0.93449E-04
 0.76930016E+02  0.17234E-03
 0.76980011E+02  0.20485E-03
 0.77030014E+02  0.18304E-03
 0.77080009E+02  0.14243E-03
 0.77130013E+02  0.98641E-04
 0.77180016E+02  0.47924E-04
 0.77230011E+02 -0.31945E-04
 0.77280014E+02 -0.12574E-03
 0.77330009E+02 -0.21321E-03
 0.77380013E+02 -0.25585E-03
 0.77430016E+02 -0.22193E-03
 0.77480011E+02 -0.15926E-03
 0.77530014E+02 -0.10207E-03
 0.77580009E+02 -0.52129E-04
 0.77630013E+02 -0.11651E-04
 0.77680016E+02  0.26036E-04
 0.77730011E+02  0.62010E-04
 0.77780014E+02  0.98780E-04
 0.77830009E+02  0.12643E-03
 0.77880013E+02  0.13842E-03
 0.77930016E+02  0.14296E-03
 0.77980011E+02  0.11582E-03
 0.78030014E+02  0.33231E-04
 0.78080009E+02 -0.73779E-04
 0.78130013E+02 -0.14255E-03
 0.78180016E+02 -0.15129E-03
 0.78230011E+02 -0.12248E-03
 0.78280014E+02 -0.61681E-04
 0.78330009E+02  0.33421E-04
 0.78380013E+02  0.15302E-03
 0.78430016E+02  0.23586E-03
 0.78480011E+02  0.22470E-03
 0.78530014E+02  0.14486E-03
 0.78580009E+02  0.45617E-04
 0.78630013E+02 -0.27632E-04
 0.78680016E+02 -0.63756E-04
 0.78730011E+02 -0.85707E-04
 0.78780014E+02 -0.10576E-03
 0.78830009E+02 -0.12381E-03
 0.78880013E+02 -0.14314E-03
 0.78930016E+02 -0.16952E-03
 0.78980011E+02 -0.18372E-03
 0.79030014E+02 -0.16410E-03
 0.79080009E+02 -0.12205E-03
 0.79130013E+02 -0.95850E-04
 0.79180016E+02 -0.99785E-04
 0.79230011E+02 -0.10183E-03
 0.79280014E+02 -0.93363E-04
 0.79330009E+02 -0.80254E-04
 0.79380013E+02 -0.43984E-04
 0.79430016E+02  0.13846E-04
 0.79480011E+02  0.70289E-04
 0.79530014E+02  0.12739E-03
 0.79580009E+02  0.19241E-03
 0.79630013E+02  0.25591E-03
 0.79680016E+02  0.29429E-03
 0.79730011E+02  0.27033E-03
 0.79780014E+02  0.19196E-03
 0.79830009E+02  0.80125E-04
 0.79880013E+02 -0.49052E-04
 0.79930016E+02 -0.14368E-03
 0.79980011E+02 -0.17745E-03
 0.80030014E+02 -0.16125E-03
 0.80080009E+02 -0.12466E-03
 0.80130013E+02 -0.99182E-04
 0.80180016E+02 -0.68583E-04
 0.80230011E+02  0.26063E-05
 0.80280014E+02  0.10397E-03
 0.80330009E+02  0.18228E-03
 0.80380013E+02  0.18495E-03
 0.80430016E+02  0.10987E-03
 0.80480011E+02  0.15021E-04
 0.80530014E+02 -0.33322E-04
 0.80580009E+02 -0.14299E-04
 0.80630013E+02  0.35535E-04
 0.80680016E+02  0.36688E-04
 0.80730011E+02 -0.41018E-04
 0.80780014E+02 -0.12498E-03
 0.80830009E+02 -0.15420E-03
 0.80880013E+02 -0.11569E-03
 0.80930016E+02 -0.20695E-04
 0.80980011E+02  0.81352E-04
 0.81030014E+02  0.11659E-03
 0.81080009E+02  0.60416E-04
 0.81130013E+02 -0.89345E-05
 0.81180016E+02 -0.25507E-04
 0.81230011E+02  0.56246E-05
 0.81280014E+02  0.45000E-04
 0.81330009E+02  0.55676E-04
 0.81380013E+02  0.32927E-04
 0.81430016E+02 -0.12769E-04
 0.81480011E+02 -0.33920E-04
 0.81530014E+02  0.45016E-05
 0.81580009E+02  0.79089E-04
 0.81630013E+02  0.15257E-03
 0.81680016E+02  0.18532E-03
 0.81730011E+02  0.14906E-03
 0.81780014E+02  0.55359E-04
 0.81830009E+02 -0.46617E-04
 0.81880013E+02 -0.10936E-03
 0.81930016E+02 -0.11306E-03
 0.81980011E+02 -0.75588E-04
 0.82030014E+02 -0.36717E-04
 0.82080009E+02 -0.26294E-04
 0.82130013E+02 -0.66747E-04
 0.82180016E+02 -0.14585E-03
 0.82230011E+02 -0.21325E-03
 0.82280014E+02 -0.26462E-03
 0.82330009E+02 -0.31525E-03
 0.82380013E+02 -0.34635E-03
 0.82430016E+02 -0.33767E-03
 0.82480011E+02 -0.26401E-03
 0.82530014E+02 -0.12472E-03
 0.82580009E+02  0.49063E-04
 0.82630013E+02  0.22259E-03
 0.82680016E+02  0.35215E-03
 0.82730011E+02  0.40695E-03
 0.82780014E+02  0.39889E-03
 0.82830009E+02  0.35646E-03
 0.82880013E+02  0.28893E-03
 0.82930016E+02  0.20275E-03
 0.82980011E+02  0.11169E-03
 0.83030014E+02  0.46024E-04
 0.83080009E+02  0.28909E-04
 0.83130013E+02  0.37262E-04
 0.83180016E+02  0.41567E-04
 0.83230011E+02  0.20968E-04
 0.83280014E+02 -0.47583E-04
 0.83330009E+02 -0.14236E-03
 0.83380013E+02 -0.21060E-03
 0.83430016E+02 -0.22896E-03
 0.83480011E+02 -0.19827E-03
 0.83530014E+02 -0.13728E-03
 0.83580009E+02 -0.80719E-04
 0.83630013E+02 -0.41704E-04
 0.83680016E+02 -0.20061E-04
 0.83730011E+02 -0.15947E-04
 0.83780014E+02 -0.16759E-04
 0.83830009E+02 -0.21983E-04
 0.83880013E+02 -0.31760E-04
 0.83930016E+02 -0.38595E-04
 0.83980011E+02 -0.33396E-04
 0.84030014E+02 -0.79410E-05
 0.84080009E+02  0.18937E-04
 0.84130013E+02  0.38613E-04
 0.84180016E+02  0.53498E-04
 0.84230011E+02  0.45871E-04
 0.84280014E+02  0.26315E-04
 0.84330009E+02  0.25523E-04
 0.84380013E+02  0.40352E-04
 0.84430016E+02  0.48935E-04
 0.84480011E+02  0.44572E-04
 0.84530014E+02  0.23142E-04
 0.84580009E+02 -0.17690E-04
 0.84630013E+02 -0.43622E-04
 0.84680016E+02 -0.23147E-04
 0.84730011E+02  0.26650E-04
 0.84780014E+02  0.77402E-04
 0.84830009E+02  0.11273E-03
 0.84880013E+02  0.12149E-03
 0.84930016E+02  0.10211E-03
 0.84980011E+02  0.64752E-04
 0.85030014E+02  0.28086E-04
 0.85080009E+02  0.25799E-05
 0.85130013E+02 -0.36906E-05
 0.85180016E+02  0.16145E-04
 0.85230011E+02  0.39923E-04
 0.85280014E+02  0.51620E-04
 0.85330009E+02  0.54062E-04
 0.85380013E+02  0.36313E-04
 0.85430016E+02 -0.93534E-05
 0.85480011E+02 -0.68144E-04
 0.85530014E+02 -0.10387E-03
 0.85580009E+02 -0.10021E-03
 0.85630013E+02 -0.94091E-04
 0.85680016E+02 -0.10180E-03
 0.85730011E+02 -0.96341E-04
 0.85780014E+02 -0.77251E-04
 0.85830009E+02 -0.54887E-04
 0.85880013E+02 -0.28486E-04
 0.85930016E+02 -0.37505E-05
 0.85980011E+02  0.16850E-04
 0.86030014E+02  0.33163E-04
 0.86080009E+02  0.43910E-04
 0.86130013E+02  0.47474E-04
 0.86180016E+02  0.38690E-04
 0.86230011E+02  0.21335E-04
 0.86280014E+02 -0.61949E-05
 0.86330009E+02 -0.53375E-04
 0.86380013E+02 -0.10874E-03
 0.86430016E+02 -0.15512E-03
 0.86480011E+02 -0.18277E-03
 0.86530014E+02 -0.18671E-03
 0.86580009E+02 -0.17574E-03
 0.86630013E+02 -0.15335E-03
 0.86680016E+02 -0.10306E-03
 0.86730011E+02 -0.29449E-04
 0.86780014E+02  0.54981E-04
 0.86830009E+02  0.14610E-03
 0.86880013E+02  0.21973E-03
 0.86930016E+02  0.25876E-03
 0.86980011E+02  0.25060E-03
 0.87030014E+02  0.19224E-03
 0.87080009E+02  0.10861E-03
 0.87130013E+02  0.32238E-04
 0.87180016E+02 -0.70895E-05
 0.87230011E+02 -0.73372E-05
 0.87280014E+02  0.12802E-04
 0.87330009E+02  0.33945E-04
 0.87380013E+02  0.37178E-04
 0.87430016E+02  0.23950E-04
 0.87480011E+02  0.10561E-04
 0.87530014E+02  0.14440E-04
 0.87580009E+02  0.47933E-04
 0.87630013E+02  0.94522E-04
 0.87680016E+02  0.12007E-03
 0.87730011E+02  0.11322E-03
 0.87780014E+02  0.83736E-04
 0.87830009E+02  0.41859E-04
 0.87880013E+02 -0.38118E-05
 0.87930016E+02 -0.45795E-04
 0.87980011E+02 -0.79419E-04
 0.88030014E+02 -0.10665E-03
 0.88080009E+02 -0.12770E-03
 0.88130013E+02 -0.12854E-03
 0.88180016E+02 -0.10088E-03
 0.88230011E+02 -0.60159E-04
 0.88280014E+02 -0.32133E-04
 0.88330009E+02 -0.35361E-04
 0.88380013E+02 -0.66098E-04
 0.88430016E+02 -0.10790E-03
 0.88480011E+02 -0.13687E-03
 0.88530014E+02 -0.13646E-03
 0.88580009E+02 -0.11328E-03
 0.88630013E+02 -0.83918E-04
 0.88680016E+02 -0.69069E-04
 0.88730011E+02 -0.57500E-04
 0.88780014E+02 -0.25839E-04
 0.88830009E+02  0.21743E-04
 0.88880013E+02  0.71748E-04
 0.88930016E+02  0.10816E-03
 0.88980011E+02  0.12176E-03
 0.89030014E+02  0.11119E-03
 0.89080009E+02  0.92546E-04
 0.89130013E+02  0.96700E-04
 0.89180016E+02  0.12635E-03
 0.89230011E+02  0.15454E-03
 0.89280014E+02  0.16259E-03
 0.89330009E+02  0.14675E-03
 0.89380013E+02  0.11348E-03
 0.89430016E+02  0.69888E-04
 0.89480011E+02  0.21653E-04
 0.89530014E+02 -0.19588E-04
 0.89580009E+02 -0.52754E-04
 0.89630013E+02 -0.81476E-04
 0.89680016E+02 -0.10858E-03
 0.89730011E+02 -0.13180E-03
 0.89780014E+02 -0.13976E-03
 0.89830009E+02 -0.13170E-03
 0.89880013E+02 -0.10535E-03
 0.89930016E+02 -0.66744E-04
 0.89980011E+02 -0.46321E-04
 0.90030014E+02 -0.66700E-04
 0.90080009E+02 -0.11854E-03
 0.90130013E+02 -0.16800E-03
 0.90180016E+02 -0.18182E-03
 0.90230011E+02 -0.14962E-03
 0.90280014E+02 -0.83324E-04
 0.90330009E+02 -0.40471E-05
 0.90380013E+02  0.60770E-04
 0.90430016E+02  0.91914E-04
 0.90480011E+02  0.86400E-04
 0.90530014E+02  0.66264E-04
 0.90580009E+02  0.62539E-04
 0.90630013E+02  0.81122E-04
 0.90680016E+02  0.11353E-03
 0.90730011E+02  0.14814E-03
 0.90780014E+02  0.17945E-03
 0.90830009E+02  0.20154E-03
 0.90880013E+02  0.20104E-03
 0.90930016E+02  0.17659E-03
 0.90980011E+02  0.14088E-03
 0.91030014E+02  0.10509E-03
 0.91080009E+02  0.74142E-04
 0.91130013E+02  0.50687E-04
 0.91180016E+02  0.28305E-04
 0.91230011E+02 -0.29964E-05
 0.91280014E+02 -0.51239E-04
 0.91330009E+02 -0.11387E-03
 0.91380013E+02 -0.16698E-03
 0.91430016E+02 -0.19301E-03
 0.91480011E+02 -0.18706E-03
 0.91530014E+02 -0.15220E-03
 0.91580009E+02 -0.10944E-03
 0.91630013E+02 -0.79077E-04
 0.91680016E+02 -0.62182E-04
 0.91730011E+02 -0.48138E-04
 0.91780014E+02 -0.40181E-04
 0.91830009E+02 -0.44340E-04
 0.91880013E+02 -0.51668E-04
 0.91930016E+02 -0.53407E-04
 0.91980011E+02 -0.35943E-04
 0.92030014E+02  0.12680E-04
 0.92080009E+02  0.84707E-04
 0.92130013E+02  0.15697E-03
 0.92180016E+02  0.20738E-03
 0.92230011E+02  0.22424E-03
 0.92280014E+02  0.21131E-03
 0.92330009E+02  0.18478E-03
 0.92380013E+02  0.15608E-03
 0.92430016E+02  0.12663E-03
 0.92480011E+02  0.83639E-04
 0.92530014E+02  0.21929E-04
 0.92580009E+02 -0.45098E-04
 0.92630013E+02 -0.11320E-03
 0.92680016E+02 -0.17590E-03
 0.92730011E+02 -0.21861E-03
 0.92780014E+02 -0.24106E-03
 0.92830009E+02 -0.23986E-03
 0.92880013E+02 -0.20664E-03
 0.92930016E+02 -0.15334E-03
 0.92980011E+02 -0.97295E-04
 0.93030014E+02 -0.45120E-04
 0.93080009E+02  0.41192E-05
 0.93130013E+02  0.44991E-04
 0.93180016E+02  0.74279E-04
 0.93230011E+02  0.10281E-03
 0.93280014E+02  0.12362E-03
 0.93330009E+02  0.11579E-03
 0.93380013E+02  0.78363E-04
 0.93430016E+02  0.37668E-04
 0.93480011E+02  0.64377E-05
 0.93530014E+02 -0.19884E-04
 0.93580009E+02 -0.29670E-04
 0.93630013E+02 -0.21447E-04
 0.93680016E+02 -0.36278E-05
 0.93730011E+02  0.12199E-04
 0.93780014E+02  0.95026E-05
 0.93830009E+02 -0.19024E-04
 0.93880013E+02 -0.63100E-04
 0.93930016E+02 -0.96396E-04
 0.93980011E+02 -0.96964E-04
 0.94030014E+02 -0.61700E-04
 0.94080009E+02 -0.14048E-04
 0.94130013E+02  0.16144E-04
 0.94180016E+02  0.16907E-04
 0.94230011E+02 -0.33895E-06
 0.94280014E+02 -0.14356E-04
 0.94330009E+02 -0.17035E-04
 0.94380013E+02 -0.57489E-05
 0.94430016E+02  0.25685E-04
 0.94480011E+02  0.63199E-04
 0.94530014E+02  0.89939E-04
 0.94580009E+02  0.10722E-03
 0.94630013E+02  0.10510E-03
 0.94680016E+02  0.81557E-04
 0.94730011E+02  0.47865E-04
 0.94780014E+02  0.11445E-04
 0.94830009E+02 -0.22354E-04
 0.94880013E+02 -0.51300E-04
 0.94930016E+02 -0.65162E-04
 0.94980011E+02 -0.65235E-04
 0.95030014E+02 -0.59935E-04
 0.95080009E+02 -0.52270E-04
 0.95130013E+02 -0.43053E-04
 0.95180016E+02 -0.24835E-04
 0.95230011E+02 -0.17931E-05
 0.95280014E+02  0.17626E-04
 0.95330009E+02  0.26040E-04
 0.95380013E+02  0.23925E-04
 0.95430016E+02  0.23368E-04
 0.95480011E+02  0.25777E-04
 0.95530014E+02  0.36763E-04
 0.95580009E+02  0.59659E-04
 0.95630013E+02  0.89836E-04
 0.95680016E+02  0.11999E-03
 0.95730011E+02  0.13028E-03
 0.95780014E+02  0.10594E-03
 0.95830009E+02  0.49799E-04
 0.95880013E+02 -0.93021E-05
 0.95930016E+02 -0.38973E-04
 0.95980011E+02 -0.41908E-04
 0.96030014E+02 -0.36464E-04
 0.96080009E+02 -0.30316E-04
 0.96130013E+02 -0.24179E-04
 0.96180016E+02 -0.12056E-04
 0.96230011E+02  0.98403E-05
 0.96280014E+02  0.25867E-04
 0.96330009E+02  0.12914E-04
 0.96380013E+02 -0.31262E-04
 0.96430016E+02 -0.78038E-04
 0.96480011E+02 -0.90108E-04
 0.96530014E+02 -0.57883E-04
 0.96580009E+02 -0.65661E-05
 0.96630013E+02  0.29979E-04
 0.96680016E+02  0.39807E-04
 0.96730011E+02  0.30595E-04
 0.96780014E+02  0.84256E-05
 0.96830009E+02 -0.18643E-04
 0.96880013E+02 -0.42570E-04
 0.96930016E+02 -0.57409E-04
 0.96980011E+02 -0.61296E-04
 0.97030014E+02 -0.59434E-04
 0.97080009E+02 -0.60094E-04
 0.97130013E+02 -0.68619E-04
 0.97180016E+02 -0.71407E-04
 0.97230011E+02 -0.62277E-04
 0.97280014E+02 -0.48612E-04
 0.97330009E+02 -0.30762E-04
 0.97380013E+02 -0.12672E-04
 0.97430016E+02  0.20235E-05
 0.97480011E+02  0.11606E-04
 0.97530014E+02  0.18921E-04
 0.97580009E+02  0.31673E-04
 0.97630013E+02  0.50573E-04
 0.97680016E+02  0.66125E-04
 0.97730011E+02  0.69709E-04
 0.97780014E+02  0.58464E-04
 0.97830009E+02  0.31211E-04
 0.97880013E+02  0.15692E-05
 0.97930016E+02 -0.11668E-04
 0.97980011E+02  0.32497E-06
 0.98030014E+02  0.34370E-04
 0.98080009E+02  0.71555E-04
 0.98130013E+02  0.84989E-04
 0.98180016E+02  0.66346E-04
 0.98230011E+02  0.39788E-04
 0.98280014E+02  0.25661E-04
 0.98330009E+02  0.31775E-04
 0.98380013E+02  0.50025E-04
 0.98430016E+02  0.51189E-04
 0.98480011E+02  0.27662E-04
 0.98530014E+02 -0.10553E-05
 0.98580009E+02 -0.19530E-04
 0.98630013E+02 -0.27632E-04
 0.98680016E+02 -0.26694E-04
 0.98730011E+02 -0.18251E-04
 0.98780014E+02 -0.17047E-04
 0.98830009E+02 -0.32258E-04
 0.98880013E+02 -0.54888E-04
 0.98930016E+02 -0.76112E-04
 0.98980011E+02 -0.92077E-04
 0.99030014E+02 -0.95225E-04
 0.99080009E+02 -0.82096E-04
 0.99130013E+02 -0.64390E-04
 0.99180016E+02 -0.55162E-04
 0.99230011E+02 -0.63876E-04
 0.99280014E+02 -0.88962E-04
 0.99330009E+02 -0.10381E-03
 0.99380013E+02 -0.86234E-04
 0.99430016E+02 -0.41150E-04
 0.99480011E+02  0.85947E-05
 0.99530014E+02  0.44781E-04
 0.99580009E+02  0.62323E-04
 0.99630013E+02  0.63194E-04
 0.99680016E+02  0.59961E-04
 0.99730011E+02  0.64765E-04
 0.99780014E+02  0.78264E-04
 0.99830009E+02  0.94980E-04
 0.99880013E+02  0.10842E-03
 0.99930016E+02  0.11164E-03
 0.99980011E+02  0.10160E-03
 0.10003001E+03  0.79333E-04
 0.10008001E+03  0.44362E-04
 0.10013001E+03  0.18014E-05
 0.10018002E+03 -0.32510E-04
 0.10023001E+03 -0.47307E-04
 0.10028001E+03 -0.45952E-04
 0.10033001E+03 -0.36480E-04
 0.10038001E+03 -0.26672E-04
 0.10043002E+03 -0.22077E-04
 0.10048001E+03 -0.22711E-04
 0.10053001E+03 -0.25665E-04
 0.10058001E+03 -0.21756E-04
 0.10063001E+03 -0.37550E-05
 0.10068002E+03  0.28995E-04
 0.10073001E+03  0.71689E-04
 0.10078001E+03  0.10904E-03
 0.10083001E+03  0.12830E-03
 0.10088001E+03  0.12342E-03
 0.10093002E+03  0.96778E-04
 0.10098001E+03  0.54551E-04
 0.10103001E+03  0.17525E-05
 0.10108001E+03 -0.48466E-04
 0.10113001E+03 -0.84300E-04
 0.10118002E+03 -0.99385E-04
 0.10123001E+03 -0.96645E-04
 0.10128001E+03 -0.82926E-04
 0.10133001E+03 -0.61742E-04
 0.10138001E+03 -0.39871E-04
 0.10143002E+03 -0.17829E-04
 0.10148001E+03  0.32866E-05
 0.10153001E+03  0.19972E-04
 0.10158001E+03  0.31971E-04
 0.10163001E+03  0.34888E-04
 0.10168002E+03  0.16103E-04
 0.10173001E+03 -0.28677E-04
 0.10178001E+03 -0.76878E-04
 0.10183001E+03 -0.11112E-03
 0.10188001E+03 -0.13253E-03
 0.10193002E+03 -0.14283E-03
 0.10198001E+03 -0.13967E-03
 0.10203001E+03 -0.11838E-03
 0.10208001E+03 -0.83632E-04
 0.10213001E+03 -0.47413E-04
 0.10218002E+03 -0.15957E-04
 0.10223001E+03  0.13693E-04
 0.10228001E+03  0.42457E-04
 0.10233001E+03  0.66951E-04
 0.10238001E+03  0.86816E-04
 0.10243002E+03  0.99235E-04
 0.10248001E+03  0.98558E-04
 0.10253001E+03  0.81705E-04
 0.10258001E+03  0.51396E-04
 0.10263001E+03  0.19530E-04
 0.10268002E+03 -0.18408E-05
 0.10273001E+03 -0.52693E-05
 0.10278001E+03  0.86515E-05
 0.10283001E+03  0.28885E-04
 0.10288001E+03  0.50045E-04
 0.10293002E+03  0.71739E-04
 0.10298001E+03  0.88206E-04
 0.10303001E+03  0.88164E-04
 0.10308001E+03  0.65070E-04
 0.10313001E+03  0.26796E-04
 0.10318002E+03 -0.13420E-04
 0.10323001E+03 -0.43784E-04
 0.10328001E+03 -0.60274E-04
 0.10333001E+03 -0.69707E-04
 0.10338001E+03 -0.74977E-04
 0.10343002E+03 -0.71510E-04
 0.10348001E+03 -0.57875E-04
 0.10353001E+03 -0.36162E-04
 0.10358001E+03 -0.94570E-05
 0.10363001E+03  0.19145E-04
 0.10368002E+03  0.45222E-04
 0.10373001E+03  0.64232E-04
 0.10378001E+03  0.76226E-04
 0.10383001E+03  0.81450E-04
 0.10388001E+03  0.76636E-04
 0.10393002E+03  0.59191E-04
 0.10398001E+03  0.32077E-04
 0.10403001E+03  0.20651E-05
 0.10408001E+03 -0.26621E-04
 0.10413001E+03 -0.50935E-04
 0.10418002E+03 -0.65371E-04
 0.10423001E+03 -0.65434E-04
 0.10428001E+03 -0.55126E-04
 0.10433001E+03 -0.40289E-04
 0.10438001E+03 -0.19948E-04
 0.10443002E+03  0.50689E-05
 0.10448001E+03  0.35942E-04
 0.10453001E+03  0.69834E-04
 0.10458001E+03  0.97271E-04
 0.10463001E+03  0.11445E-03
 0.10468002E+03  0.10895E-03
 0.10473001E+03  0.71529E-04
 0.10478001E+03  0.17569E-04
 0.10483001E+03 -0.34350E-04
 0.10488001E+03 -0.75978E-04
 0.10493002E+03 -0.10016E-03
 0.10498001E+03 -0.10520E-03
 0.10503001E+03 -0.10110E-03
 0.10508001E+03 -0.96034E-04
 0.10513001E+03 -0.88714E-04
 0.10518002E+03 -0.80971E-04
 0.10523001E+03 -0.76115E-04
 0.10528001E+03 -0.65947E-04
 0.10533001E+03 -0.43356E-04
 0.10538001E+03 -0.10345E-04
 0.10543002E+03  0.29505E-04
 0.10548001E+03  0.69266E-04
 0.10553001E+03  0.97561E-04
 0.10558001E+03  0.10870E-03
 0.10563001E+03  0.10419E-03
 0.10568002E+03  0.83665E-04
 0.10573001E+03  0.49843E-04
 0.10578001E+03  0.14904E-04
 0.10583001E+03 -0.11217E-04
 0.10588001E+03 -0.29425E-04
 0.10593002E+03 -0.38574E-04
 0.10598001E+03 -0.35155E-04
 0.10603001E+03 -0.26827E-04
 0.10608001E+03 -0.25934E-04
 0.10613001E+03 -0.31659E-04
 0.10618002E+03 -0.33472E-04
 0.10623001E+03 -0.26655E-04
 0.10628001E+03 -0.11144E-04
 0.10633001E+03  0.89830E-05
 0.10638001E+03  0.27589E-04
 0.10643002E+03  0.42809E-04
 0.10648001E+03  0.53010E-04
 0.10653001E+03  0.52003E-04
 0.10658001E+03  0.36601E-04
 0.10663001E+03  0.11779E-04
 0.10668002E+03 -0.15206E-04
 0.10673001E+03 -0.34008E-04
 0.10678001E+03 -0.33356E-04
 0.10683001E+03 -0.12815E-04
 0.10688001E+03  0.16409E-04
 0.10693002E+03  0.44626E-04
 0.10698001E+03  0.67478E-04
 0.10703001E+03  0.82397E-04
 0.10708001E+03  0.86661E-04
 0.10713001E+03  0.79578E-04
 0.10718002E+03  0.66430E-04
 0.10723001E+03  0.51170E-04
 0.10728001E+03  0.34740E-04
 0.10733001E+03  0.18105E-04
 0.10738001E+03 -0.16987E-05
 0.10743002E+03 -0.31035E-04
 0.10748001E+03 -0.69206E-04
 0.10753001E+03 -0.10528E-03
 0.10758001E+03 -0.13050E-03
 0.10763001E+03 -0.14179E-03
 0.10768002E+03 -0.13908E-03
 0.10773001E+03 -0.12851E-03
 0.10778001E+03 -0.11774E-03
 0.10783001E+03 -0.10541E-03
 0.10788001E+03 -0.86959E-04
 0.10793002E+03 -0.63099E-04
 0.10798001E+03 -0.35411E-04
 0.10803001E+03 -0.87334E-05
 0.10808001E+03  0.12717E-04
 0.10813001E+03  0.31016E-04
 0.10818002E+03  0.44751E-04
 0.10823001E+03  0.47406E-04
 0.10828001E+03  0.39015E-04
 0.10833001E+03  0.27074E-04
 0.10838001E+03  0.19878E-04
 0.10843002E+03  0.27046E-04
 0.10848001E+03  0.48234E-04
 0.10853001E+03  0.68356E-04
 0.10858001E+03  0.72985E-04
 0.10863001E+03  0.60779E-04
 0.10868002E+03  0.44843E-04
 0.10873001E+03  0.36002E-04
 0.10878001E+03  0.32758E-04
 0.10883001E+03  0.29987E-04
 0.10888001E+03  0.22905E-04
 0.10893002E+03  0.83335E-05
 0.10898001E+03 -0.12366E-04
 0.10903001E+03 -0.32842E-04
 0.10908001E+03 -0.47234E-04
 0.10913001E+03 -0.57014E-04
 0.10918002E+03 -0.63535E-04
 0.10923001E+03 -0.60601E-04
 0.10928001E+03 -0.40018E-04
 0.10933001E+03 -0.38996E-05
 0.10938001E+03  0.32461E-04
 0.10943002E+03  0.58029E-04
 0.10948001E+03  0.73085E-04
 0.10953001E+03  0.79821E-04
 0.10958001E+03  0.75339E-04
 0.10963001E+03  0.55241E-04
 0.10968002E+03  0.24215E-04
 0.10973001E+03 -0.58172E-05
 0.10978001E+03 -0.21934E-04
 0.10983001E+03 -0.17813E-04
 0.10988001E+03 -0.13732E-06
 0.10993002E+03  0.21276E-04
 0.10998001E+03  0.38809E-04
 0.11003001E+03  0.47991E-04
 0.11008001E+03  0.48461E-04
 0.11013001E+03  0.40178E-04
 0.11018002E+03  0.29850E-04
 0.11023001E+03  0.22933E-04
 0.11028001E+03  0.14423E-04
 0.11033001E+03 -0.23294E-05
 0.11038001E+03 -0.31293E-04
 0.11043002E+03 -0.68821E-04
 0.11048001E+03 -0.10396E-03
 0.11053001E+03 -0.11928E-03
 0.11058001E+03 -0.10694E-03
 0.11063001E+03 -0.83247E-04
 0.11068002E+03 -0.62533E-04
 0.11073001E+03 -0.44022E-04
 0.11078001E+03 -0.24639E-04
 0.11083001E+03 -0.17079E-05
 0.11088001E+03  0.24873E-04
 0.11093002E+03  0.47327E-04
 0.11098001E+03  0.58018E-04
 0.11103001E+03  0.58402E-04
 0.11108001E+03  0.52758E-04
 0.11113001E+03  0.40766E-04
 0.11118002E+03  0.21106E-04
 0.11123001E+03 -0.38702E-06
 0.11128001E+03 -0.12998E-04
 0.11133001E+03 -0.12370E-04
 0.11138001E+03 -0.49507E-05
 0.11143002E+03 -0.29820E-05
 0.11148001E+03 -0.14202E-04
 0.11153001E+03 -0.33181E-04
 0.11158001E+03 -0.47856E-04
 0.11163001E+03 -0.47739E-04
 0.11168002E+03 -0.29297E-04
 0.11173001E+03 -0.67868E-06
 0.11178001E+03  0.25221E-04
 0.11183001E+03  0.39356E-04
 0.11188001E+03  0.42068E-04
 0.11193002E+03  0.34422E-04
 0.11198001E+03  0.18773E-04
 0.11203001E+03  0.33898E-05
 0.11208001E+03 -0.86202E-05
 0.11213001E+03 -0.14247E-04
 0.11218002E+03 -0.94342E-05
 0.11223001E+03  0.63782E-05
 0.11228001E+03  0.28524E-04
 0.11233001E+03  0.47390E-04
 0.11238001E+03  0.56092E-04
 0.11243002E+03  0.50212E-04
 0.11248001E+03  0.27199E-04
 0.11253001E+03 -0.81342E-05
 0.11258001E+03 -0.42814E-04
 0.11263001E+03 -0.65255E-04
 0.11268002E+03 -0.69750E-04
 0.11273001E+03 -0.57176E-04
 0.11278001E+03 -0.36197E-04
 0.11283001E+03 -0.14537E-04
 0.11288001E+03  0.49913E-05
 0.11293002E+03  0.21584E-04
 0.11298001E+03  0.38588E-04
 0.11303001E+03  0.58859E-04
 0.11308001E+03  0.77562E-04
 0.11313001E+03  0.88293E-04
 0.11318002E+03  0.88688E-04
 0.11323001E+03  0.75703E-04
 0.11328001E+03  0.47095E-04
 0.11333001E+03  0.10945E-04
 0.11338001E+03 -0.19664E-04
 0.11343002E+03 -0.38494E-04
 0.11348001E+03 -0.48590E-04
 0.11353001E+03 -0.55123E-04
 0.11358001E+03 -0.57932E-04
 0.11363001E+03 -0.57155E-04
 0.11368002E+03 -0.54563E-04
 0.11373001E+03 -0.51474E-04
 0.11378001E+03 -0.50327E-04
 0.11383001E+03 -0.50960E-04
 0.11388001E+03 -0.48203E-04
 0.11393002E+03 -0.37678E-04
 0.11398001E+03 -0.23014E-04
 0.11403001E+03 -0.13280E-04
 0.11408001E+03 -0.12824E-04
 0.11413001E+03 -0.18161E-04
 0.11418002E+03 -0.25288E-04
 0.11423001E+03 -0.28951E-04
 0.11428001E+03 -0.23403E-04
 0.11433001E+03 -0.11052E-04
 0.11438001E+03  0.10346E-05
 0.11443002E+03  0.99025E-05
 0.11448001E+03  0.16676E-04
 0.11453001E+03  0.20354E-04
 0.11458001E+03  0.20762E-04
 0.11463001E+03  0.21332E-04
 0.11468002E+03  0.23305E-04
 0.11473001E+03  0.26837E-04
 0.11478001E+03  0.33725E-04
 0.11483001E+03  0.45976E-04
 0.11488001E+03  0.61473E-04
 0.11493002E+03  0.75256E-04
 0.11498001E+03  0.82805E-04
 0.11503001E+03  0.79234E-04
 0.11508001E+03  0.65029E-04
 0.11513001E+03  0.44916E-04
 0.11518002E+03  0.20921E-04
 0.11523001E+03 -0.77100E-05
 0.11528001E+03 -0.40382E-04
 0.11533001E+03 -0.70760E-04
 0.11538001E+03 -0.89264E-04
 0.11543002E+03 -0.89685E-04
 0.11548001E+03 -0.73738E-04
 0.11553001E+03 -0.46805E-04
 0.11558001E+03 -0.14493E-04
 0.11563001E+03  0.14887E-04
 0.11568002E+03  0.33527E-04
 0.11573001E+03  0.36131E-04
 0.11578001E+03  0.22087E-04
 0.11583001E+03 -0.91992E-06
 0.11588001E+03 -0.20390E-04
 0.11593002E+03 -0.28519E-04
 0.11598001E+03 -0.26417E-04
 0.11603001E+03 -0.15591E-04
 0.11608001E+03  0.39379E-05
 0.11613001E+03  0.25197E-04
 0.11618002E+03  0.37015E-04
 0.11623001E+03  0.35550E-04
 0.11628001E+03  0.28125E-04
 0.11633001E+03  0.26345E-04
 0.11638001E+03  0.33896E-04
 0.11643002E+03  0.43780E-04
 0.11648001E+03  0.43189E-04
 0.11653001E+03  0.23214E-04
 0.11658001E+03 -0.90004E-05
 0.11663001E+03 -0.38270E-04
 0.11668002E+03 -0.55495E-04
 0.11673001E+03 -0.62090E-04
 0.11678001E+03 -0.64562E-04
 0.11683001E+03 -0.64256E-04
 0.11688001E+03 -0.56361E-04
 0.11693002E+03 -0.38084E-04
 0.11698001E+03 -0.14314E-04
 0.11703001E+03  0.69312E-05
 0.11708001E+03  0.19687E-04
 0.11713001E+03  0.26216E-04
 0.11718002E+03  0.34888E-04
 0.11723001E+03  0.49058E-04
 0.11728001E+03  0.63871E-04
 0.11733001E+03  0.72669E-04
 0.11738001E+03  0.72198E-04
 0.11743002E+03  0.62749E-04
 0.11748001E+03  0.49784E-04
 0.11753001E+03  0.37024E-04
 0.11758001E+03  0.25073E-04
 0.11763001E+03  0.14228E-04
 0.11768002E+03 -0.14004E-06
 0.11773001E+03 -0.20251E-04
 0.11778001E+03 -0.42581E-04
 0.11783001E+03 -0.61357E-04
 0.11788001E+03 -0.69727E-04
 0.11793002E+03 -0.64034E-04
 0.11798001E+03 -0.46941E-04
 0.11803001E+03 -0.27374E-04
 0.11808001E+03 -0.11266E-04
 0.11813001E+03  0.76632E-06
 0.11818002E+03  0.69656E-05
 0.11823001E+03  0.57521E-05
 0.11828001E+03 -0.20916E-05
 0.11833001E+03 -0.11221E-04
 0.11838001E+03 -0.15105E-04
 0.11843002E+03 -0.13440E-04
 0.11848001E+03 -0.10850E-04
 0.11853001E+03 -0.12442E-04
 0.11858001E+03 -0.19214E-04
 0.11863001E+03 -0.26769E-04
 0.11868002E+03 -0.30799E-04
 0.11873001E+03 -0.29777E-04
 0.11878001E+03 -0.21995E-04
 0.11883001E+03 -0.63490E-05
 0.11888001E+03  0.13807E-04
 0.11893002E+03  0.30570E-04
 0.11898001E+03  0.36270E-04
 0.11903001E+03  0.30091E-04
 0.11908001E+03  0.15916E-04
 0.11913001E+03 -0.10765E-05
 0.11918002E+03 -0.13855E-04
 0.11923001E+03 -0.20500E-04
 0.11928001E+03 -0.25867E-04
 0.11933001E+03 -0.33063E-04
 0.11938001E+03 -0.40166E-04
 0.11943002E+03 -0.42764E-04
 0.11948001E+03 -0.37331E-04
 0.11953001E+03 -0.23179E-04
 0.11958001E+03 -0.23964E-05
 0.11963001E+03  0.23613E-04
 0.11968002E+03  0.52763E-04
 0.11973001E+03  0.77743E-04
 0.11978001E+03  0.91047E-04
 0.11983001E+03  0.88484E-04
 0.11988001E+03  0.69759E-04
 0.11993002E+03  0.41530E-04
 0.11998001E+03  0.13785E-04
 0.12003001E+03 -0.45663E-05
 0.12008001E+03 -0.90880E-05
 0.12013001E+03 -0.59199E-05
 0.12018002E+03 -0.59621E-05
 0.12023001E+03 -0.14941E-04
 0.12028001E+03 -0.31026E-04
 0.12033001E+03 -0.45871E-04
 0.12038001E+03 -0.50990E-04
 0.12043002E+03 -0.43914E-04
 0.12048001E+03 -0.29197E-04
 0.12053001E+03 -0.12259E-04
 0.12058001E+03  0.41755E-05
 0.12063001E+03  0.17326E-04
 0.12068002E+03  0.27650E-04
 0.12073001E+03  0.38152E-04
 0.12078001E+03  0.46847E-04
 0.12083001E+03  0.48691E-04
 0.12088001E+03  0.41499E-04
 0.12093002E+03  0.26727E-04
 0.12098001E+03  0.72048E-05
 0.12103001E+03 -0.13909E-04
 0.12108001E+03 -0.31651E-04
 0.12113001E+03 -0.40569E-04
 0.12118002E+03 -0.37322E-04
 0.12123001E+03 -0.21949E-04
 0.12128001E+03  0.15700E-05
 0.12133001E+03  0.25641E-04
 0.12138001E+03  0.42310E-04
 0.12143002E+03  0.48839E-04
 0.12148001E+03  0.44938E-04
 0.12153001E+03  0.28104E-04
 0.12158001E+03 -0.15524E-05
 0.12163001E+03 -0.36499E-04
 0.12168002E+03 -0.65171E-04
 0.12173001E+03 -0.80479E-04
 0.12178001E+03 -0.80134E-04
 0.12183001E+03 -0.64632E-04
 0.12188001E+03 -0.40280E-04
 0.12193002E+03 -0.15501E-04
 0.12198001E+03  0.29749E-05
 0.12203001E+03  0.10097E-04
 0.12208001E+03  0.73182E-05
 0.12213001E+03  0.33218E-05
 0.12218002E+03  0.49470E-05
 0.12223001E+03  0.13058E-04
 0.12228001E+03  0.25701E-04
 0.12233001E+03  0.39008E-04
 0.12238001E+03  0.45818E-04
 0.12243002E+03  0.42265E-04
 0.12248001E+03  0.31449E-04
 0.12253001E+03  0.19225E-04
 0.12258001E+03  0.12462E-04
 0.12263001E+03  0.11828E-04
 0.12268002E+03  0.12668E-04
 0.12273001E+03  0.10004E-04
 0.12278001E+03  0.28391E-05
 0.12283001E+03 -0.48928E-05
 0.12288001E+03 -0.11591E-04
 0.12293002E+03 -0.17438E-04
 0.12298001E+03 -0.24489E-04
 0.12303001E+03 -0.34235E-04
 0.12308001E+03 -0.45666E-04
 0.12313001E+03 -0.54471E-04
 0.12318002E+03 -0.55421E-04
 0.12323001E+03 -0.47253E-04
 0.12328001E+03 -0.31092E-04
 0.12333001E+03 -0.11321E-04
 0.12338001E+03  0.86596E-05
 0.12343002E+03  0.27327E-04
 0.12348001E+03  0.41503E-04
 0.12353001E+03  0.45990E-04
 0.12358001E+03  0.36074E-04
 0.12363001E+03  0.14507E-04
 0.12368002E+03 -0.94827E-05
 0.12373001E+03 -0.24645E-04
 0.12378001E+03 -0.22042E-04
 0.12383001E+03 -0.31491E-05
 0.12388001E+03  0.21713E-04
 0.12393002E+03  0.44109E-04
 0.12398001E+03  0.62220E-04
 0.12403001E+03  0.75675E-04
 0.12408001E+03  0.81105E-04
 0.12413001E+03  0.75241E-04
 0.12418002E+03  0.56913E-04
 0.12423001E+03  0.29330E-04
 0.12428001E+03  0.12725E-05
 0.12433001E+03 -0.18485E-04
 0.12438001E+03 -0.27115E-04
 0.12443002E+03 -0.28399E-04
 0.12448001E+03 -0.26339E-04
 0.12453001E+03 -0.22689E-04
 0.12458001E+03 -0.19141E-04
 0.12463001E+03 -0.15999E-04
 0.12468002E+03 -0.13617E-04
 0.12473001E+03 -0.12466E-04
 0.12478001E+03 -0.12938E-04
 0.12483001E+03 -0.16135E-04
 0.12488001E+03 -0.19987E-04
 0.12493002E+03 -0.22343E-04
 0.12498001E+03 -0.23259E-04
 0.12503001E+03 -0.21665E-04
 0.12508001E+03 -0.18680E-04
 0.12513001E+03 -0.18739E-04
 0.12518002E+03 -0.24993E-04
 0.12523001E+03 -0.36030E-04
 0.12528001E+03 -0.46753E-04
 0.12533001E+03 -0.52124E-04
 0.12538001E+03 -0.48281E-04
 0.12543002E+03 -0.34814E-04
 0.12548001E+03 -0.16575E-04
 0.12553001E+03  0.69692E-08
 0.12558001E+03  0.11723E-04
 0.12563001E+03  0.21279E-04
 0.12568002E+03  0.33109E-04
 0.12573001E+03  0.47568E-04
 0.12578001E+03  0.58385E-04
 0.12583001E+03  0.58433E-04
 0.12588001E+03  0.48648E-04
 0.12593002E+03  0.36672E-04
 0.12598001E+03  0.29963E-04
 0.12603001E+03  0.30038E-04
 0.12608001E+03  0.34484E-04
 0.12613001E+03  0.38615E-04
 0.12618002E+03  0.37567E-04
 0.12623001E+03  0.32201E-04
 0.12628001E+03  0.23599E-04
 0.12633001E+03  0.83568E-05
 0.12638001E+03 -0.13847E-04
 0.12643002E+03 -0.35801E-04
 0.12648001E+03 -0.49291E-04
 0.12653001E+03 -0.51291E-04
 0.12658001E+03 -0.43566E-04
 0.12663001E+03 -0.31618E-04
 0.12668002E+03 -0.21962E-04
 0.12673001E+03 -0.17374E-04
 0.12678001E+03 -0.16159E-04
 0.12683001E+03 -0.17120E-04
 0.12688001E+03 -0.20348E-04
 0.12693002E+03 -0.22884E-04
 0.12698001E+03 -0.22127E-04
 0.12703001E+03 -0.18027E-04
 0.12708001E+03 -0.10511E-04
 0.12713001E+03 -0.17402E-05
 0.12718002E+03  0.25304E-05
 0.12723001E+03 -0.14711E-06
 0.12728001E+03 -0.37942E-05
 0.12733001E+03 -0.23662E-05
 0.12738001E+03  0.45141E-05
 0.12743002E+03  0.13622E-04
 0.12748001E+03  0.19832E-04
 0.12753001E+03  0.19384E-04
 0.12758001E+03  0.13319E-04
 0.12763001E+03  0.50646E-05
 0.12768002E+03 -0.32530E-05
 0.12773001E+03 -0.93649E-05
 0.12778001E+03 -0.12595E-04
 0.12783001E+03 -0.12625E-04
 0.12788001E+03 -0.80047E-05
 0.12793002E+03  0.11676E-05
 0.12798001E+03  0.14090E-04
 0.12803001E+03  0.27436E-04
 0.12808002E+03  0.36230E-04
 0.12813002E+03  0.37145E-04
 0.12818001E+03  0.32200E-04
 0.12823001E+03  0.28960E-04
 0.12828001E+03  0.30986E-04
 0.12833002E+03  0.33095E-04
 0.12838002E+03  0.26966E-04
 0.12843001E+03  0.10782E-04
 0.12848001E+03 -0.96341E-05
 0.12853001E+03 -0.27402E-04
 0.12858002E+03 -0.38628E-04
 0.12863002E+03 -0.43237E-04
 0.12868001E+03 -0.41670E-04
 0.12873001E+03 -0.36449E-04
 0.12878001E+03 -0.32078E-04
 0.12883002E+03 -0.29173E-04
 0.12888002E+03 -0.26261E-04
 0.12893001E+03 -0.21322E-04
 0.12898001E+03 -0.13610E-04
 0.12903001E+03 -0.47997E-05
 0.12908002E+03  0.31249E-05
 0.12913002E+03  0.80724E-05
 0.12918001E+03  0.10444E-04
 0.12923001E+03  0.11705E-04
 0.12928001E+03  0.12573E-04
 0.12933002E+03  0.11482E-04
 0.12938002E+03  0.48683E-05
 0.12943001E+03 -0.79831E-05
 0.12948001E+03 -0.22635E-04
 0.12953001E+03 -0.30573E-04
 0.12958002E+03 -0.26035E-04
 0.12963002E+03 -0.10391E-04
 0.12968001E+03  0.94361E-05
 0.12973001E+03  0.25053E-04
 0.12978001E+03  0.31745E-04
 0.12983002E+03  0.31238E-04
 0.12988002E+03  0.29008E-04
 0.12993001E+03  0.28571E-04
 0.12998001E+03  0.27588E-04
 0.13003001E+03  0.22668E-04
 0.13008002E+03  0.16386E-04
 0.13013002E+03  0.13058E-04
 0.13018001E+03  0.14213E-04
 0.13023001E+03  0.17323E-04
 0.13028001E+03  0.17354E-04
 0.13033002E+03  0.12212E-04
 0.13038002E+03  0.48882E-05
 0.13043001E+03 -0.19835E-06
 0.13048001E+03 -0.21371E-05
 0.13053001E+03 -0.26641E-05
 0.13058002E+03 -0.39942E-05
 0.13063002E+03 -0.79632E-05
 0.13068001E+03 -0.16276E-04
 0.13073001E+03 -0.31419E-04
 0.13078001E+03 -0.51651E-04
 0.13083002E+03 -0.69399E-04
 0.13088002E+03 -0.77338E-04
 0.13093001E+03 -0.72559E-04
 0.13098001E+03 -0.58732E-04
 0.13103001E+03 -0.42877E-04
 0.13108002E+03 -0.29125E-04
 0.13113002E+03 -0.16703E-04
 0.13118001E+03 -0.19831E-05
 0.13123001E+03  0.17953E-04
 0.13128001E+03  0.40919E-04
 0.13133002E+03  0.60739E-04
 0.13138002E+03  0.72620E-04
 0.13143001E+03  0.73236E-04
 0.13148001E+03  0.61681E-04
 0.13153001E+03  0.41145E-04
 0.13158002E+03  0.20121E-04
 0.13163002E+03  0.74421E-05
 0.13168001E+03  0.37266E-05
 0.13173001E+03  0.39683E-05
 0.13178001E+03  0.20600E-05
 0.13183002E+03 -0.56909E-05
 0.13188002E+03 -0.18083E-04
 0.13193001E+03 -0.29819E-04
 0.13198001E+03 -0.34149E-04
 0.13203001E+03 -0.30235E-04
 0.13208002E+03 -0.22119E-04
 0.13213002E+03 -0.13333E-04
 0.13218001E+03 -0.68406E-05
 0.13223001E+03 -0.33655E-05
 0.13228001E+03 -0.22111E-05
 0.13233002E+03 -0.51985E-06
 0.13238002E+03  0.67593E-05
 0.13243001E+03  0.20638E-04
 0.13248001E+03  0.35962E-04
 0.13253001E+03  0.47720E-04
 0.13258002E+03  0.52957E-04
 0.13263002E+03  0.48401E-04
 0.13268001E+03  0.33890E-04
 0.13273001E+03  0.12335E-04
 0.13278001E+03 -0.11295E-04
 0.13283002E+03 -0.31099E-04
 0.13288002E+03 -0.41960E-04
 0.13293001E+03 -0.41577E-04
 0.13298001E+03 -0.32947E-04
 0.13303001E+03 -0.20865E-04
 0.13308002E+03 -0.11143E-04
 0.13313002E+03 -0.85487E-05
 0.13318001E+03 -0.10266E-04
 0.13323001E+03 -0.73555E-05
 0.13328001E+03  0.50870E-05
 0.13333002E+03  0.25003E-04
 0.13338002E+03  0.46621E-04
 0.13343001E+03  0.62431E-04
 0.13348001E+03  0.69308E-04
 0.13353001E+03  0.68235E-04
 0.13358002E+03  0.59997E-04
 0.13363002E+03  0.45810E-04
 0.13368001E+03  0.27455E-04
 0.13373001E+03  0.67014E-05
 0.13378001E+03 -0.13709E-04
 0.13383002E+03 -0.29792E-04
 0.13388002E+03 -0.39114E-04
 0.13393001E+03 -0.42193E-04
 0.13398001E+03 -0.41262E-04
 0.13403001E+03 -0.39731E-04
 0.13408002E+03 -0.40193E-04
 0.13413002E+03 -0.43443E-04
 0.13418001E+03 -0.48397E-04
 0.13423001E+03 -0.50877E-04
 0.13428001E+03 -0.48084E-04
 0.13433002E+03 -0.41310E-04
 0.13438002E+03 -0.33040E-04
 0.13443001E+03 -0.25494E-04
 0.13448001E+03 -0.19583E-04
 0.13453001E+03 -0.13721E-04
 0.13458002E+03 -0.49592E-05
 0.13463002E+03  0.73280E-05
 0.13468001E+03  0.19553E-04
 0.13473001E+03  0.26301E-04
 0.13478001E+03  0.25325E-04
 0.13483002E+03  0.18938E-04
 0.13488002E+03  0.11826E-04
 0.13493001E+03  0.80402E-05
 0.13498001E+03  0.90285E-05
 0.13503001E+03  0.13664E-04
 0.13508002E+03  0.19360E-04
 0.13513002E+03  0.24663E-04
 0.13518001E+03  0.27830E-04
 0.13523001E+03  0.26842E-04
 0.13528001E+03  0.22066E-04
 0.13533002E+03  0.16327E-04
 0.13538002E+03  0.13272E-04
 0.13543001E+03  0.12498E-04
 0.13548001E+03  0.11049E-04
 0.13553001E+03  0.69249E-05
 0.13558002E+03 -0.69654E-07
 0.13563002E+03 -0.59835E-05
 0.13568001E+03 -0.69818E-05
 0.13573001E+03 -0.28785E-05
 0.13578001E+03  0.22890E-05
 0.13583002E+03  0.41003E-05
 0.13588002E+03  0.22806E-05
 0.13593001E+03 -0.32972E-05
 0.13598001E+03 -0.12761E-04
 0.13603001E+03 -0.26613E-04
 0.13608002E+03 -0.44326E-04
 0.13613002E+03 -0.61167E-04
 0.13618001E+03 -0.71286E-04
 0.13623001E+03 -0.69907E-04
 0.13628001E+03 -0.56397E-04
 0.13633002E+03 -0.34976E-04
 0.13638002E+03 -0.12737E-04
 0.13643001E+03  0.41984E-05
 0.13648001E+03  0.14249E-04
 0.13653001E+03  0.19069E-04
 0.13658002E+03  0.20519E-04
 0.13663002E+03  0.18798E-04
 0.13668001E+03  0.15173E-04
 0.13673001E+03  0.12018E-04
 0.13678001E+03  0.11023E-04
 0.13683002E+03  0.14008E-04
 0.13688002E+03  0.21833E-04
 0.13693001E+03  0.34227E-04
 0.13698001E+03  0.49587E-04
 0.13703001E+03  0.64613E-04
 0.13708002E+03  0.76404E-04
 0.13713002E+03  0.82910E-04
 0.13718001E+03  0.82178E-04
 0.13723001E+03  0.72549E-04
 0.13728001E+03  0.54162E-04
 0.13733002E+03  0.31073E-04
 0.13738002E+03  0.89644E-05
 0.13743001E+03 -0.80577E-05
 0.13748001E+03 -0.18964E-04
 0.13753001E+03 -0.26755E-04
 0.13758002E+03 -0.36156E-04
 0.13763002E+03 -0.48963E-04
 0.13768001E+03 -0.62313E-04
 0.13773001E+03 -0.71721E-04
 0.13778001E+03 -0.73567E-04
 0.13783002E+03 -0.66236E-04
 0.13788002E+03 -0.51353E-04
 0.13793001E+03 -0.33215E-04
 0.13798001E+03 -0.15011E-04
 0.13803001E+03  0.25691E-05
 0.13808002E+03  0.19513E-04
 0.13813002E+03  0.35343E-04
 0.13818001E+03  0.47784E-04
 0.13823001E+03  0.53518E-04
 0.13828001E+03  0.50629E-04
 0.13833002E+03  0.40075E-04
 0.13838002E+03  0.23181E-04
 0.13843001E+03  0.17181E-05
 0.13848001E+03 -0.19517E-04
 0.13853001E+03 -0.36845E-04
 0.13858002E+03 -0.49411E-04
 0.13863002E+03 -0.56644E-04
 0.13868001E+03 -0.57796E-04
 0.13873001E+03 -0.53061E-04
 0.13878001E+03 -0.44935E-04
 0.13883002E+03 -0.37249E-04
 0.13888002E+03 -0.32716E-04
 0.13893001E+03 -0.30262E-04
 0.13898001E+03 -0.25070E-04
 0.13903001E+03 -0.13905E-04
 0.13908002E+03  0.12605E-05
 0.13913002E+03  0.16398E-04
 0.13918001E+03  0.27389E-04
 0.13923001E+03  0.31260E-04
 0.13928001E+03  0.29675E-04
 0.13933002E+03  0.26960E-04
 0.13938002E+03  0.25572E-04
 0.13943001E+03  0.26466E-04
 0.13948001E+03  0.29769E-04
 0.13953001E+03  0.32674E-04
 0.13958002E+03  0.31578E-04
 0.13963002E+03  0.26315E-04
 0.13968001E+03  0.20299E-04
 0.13973001E+03  0.18107E-04
 0.13978001E+03  0.21505E-04
 0.13983002E+03  0.28146E-04
 0.13988002E+03  0.34210E-04
 0.13993001E+03  0.35388E-04
 0.13998001E+03  0.28964E-04
 0.14003001E+03  0.16204E-04
 0.14008002E+03  0.92886E-06
 0.14013002E+03 -0.11428E-04
 0.14018001E+03 -0.16082E-04
 0.14023001E+03 -0.12344E-04
 0.14028001E+03 -0.42087E-05
 0.14033002E+03  0.22272E-05
 0.14038002E+03  0.21206E-05
 0.14043001E+03 -0.53266E-05
 0.14048001E+03 -0.16792E-04
 0.14053001E+03 -0.26939E-04
 0.14058002E+03 -0.32019E-04
 0.14063002E+03 -0.33823E-04
 0.14068001E+03 -0.35365E-04
 0.14073001E+03 -0.36771E-04
 0.14078001E+03 -0.35502E-04
 0.14083002E+03 -0.29395E-04
 0.14088002E+03 -0.20942E-04
 0.14093001E+03 -0.14032E-04
 0.14098001E+03 -0.97825E-05
 0.14103001E+03 -0.57601E-05
 0.14108002E+03  0.18227E-05
 0.14113002E+03  0.14519E-04
 0.14118001E+03  0.30880E-04
 0.14123001E+03  0.47559E-04
 0.14128001E+03  0.60522E-04
 0.14133002E+03  0.65382E-04
 0.14138002E+03  0.58915E-04
 0.14143001E+03  0.42497E-04
 0.14148001E+03  0.21356E-04
 0.14153001E+03  0.68191E-06
 0.14158002E+03 -0.16931E-04
 0.14163002E+03 -0.30899E-04
 0.14168001E+03 -0.40710E-04
 0.14173001E+03 -0.47357E-04
 0.14178001E+03 -0.52950E-04
 0.14183002E+03 -0.58013E-04
 0.14188002E+03 -0.60323E-04
 0.14193001E+03 -0.57237E-04
 0.14198001E+03 -0.48266E-04
 0.14203001E+03 -0.35302E-04
 0.14208002E+03 -0.21922E-04
 0.14213002E+03 -0.10277E-04
 0.14218001E+03 -0.15792E-05
 0.14223001E+03  0.37495E-05
 0.14228001E+03  0.77454E-05
 0.14233002E+03  0.12955E-04
 0.14238002E+03  0.19827E-04
 0.14243001E+03  0.25324E-04
 0.14248001E+03  0.27022E-04
 0.14253001E+03  0.26106E-04
 0.14258002E+03  0.25963E-04
 0.14263002E+03  0.29618E-04
 0.14268001E+03  0.35653E-04
 0.14273001E+03  0.40340E-04
 0.14278001E+03  0.41042E-04
 0.14283002E+03  0.36759E-04
 0.14288002E+03  0.29049E-04
 0.14293001E+03  0.20565E-04
 0.14298001E+03  0.13152E-04
 0.14303001E+03  0.64319E-05
 0.14308002E+03 -0.10407E-05
 0.14313002E+03 -0.98701E-05
 0.14318001E+03 -0.20090E-04
 0.14323001E+03 -0.30632E-04
 0.14328001E+03 -0.38727E-04
 0.14333002E+03 -0.42265E-04
 0.14338002E+03 -0.40985E-04
 0.14343001E+03 -0.35084E-04
 0.14348001E+03 -0.25982E-04
 0.14353001E+03 -0.15919E-04
 0.14358002E+03 -0.59844E-05
 0.14363002E+03  0.50147E-05
 0.14368001E+03  0.18407E-04
 0.14373001E+03  0.33314E-04
 0.14378001E+03  0.47310E-04
 0.14383002E+03  0.57161E-04
 0.14388002E+03  0.60063E-04
 0.14393001E+03  0.54236E-04
 0.14398001E+03  0.41094E-04
 0.14403001E+03  0.25299E-04
 0.14408002E+03  0.11354E-04
 0.14413002E+03  0.19322E-05
 0.14418001E+03 -0.32718E-05
 0.14423001E+03 -0.81246E-05
 0.14428001E+03 -0.16635E-04
 0.14433002E+03 -0.27943E-04
 0.14438002E+03 -0.37803E-04
 0.14443001E+03 -0.41641E-04
 0.14448001E+03 -0.38465E-04
 0.14453001E+03 -0.33227E-04
 0.14458002E+03 -0.30462E-04
 0.14463002E+03 -0.31015E-04
 0.14468001E+03 -0.33165E-04
 0.14473001E+03 -0.32884E-04
 0.14478001E+03 -0.27502E-04
 0.14483002E+03 -0.18908E-04
 0.14488002E+03 -0.11069E-04
 0.14493001E+03 -0.64598E-05
 0.14498001E+03 -0.49587E-05
 0.14503001E+03 -0.40487E-05
 0.14508002E+03 -0.83868E-06
 0.14513002E+03  0.52804E-05
 0.14518001E+03  0.12107E-04
 0.14523001E+03  0.17635E-04
 0.14528001E+03  0.21955E-04
 0.14533002E+03  0.25950E-04
 0.14538002E+03  0.30220E-04
 0.14543001E+03  0.33934E-04
 0.14548001E+03  0.35675E-04
 0.14553001E+03  0.34071E-04
 0.14558002E+03  0.28166E-04
 0.14563002E+03  0.17756E-04
 0.14568001E+03  0.35463E-05
 0.14573001E+03 -0.11077E-04
 0.14578001E+03 -0.23097E-04
 0.14583002E+03 -0.30678E-04
 0.14588002E+03 -0.32389E-04
 0.14593001E+03 -0.29615E-04
 0.14598001E+03 -0.24232E-04
 0.14603001E+03 -0.17566E-04
 0.14608002E+03 -0.12038E-04
 0.14613002E+03 -0.10033E-04
 0.14618001E+03 -0.11162E-04
 0.14623001E+03 -0.12381E-04
 0.14628001E+03 -0.10483E-04
 0.14633002E+03 -0.33575E-05
 0.14638002E+03  0.87999E-05
 0.14643001E+03  0.22347E-04
 0.14648001E+03  0.32581E-04
 0.14653001E+03  0.37763E-04
 0.14658002E+03  0.37859E-04
 0.14663002E+03  0.33378E-04
 0.14668001E+03  0.27155E-04
 0.14673001E+03  0.22620E-04
 0.14678001E+03  0.21180E-04
 0.14683002E+03  0.21854E-04
 0.14688002E+03  0.21791E-04
 0.14693001E+03  0.18680E-04
 0.14698001E+03  0.12725E-04
 0.14703001E+03  0.56387E-05
 0.14708002E+03 -0.11323E-05
 0.14713002E+03 -0.70786E-05
 0.14718001E+03 -0.11573E-04
 0.14723001E+03 -0.14324E-04
 0.14728001E+03 -0.15615E-04
 0.14733002E+03 -0.15339E-04
 0.14738002E+03 -0.14863E-04
 0.14743001E+03 -0.16758E-04
 0.14748001E+03 -0.21247E-04
 0.14753001E+03 -0.26029E-04
 0.14758002E+03 -0.29493E-04
 0.14763002E+03 -0.32039E-04
 0.14768001E+03 -0.34103E-04
 0.14773001E+03 -0.35134E-04
 0.14778001E+03 -0.33859E-04
 0.14783002E+03 -0.28041E-04
 0.14788002E+03 -0.17583E-04
 0.14793001E+03 -0.62131E-05
 0.14798001E+03  0.17208E-05
 0.14803001E+03  0.47961E-05
 0.14808002E+03  0.59334E-05
 0.14813002E+03  0.92371E-05
 0.14818001E+03  0.16493E-04
 0.14823001E+03  0.25951E-04
 0.14828001E+03  0.33572E-04
 0.14833002E+03  0.35744E-04
 0.14838002E+03  0.31017E-04
 0.14843001E+03  0.19898E-04
 0.14848001E+03  0.40838E-05
 0.14853001E+03 -0.12472E-04
 0.14858002E+03 -0.24185E-04
 0.14863002E+03 -0.27450E-04
 0.14868001E+03 -0.23310E-04
 0.14873001E+03 -0.15575E-04
 0.14878001E+03 -0.79637E-05
 0.14883002E+03 -0.27053E-05
 0.14888002E+03  0.25294E-06
 0.14893001E+03  0.25511E-05
 0.14898001E+03  0.52938E-05
 0.14903001E+03  0.82085E-05
 0.14908002E+03  0.11495E-04
 0.14913002E+03  0.15307E-04
 0.14918001E+03  0.19781E-04
 0.14923001E+03  0.25327E-04
 0.14928001E+03  0.30798E-04
 0.14933002E+03  0.34006E-04
 0.14938002E+03  0.33569E-04
 0.14943001E+03  0.29606E-04
 0.14948001E+03  0.23098E-04
 0.14953001E+03  0.15684E-04
 0.14958002E+03  0.85020E-05
 0.14963002E+03  0.17891E-05
 0.14968001E+03 -0.47278E-05
 0.14973001E+03 -0.11835E-04
 0.14978001E+03 -0.19560E-04
 0.14983002E+03 -0.26583E-04
 0.14988002E+03 -0.30582E-04
 0.14993001E+03 -0.30016E-04
 0.14998001E+03 -0.26119E-04
