-0.20004272E-01 -0.82691E-06
 0.29995728E-01 -0.11803E-05
 0.79995729E-01 -0.11490E-06
 0.12999573E+00  0.92890E-06
 0.17999573E+00  0.90774E-06
 0.22999573E+00  0.86669E-06
 0.27999574E+00  0.13205E-05
 0.32999572E+00  0.48448E-06
 0.37999573E+00 -0.32867E-06
 0.42999575E+00 -0.39200E-06
 0.47999573E+00 -0.44617E-06
 0.52999574E+00  0.78809E-07
 0.57999575E+00 -0.21518E-06
 0.62999576E+00 -0.79630E-06
 0.67999572E+00 -0.21874E-06
 0.72999573E+00  0.38734E-06
 0.77999574E+00  0.58944E-06
 0.82999575E+00  0.95837E-06
 0.87999576E+00 -0.71209E-08
 0.92999572E+00 -0.13650E-05
 0.97999573E+00 -0.68327E-06
 0.10299958E+01  0.45590E-06
 0.10799958E+01  0.91386E-06
 0.11299957E+01  0.61306E-06
 0.11799958E+01  0.27361E-06
 0.12299957E+01  0.52791E-06
 0.12799958E+01 -0.71845E-07
 0.13299958E+01 -0.57672E-06
 0.13799957E+01 -0.25455E-06
 0.14299958E+01 -0.17380E-06
 0.14799957E+01 -0.74397E-06
 0.15299958E+01 -0.15614E-05
 0.15799958E+01 -0.11174E-05
 0.16299957E+01 -0.63402E-06
 0.16799958E+01 -0.42817E-06
 0.17299957E+01  0.71187E-06
 0.17799958E+01  0.89704E-06
 0.18299958E+01  0.20895E-06
 0.18799957E+01 -0.54585E-07
 0.19299958E+01  0.27575E-07
 0.19799957E+01 -0.56664E-06
 0.20299957E+01 -0.15529E-05
 0.20799959E+01 -0.12394E-05
 0.21299958E+01 -0.39489E-06
 0.21799958E+01  0.52839E-07
 0.22299957E+01  0.69497E-06
 0.22799957E+01  0.12348E-05
 0.23299959E+01  0.69516E-06
 0.23799958E+01 -0.76759E-07
 0.24299958E+01 -0.11554E-06
 0.24799957E+01  0.60686E-06
 0.25299957E+01  0.71163E-06
 0.25799959E+01  0.63474E-06
 0.26299958E+01  0.79120E-06
 0.26799958E+01 -0.62047E-06
 0.27299957E+01 -0.13616E-05
 0.27799957E+01 -0.30298E-06
 0.28299959E+01  0.54463E-06
 0.28799958E+01  0.81484E-06
 0.29299958E+01  0.41076E-06
 0.29799957E+01 -0.48104E-06
 0.30299957E+01 -0.41391E-06
 0.30799959E+01  0.20818E-07
 0.31299958E+01  0.23855E-06
 0.31799958E+01  0.89488E-06
 0.32299957E+01  0.12531E-05
 0.32799957E+01  0.91690E-06
 0.33299959E+01  0.35093E-06
 0.33799958E+01 -0.17820E-06
 0.34299958E+01 -0.82340E-06
 0.34799957E+01  0.27127E-08
 0.35299957E+01  0.15008E-05
 0.35799959E+01  0.15033E-05
 0.36299958E+01  0.53096E-06
 0.36799958E+01 -0.68231E-06
 0.37299957E+01 -0.59030E-06
 0.37799957E+01 -0.68202E-06
 0.38299959E+01 -0.12981E-05
 0.38799958E+01 -0.76357E-06
 0.39299958E+01  0.74340E-07
 0.39799957E+01  0.68789E-06
 0.40299959E+01 -0.19427E-06
 0.40799956E+01 -0.90112E-06
 0.41299958E+01 -0.50223E-06
 0.41799960E+01 -0.67412E-06
 0.42299957E+01 -0.89128E-06
 0.42799959E+01 -0.37766E-06
 0.43299956E+01  0.31859E-06
 0.43799958E+01  0.83761E-06
 0.44299960E+01  0.12009E-05
 0.44799957E+01  0.30717E-06
 0.45299959E+01 -0.25003E-06
 0.45799956E+01  0.72143E-07
 0.46299958E+01 -0.37052E-06
 0.46799960E+01 -0.46239E-06
 0.47299957E+01 -0.17279E-06
 0.47799959E+01  0.59617E-06
 0.48299956E+01  0.15908E-05
 0.48799958E+01  0.87581E-07
 0.49299960E+01 -0.21036E-05
 0.49799957E+01 -0.21398E-05
 0.50299959E+01 -0.11532E-06
 0.50799956E+01  0.74583E-06
 0.51299958E+01 -0.82463E-06
 0.51799960E+01 -0.61417E-06
 0.52299957E+01  0.52223E-06
 0.52799959E+01  0.14738E-06
 0.53299956E+01 -0.72364E-06
 0.53799958E+01 -0.11707E-05
 0.54299960E+01 -0.67565E-06
 0.54799957E+01  0.75109E-06
 0.55299959E+01  0.16397E-05
 0.55799956E+01  0.11282E-05
 0.56299958E+01  0.15050E-06
 0.56799960E+01  0.53444E-06
 0.57299957E+01  0.20877E-05
 0.57799959E+01  0.19422E-05
 0.58299956E+01  0.60999E-06
 0.58799958E+01 -0.55776E-06
 0.59299960E+01 -0.95171E-06
 0.59799957E+01 -0.86524E-07
 0.60299959E+01  0.54389E-06
 0.60799956E+01  0.60877E-07
 0.61299958E+01 -0.76213E-06
 0.61799960E+01 -0.79217E-06
 0.62299957E+01 -0.11521E-05
 0.62799959E+01 -0.13920E-05
 0.63299956E+01 -0.28066E-06
 0.63799958E+01  0.25731E-06
 0.64299960E+01  0.20928E-06
 0.64799957E+01 -0.36541E-06
 0.65299959E+01 -0.70583E-06
 0.65799956E+01 -0.65136E-06
 0.66299958E+01 -0.92253E-06
 0.66799960E+01 -0.56264E-06
 0.67299957E+01 -0.90739E-06
 0.67799959E+01 -0.50979E-06
 0.68299956E+01  0.12155E-05
 0.68799958E+01  0.13620E-05
 0.69299960E+01 -0.55701E-07
 0.69799957E+01 -0.84483E-06
 0.70299959E+01 -0.38043E-06
 0.70799956E+01  0.54203E-06
 0.71299958E+01  0.19613E-05
 0.71799960E+01  0.22092E-05
 0.72299957E+01  0.11577E-05
 0.72799959E+01  0.10765E-06
 0.73299956E+01 -0.12193E-06
 0.73799958E+01  0.43754E-06
 0.74299960E+01 -0.12947E-06
 0.74799957E+01 -0.54771E-06
 0.75299959E+01  0.62946E-06
 0.75799956E+01  0.20519E-05
 0.76299958E+01  0.20614E-05
 0.76799960E+01  0.42763E-07
 0.77299957E+01 -0.15492E-05
 0.77799959E+01 -0.10746E-05
 0.78299956E+01 -0.66236E-06
 0.78799958E+01 -0.26384E-06
 0.79299960E+01  0.38812E-06
 0.79799957E+01  0.10647E-06
 0.80299959E+01 -0.32991E-06
 0.80799961E+01 -0.11319E-05
 0.81299963E+01 -0.97361E-06
 0.81799955E+01 -0.22414E-07
 0.82299957E+01 -0.24144E-06
 0.82799959E+01 -0.71177E-06
 0.83299961E+01 -0.82866E-06
 0.83799963E+01 -0.10963E-07
 0.84299955E+01  0.96049E-06
 0.84799957E+01  0.83377E-06
 0.85299959E+01 -0.15811E-06
 0.85799961E+01 -0.16942E-05
 0.86299963E+01 -0.21601E-05
 0.86799955E+01 -0.74880E-06
 0.87299957E+01  0.95487E-06
 0.87799959E+01  0.19872E-05
 0.88299961E+01  0.14462E-05
 0.88799963E+01 -0.72095E-06
 0.89299955E+01 -0.12093E-05
 0.89799957E+01  0.19853E-06
 0.90299959E+01  0.94595E-06
 0.90799961E+01  0.94584E-06
 0.91299963E+01 -0.21578E-08
 0.91799955E+01 -0.39549E-06
 0.92299957E+01  0.22088E-06
 0.92799959E+01  0.18340E-06
 0.93299961E+01 -0.58699E-07
 0.93799963E+01  0.67836E-07
 0.94299955E+01  0.25517E-06
 0.94799957E+01  0.76947E-06
 0.95299959E+01  0.95816E-06
 0.95799961E+01 -0.68189E-06
 0.96299963E+01 -0.14625E-05
 0.96799955E+01 -0.23049E-06
 0.97299957E+01  0.50639E-06
 0.97799959E+01  0.41044E-06
 0.98299961E+01 -0.73198E-07
 0.98799963E+01 -0.74829E-06
 0.99299955E+01 -0.12830E-05
 0.99799957E+01 -0.13299E-05
 0.10029996E+02 -0.12851E-05
 0.10079996E+02 -0.13692E-05
 0.10129996E+02 -0.81832E-06
 0.10179996E+02  0.59425E-06
 0.10229996E+02  0.15087E-05
 0.10279996E+02  0.11092E-05
 0.10329996E+02 -0.87517E-06
 0.10379996E+02 -0.19492E-05
 0.10429996E+02 -0.32723E-06
 0.10479996E+02  0.76241E-06
 0.10529996E+02  0.11919E-05
 0.10579996E+02  0.11579E-05
 0.10629996E+02  0.14717E-05
 0.10679996E+02  0.18102E-05
 0.10729996E+02  0.36399E-07
 0.10779996E+02 -0.63581E-07
 0.10829996E+02  0.99654E-06
 0.10879996E+02  0.97722E-06
 0.10929996E+02  0.98520E-06
 0.10979996E+02  0.63927E-06
 0.11029996E+02  0.25760E-06
 0.11079996E+02 -0.12310E-06
 0.11129996E+02 -0.14167E-06
 0.11179996E+02  0.67504E-07
 0.11229996E+02  0.37964E-06
 0.11279996E+02  0.50348E-06
 0.11329996E+02  0.37979E-06
 0.11379996E+02  0.26038E-06
 0.11429996E+02 -0.93393E-06
 0.11479996E+02 -0.12007E-05
 0.11529996E+02 -0.86941E-06
 0.11579996E+02 -0.29088E-06
 0.11629996E+02  0.85267E-06
 0.11679996E+02 -0.48545E-06
 0.11729996E+02 -0.15698E-05
 0.11779996E+02 -0.11340E-05
 0.11829996E+02 -0.13230E-06
 0.11879996E+02  0.33459E-06
 0.11929996E+02 -0.98723E-06
 0.11979996E+02 -0.14874E-05
 0.12029996E+02 -0.12632E-05
 0.12079996E+02 -0.24212E-06
 0.12129996E+02  0.39433E-06
 0.12179996E+02  0.44112E-06
 0.12229996E+02  0.57245E-06
 0.12279996E+02 -0.62607E-06
 0.12329996E+02 -0.51236E-06
 0.12379996E+02  0.39432E-06
 0.12429996E+02  0.20736E-06
 0.12479996E+02 -0.57867E-06
 0.12529996E+02 -0.92907E-06
 0.12579996E+02  0.43987E-06
 0.12629996E+02  0.14137E-05
 0.12679996E+02  0.94706E-06
 0.12729996E+02 -0.38236E-06
 0.12779996E+02 -0.10057E-05
 0.12829996E+02  0.13969E-06
 0.12879996E+02  0.77536E-06
 0.12929996E+02  0.60047E-06
 0.12979996E+02  0.11266E-05
 0.13029996E+02  0.12013E-05
 0.13079996E+02 -0.38106E-06
 0.13129996E+02 -0.13047E-05
 0.13179996E+02 -0.49731E-06
 0.13229996E+02  0.40135E-06
 0.13279996E+02  0.11819E-05
 0.13329996E+02  0.14703E-05
 0.13379996E+02  0.46478E-07
 0.13429996E+02 -0.12038E-05
 0.13479996E+02 -0.36594E-06
 0.13529996E+02  0.86582E-06
 0.13579996E+02  0.11923E-05
 0.13629996E+02  0.85585E-06
 0.13679996E+02  0.44569E-06
 0.13729996E+02 -0.46476E-06
 0.13779996E+02  0.23298E-06
 0.13829996E+02  0.14157E-05
 0.13879996E+02 -0.81329E-06
 0.13929996E+02 -0.22509E-05
 0.13979996E+02 -0.17449E-05
 0.14029996E+02 -0.83534E-06
 0.14079996E+02  0.89561E-06
 0.14129996E+02  0.15662E-05
 0.14179996E+02  0.80995E-06
 0.14229996E+02 -0.43387E-06
 0.14279996E+02 -0.12829E-05
 0.14329996E+02 -0.14576E-05
 0.14379996E+02 -0.75443E-06
 0.14429996E+02  0.28542E-06
 0.14479996E+02  0.27992E-06
 0.14529996E+02  0.51769E-07
 0.14579996E+02  0.20894E-07
 0.14629996E+02 -0.28286E-06
 0.14679996E+02 -0.73004E-07
 0.14729996E+02 -0.30625E-07
 0.14779996E+02  0.37498E-06
 0.14829996E+02  0.72660E-06
 0.14879996E+02 -0.18872E-06
 0.14929996E+02 -0.76419E-06
 0.14979996E+02 -0.50174E-06
 0.15029996E+02  0.73074E-06
 0.15079996E+02  0.12500E-05
 0.15129996E+02  0.48186E-06
 0.15179996E+02 -0.49682E-06
 0.15229996E+02 -0.72696E-06
 0.15279996E+02  0.32610E-06
 0.15329996E+02  0.41871E-06
 0.15379996E+02 -0.54191E-06
 0.15429996E+02 -0.92309E-06
 0.15479996E+02 -0.49577E-06
 0.15529996E+02 -0.27179E-07
 0.15579996E+02  0.19699E-06
 0.15629996E+02  0.22327E-06
 0.15679996E+02  0.38525E-06
 0.15729996E+02  0.52717E-06
 0.15779996E+02  0.95010E-07
 0.15829996E+02 -0.61878E-06
 0.15879996E+02 -0.52970E-06
 0.15929996E+02  0.37416E-06
 0.15979996E+02  0.74279E-06
 0.16029997E+02  0.11520E-05
 0.16079996E+02  0.39091E-06
 0.16129995E+02 -0.64052E-06
 0.16179996E+02 -0.32641E-06
 0.16229996E+02  0.42596E-06
 0.16279997E+02  0.73393E-06
 0.16329996E+02 -0.11098E-05
 0.16379995E+02 -0.16781E-05
 0.16429996E+02 -0.24637E-06
 0.16479996E+02  0.25838E-07
 0.16529997E+02 -0.14653E-06
 0.16579996E+02  0.70478E-06
 0.16629995E+02  0.11794E-05
 0.16679996E+02 -0.71207E-06
 0.16729996E+02 -0.19202E-05
 0.16779997E+02 -0.58835E-06
 0.16829996E+02  0.68267E-06
 0.16879995E+02  0.42913E-06
 0.16929996E+02  0.41145E-06
 0.16979996E+02  0.65452E-06
 0.17029997E+02  0.50706E-06
 0.17079996E+02  0.28483E-06
 0.17129995E+02 -0.80595E-06
 0.17179996E+02 -0.65136E-06
 0.17229996E+02  0.57739E-06
 0.17279997E+02  0.10456E-05
 0.17329996E+02  0.31891E-06
 0.17379995E+02  0.25625E-06
 0.17429996E+02  0.17217E-05
 0.17479996E+02  0.12255E-05
 0.17529997E+02 -0.22223E-06
 0.17579996E+02 -0.54320E-06
 0.17629995E+02  0.13343E-06
 0.17679996E+02  0.23573E-06
 0.17729996E+02  0.45742E-06
 0.17779997E+02  0.83158E-06
 0.17829996E+02 -0.77024E-06
 0.17879995E+02 -0.13031E-05
 0.17929996E+02 -0.11048E-05
 0.17979996E+02 -0.70150E-06
 0.18029997E+02  0.53292E-06
 0.18079996E+02  0.24878E-06
 0.18129995E+02 -0.10036E-05
 0.18179996E+02 -0.16469E-05
 0.18229996E+02 -0.39811E-06
 0.18279997E+02  0.57350E-06
 0.18329996E+02  0.23318E-06
 0.18379995E+02  0.76446E-06
 0.18429996E+02  0.82889E-06
 0.18479996E+02 -0.57267E-06
 0.18529997E+02 -0.23984E-05
 0.18579996E+02 -0.25693E-05
 0.18629995E+02 -0.76844E-06
 0.18679996E+02  0.13238E-05
 0.18729996E+02  0.18185E-05
 0.18779997E+02  0.33394E-06
 0.18829996E+02 -0.41776E-06
 0.18879995E+02 -0.16819E-06
 0.18929996E+02  0.50295E-06
 0.18979996E+02  0.17558E-05
 0.19029997E+02  0.12098E-05
 0.19079996E+02 -0.91999E-07
 0.19129995E+02 -0.10177E-06
 0.19179996E+02 -0.47703E-06
 0.19229996E+02 -0.19936E-06
 0.19279997E+02  0.71679E-06
 0.19329996E+02  0.11977E-05
 0.19379995E+02  0.12549E-05
 0.19429996E+02  0.12700E-06
 0.19479996E+02 -0.12078E-05
 0.19529997E+02 -0.20578E-05
 0.19579996E+02 -0.16705E-05
 0.19629995E+02  0.25146E-06
 0.19679996E+02  0.17545E-05
 0.19729996E+02  0.98482E-06
 0.19779997E+02 -0.82033E-06
 0.19829996E+02 -0.16387E-05
 0.19879995E+02 -0.17651E-05
 0.19929996E+02 -0.11295E-05
 0.19979996E+02  0.48321E-06
 0.20029997E+02  0.11470E-05
 0.20079996E+02  0.41768E-06
 0.20129995E+02  0.76239E-07
 0.20179996E+02  0.30884E-06
 0.20229996E+02  0.53925E-06
 0.20279997E+02  0.10585E-07
 0.20329996E+02 -0.63398E-07
 0.20379995E+02  0.77257E-06
 0.20429996E+02  0.51266E-06
 0.20479996E+02 -0.80798E-06
 0.20529997E+02 -0.12679E-05
 0.20579996E+02  0.58347E-06
 0.20629995E+02  0.19943E-05
 0.20679996E+02  0.13427E-05
 0.20729996E+02 -0.12001E-06
 0.20779997E+02 -0.10393E-05
 0.20829996E+02 -0.43917E-07
 0.20879995E+02  0.11378E-05
 0.20929996E+02  0.14312E-05
 0.20979996E+02  0.63517E-06
 0.21029997E+02 -0.32905E-06
 0.21079996E+02 -0.70493E-06
 0.21129995E+02 -0.14814E-05
 0.21179996E+02 -0.83618E-06
 0.21229996E+02  0.33695E-06
 0.21279997E+02  0.60099E-06
 0.21329996E+02  0.97681E-06
 0.21379995E+02  0.50386E-06
 0.21429996E+02  0.20032E-06
 0.21479996E+02 -0.29272E-06
 0.21529997E+02 -0.13625E-05
 0.21579996E+02 -0.98982E-06
 0.21629995E+02 -0.34876E-06
 0.21679996E+02  0.12111E-06
 0.21729996E+02 -0.62707E-06
 0.21779997E+02 -0.15358E-05
 0.21829996E+02 -0.75605E-06
 0.21879995E+02 -0.82996E-06
 0.21929996E+02 -0.63487E-06
 0.21979996E+02 -0.14018E-06
 0.22029997E+02 -0.41289E-06
 0.22079996E+02 -0.25440E-06
 0.22129995E+02  0.32259E-06
 0.22179996E+02  0.84973E-06
 0.22229996E+02  0.68936E-06
 0.22279997E+02  0.34255E-06
 0.22329996E+02  0.37578E-07
 0.22379995E+02 -0.21007E-06
 0.22429996E+02  0.10209E-06
 0.22479996E+02  0.89452E-06
 0.22529997E+02  0.98443E-06
 0.22579996E+02  0.98733E-06
 0.22629995E+02  0.14856E-05
 0.22679996E+02  0.79432E-06
 0.22729996E+02 -0.33241E-06
 0.22779997E+02 -0.74446E-06
 0.22829996E+02 -0.47089E-06
 0.22879995E+02  0.33724E-06
 0.22929996E+02  0.61714E-06
 0.22979996E+02  0.36433E-06
 0.23029997E+02 -0.35296E-06
 0.23079996E+02 -0.93933E-06
 0.23129995E+02 -0.61398E-07
 0.23179996E+02 -0.27325E-06
 0.23229996E+02 -0.86959E-06
 0.23279997E+02  0.44585E-07
 0.23329996E+02 -0.23148E-06
 0.23379995E+02 -0.61001E-06
 0.23429996E+02 -0.74970E-07
 0.23479996E+02  0.10285E-05
 0.23529997E+02  0.16273E-05
 0.23579996E+02  0.67538E-06
 0.23629995E+02  0.24901E-06
 0.23679996E+02 -0.28685E-06
 0.23729996E+02 -0.60469E-06
 0.23779997E+02  0.16900E-06
 0.23829996E+02  0.53920E-06
 0.23879995E+02 -0.32587E-07
 0.23929996E+02 -0.12304E-05
 0.23979996E+02 -0.17677E-05
 0.24029997E+02 -0.17619E-05
 0.24079996E+02 -0.81199E-06
 0.24129995E+02  0.38194E-06
 0.24179996E+02  0.76334E-06
 0.24229996E+02  0.12253E-05
 0.24279997E+02  0.72188E-06
 0.24329996E+02 -0.52895E-06
 0.24379995E+02 -0.84733E-06
 0.24429996E+02 -0.63539E-06
 0.24479996E+02 -0.58676E-06
 0.24529997E+02  0.15658E-06
 0.24579996E+02  0.82289E-06
 0.24629995E+02  0.17781E-06
 0.24679996E+02 -0.68876E-06
 0.24729996E+02 -0.89257E-06
 0.24779997E+02 -0.18809E-06
 0.24829996E+02  0.86054E-06
 0.24879995E+02  0.16282E-05
 0.24929996E+02  0.15077E-05
 0.24979996E+02 -0.70932E-07
 0.25029997E+02 -0.58573E-06
 0.25079996E+02  0.57045E-06
 0.25129995E+02  0.78611E-06
 0.25179996E+02  0.27240E-06
 0.25229996E+02  0.75689E-08
 0.25279997E+02  0.24936E-06
 0.25329996E+02  0.75718E-06
 0.25379995E+02  0.62295E-06
 0.25429996E+02 -0.50223E-07
 0.25479996E+02  0.82237E-07
 0.25529997E+02  0.24670E-06
 0.25579996E+02 -0.60351E-07
 0.25629995E+02  0.20886E-06
 0.25679996E+02 -0.10453E-06
 0.25729996E+02 -0.42988E-06
 0.25779997E+02 -0.93095E-06
 0.25829996E+02 -0.86574E-06
 0.25879995E+02  0.37314E-06
 0.25929996E+02 -0.13013E-06
 0.25979996E+02 -0.94390E-07
 0.26029997E+02  0.45123E-06
 0.26079996E+02 -0.36020E-06
 0.26129995E+02 -0.80902E-06
 0.26179996E+02 -0.94217E-06
 0.26229996E+02 -0.42321E-06
 0.26279997E+02 -0.11020E-06
 0.26329996E+02 -0.10018E-05
 0.26379995E+02 -0.25628E-05
 0.26429996E+02 -0.26776E-05
 0.26479996E+02 -0.60038E-06
 0.26529997E+02  0.39731E-06
 0.26579996E+02  0.55170E-07
 0.26629995E+02 -0.48287E-07
 0.26679996E+02 -0.82852E-07
 0.26729996E+02 -0.38104E-06
 0.26779997E+02  0.40822E-07
 0.26829996E+02  0.23514E-05
 0.26879995E+02  0.36759E-05
 0.26929996E+02  0.23849E-05
 0.26979996E+02  0.11082E-05
 0.27029997E+02  0.66682E-06
 0.27079996E+02  0.15156E-06
 0.27129995E+02 -0.69881E-07
 0.27179996E+02  0.31560E-06
 0.27229996E+02  0.74997E-07
 0.27279997E+02  0.18936E-06
 0.27329996E+02  0.98667E-06
 0.27379995E+02  0.11623E-06
 0.27429996E+02 -0.10534E-05
 0.27479996E+02 -0.56509E-06
 0.27529997E+02 -0.36673E-07
 0.27579996E+02 -0.64731E-06
 0.27629995E+02 -0.86175E-06
 0.27679996E+02 -0.62785E-06
 0.27729996E+02 -0.55856E-06
 0.27779997E+02 -0.23517E-07
 0.27829996E+02  0.30917E-06
 0.27879995E+02 -0.44602E-06
 0.27929996E+02 -0.14647E-05
 0.27979996E+02 -0.92980E-06
 0.28029997E+02 -0.76708E-07
 0.28079996E+02  0.30754E-06
 0.28129995E+02  0.94950E-06
 0.28179996E+02  0.92094E-06
 0.28229996E+02  0.10939E-06
 0.28279997E+02 -0.44740E-06
 0.28329996E+02  0.15961E-06
 0.28379995E+02  0.59630E-06
 0.28429996E+02  0.21567E-06
 0.28479996E+02  0.63560E-06
 0.28529997E+02  0.96350E-06
 0.28579996E+02  0.14073E-06
 0.28629995E+02  0.47129E-06
 0.28679996E+02  0.10884E-05
 0.28729996E+02 -0.13825E-06
 0.28779997E+02 -0.57535E-06
 0.28829996E+02  0.17690E-06
 0.28879995E+02 -0.23198E-06
 0.28929996E+02 -0.81328E-06
 0.28979996E+02 -0.39098E-07
 0.29029997E+02  0.49485E-06
 0.29079996E+02  0.53082E-06
 0.29129995E+02  0.69225E-06
 0.29179996E+02  0.45857E-08
 0.29229996E+02 -0.11190E-05
 0.29279997E+02 -0.14666E-05
 0.29329996E+02 -0.10694E-05
 0.29379995E+02 -0.12307E-05
 0.29429996E+02 -0.10718E-05
 0.29479996E+02 -0.40970E-07
 0.29529997E+02  0.71117E-06
 0.29579996E+02  0.11576E-06
 0.29629995E+02 -0.12506E-05
 0.29679996E+02 -0.12355E-05
 0.29729996E+02 -0.90641E-06
 0.29779997E+02 -0.41604E-06
 0.29829996E+02  0.19383E-06
 0.29879995E+02 -0.31850E-06
 0.29929996E+02 -0.82841E-06
 0.29979996E+02 -0.55744E-06
 0.30029997E+02  0.21691E-06
 0.30079996E+02  0.12140E-05
 0.30129995E+02  0.14649E-05
 0.30179996E+02  0.10046E-05
 0.30229996E+02  0.70885E-06
 0.30279997E+02  0.71578E-06
 0.30329996E+02  0.71455E-06
 0.30379995E+02 -0.21121E-06
 0.30429996E+02 -0.30037E-06
 0.30479996E+02  0.75222E-06
 0.30529997E+02  0.71182E-06
 0.30579996E+02  0.44254E-06
 0.30629995E+02  0.11780E-05
 0.30679996E+02  0.12110E-05
 0.30729996E+02  0.55569E-07
 0.30779997E+02  0.34670E-06
 0.30829996E+02  0.10805E-05
 0.30879995E+02  0.45001E-06
 0.30929996E+02  0.77421E-06
 0.30979996E+02  0.16061E-05
 0.31029997E+02  0.15736E-05
 0.31079996E+02  0.27947E-05
 0.31129995E+02  0.39689E-05
 0.31179996E+02  0.37728E-05
 0.31229996E+02  0.17624E-05
 0.31279997E+02 -0.31636E-05
 0.31329996E+02 -0.80666E-05
 0.31379995E+02 -0.11420E-04
 0.31429996E+02 -0.12673E-04
 0.31479996E+02 -0.98427E-05
 0.31529997E+02 -0.41434E-05
 0.31579996E+02  0.51725E-06
 0.31629995E+02  0.53698E-05
 0.31679996E+02  0.11582E-04
 0.31729996E+02  0.91890E-05
 0.31779997E+02 -0.17870E-05
 0.31829996E+02 -0.10390E-04
 0.31879995E+02 -0.15179E-04
 0.31929996E+02 -0.88382E-05
 0.31979996E+02  0.55183E-05
 0.32029995E+02  0.88327E-05
 0.32079998E+02  0.72838E-05
 0.32129997E+02  0.17818E-04
 0.32179996E+02  0.19320E-04
 0.32229996E+02 -0.48593E-05
 0.32279995E+02 -0.19831E-04
 0.32329998E+02 -0.22256E-04
 0.32379997E+02 -0.15462E-04
 0.32429996E+02  0.93136E-05
 0.32479996E+02  0.21066E-04
 0.32529995E+02  0.22861E-04
 0.32579998E+02  0.29004E-04
 0.32629997E+02  0.30077E-04
 0.32679996E+02  0.16446E-04
 0.32729996E+02 -0.80566E-06
 0.32779995E+02 -0.82453E-05
 0.32829998E+02 -0.17558E-04
 0.32879997E+02 -0.12493E-04
 0.32929996E+02  0.77158E-06
 0.32979996E+02 -0.56928E-05
 0.33029995E+02 -0.12105E-04
 0.33079998E+02 -0.71058E-05
 0.33129997E+02 -0.81432E-05
 0.33179996E+02 -0.11379E-04
 0.33229996E+02 -0.22233E-04
 0.33279995E+02 -0.39531E-04
 0.33329998E+02 -0.23915E-04
 0.33379997E+02 -0.17651E-04
 0.33429996E+02 -0.24112E-04
 0.33479996E+02  0.88822E-05
 0.33529995E+02  0.22833E-04
 0.33579998E+02  0.29863E-04
 0.33629997E+02  0.47122E-04
 0.33679996E+02  0.35979E-04
 0.33729996E+02  0.15662E-04
 0.33779995E+02 -0.12159E-04
 0.33829998E+02 -0.42006E-04
 0.33879997E+02 -0.45948E-04
 0.33929996E+02  0.36804E-05
 0.33979996E+02  0.41981E-04
 0.34029995E+02  0.34452E-04
 0.34079998E+02  0.26715E-04
 0.34129997E+02  0.12750E-05
 0.34179996E+02 -0.20380E-04
 0.34229996E+02 -0.42699E-04
 0.34279995E+02 -0.50919E-04
 0.34329998E+02 -0.14263E-04
 0.34379997E+02  0.26086E-04
 0.34429996E+02  0.73140E-04
 0.34479996E+02  0.88937E-04
 0.34529995E+02  0.84769E-04
 0.34579998E+02  0.67149E-04
 0.34629997E+02 -0.13257E-04
 0.34679996E+02 -0.60991E-04
 0.34729996E+02 -0.58309E-04
 0.34779995E+02 -0.79924E-04
 0.34829998E+02 -0.96477E-04
 0.34879997E+02 -0.75798E-04
 0.34929996E+02 -0.56450E-04
 0.34979996E+02 -0.46520E-04
 0.35029995E+02 -0.21128E-04
 0.35079998E+02  0.17395E-05
 0.35129997E+02  0.10166E-04
 0.35179996E+02  0.36070E-04
 0.35229996E+02  0.56661E-04
 0.35279995E+02  0.17214E-04
 0.35329998E+02  0.36898E-04
 0.35379997E+02  0.10220E-03
 0.35429996E+02  0.10509E-03
 0.35479996E+02  0.10075E-03
 0.35529995E+02  0.46505E-04
 0.35579998E+02 -0.84246E-05
 0.35629997E+02 -0.16621E-04
 0.35679996E+02 -0.14053E-04
 0.35729996E+02  0.16151E-05
 0.35779995E+02 -0.52243E-05
 0.35829998E+02  0.60243E-05
 0.35879997E+02 -0.21495E-04
 0.35929996E+02 -0.47251E-04
 0.35979996E+02 -0.17067E-04
 0.36029995E+02 -0.43629E-04
 0.36079998E+02 -0.69424E-04
 0.36129997E+02 -0.87330E-04
 0.36179996E+02 -0.10965E-03
 0.36229996E+02 -0.12182E-03
 0.36279995E+02 -0.11608E-03
 0.36329998E+02 -0.52739E-04
 0.36379997E+02 -0.13090E-04
 0.36429996E+02  0.24085E-04
 0.36479996E+02  0.11224E-03
 0.36529995E+02  0.17669E-03
 0.36579998E+02  0.14375E-03
 0.36629997E+02  0.87380E-04
 0.36679996E+02  0.75649E-04
 0.36729996E+02  0.10854E-04
 0.36779995E+02 -0.47574E-04
 0.36829998E+02 -0.47242E-04
 0.36879997E+02 -0.75071E-04
 0.36929996E+02 -0.95642E-04
 0.36979996E+02 -0.44198E-04
 0.37029995E+02  0.45461E-04
 0.37079998E+02  0.59486E-04
 0.37129997E+02  0.10165E-04
 0.37179996E+02 -0.42641E-04
 0.37229996E+02 -0.61916E-04
 0.37279995E+02  0.26608E-04
 0.37329998E+02  0.83233E-04
 0.37379997E+02  0.91594E-04
 0.37429996E+02  0.10524E-03
 0.37479996E+02  0.25619E-04
 0.37529995E+02 -0.31611E-04
 0.37579998E+02 -0.59456E-04
 0.37629997E+02 -0.12896E-03
 0.37679996E+02 -0.14197E-03
 0.37729996E+02 -0.43754E-04
 0.37779995E+02  0.70414E-04
 0.37829998E+02  0.15780E-03
 0.37879997E+02  0.27516E-03
 0.37929996E+02  0.32089E-03
 0.37979996E+02  0.27503E-03
 0.38029995E+02  0.17321E-03
 0.38079998E+02  0.58008E-04
 0.38129997E+02 -0.40416E-04
 0.38179996E+02 -0.15333E-03
 0.38229996E+02 -0.23521E-03
 0.38279995E+02 -0.30330E-03
 0.38329998E+02 -0.28801E-03
 0.38379997E+02 -0.23760E-03
 0.38429996E+02 -0.25438E-03
 0.38479996E+02 -0.21410E-03
 0.38529995E+02 -0.19476E-03
 0.38579998E+02 -0.26260E-03
 0.38629997E+02 -0.26739E-03
 0.38679996E+02 -0.15302E-03
 0.38729996E+02  0.55173E-05
 0.38779995E+02  0.13749E-03
 0.38829998E+02  0.27027E-03
 0.38879997E+02  0.39582E-03
 0.38929996E+02  0.46051E-03
 0.38979996E+02  0.46171E-03
 0.39029995E+02  0.36463E-03
 0.39079998E+02  0.15182E-03
 0.39129997E+02 -0.81814E-04
 0.39179996E+02 -0.22232E-03
 0.39229996E+02 -0.23256E-03
 0.39279995E+02 -0.10883E-03
 0.39329998E+02  0.12836E-03
 0.39379997E+02  0.27911E-03
 0.39429996E+02  0.26646E-03
 0.39479996E+02  0.22480E-03
 0.39529995E+02  0.14021E-03
 0.39579998E+02  0.27416E-04
 0.39629997E+02 -0.83802E-04
 0.39679996E+02 -0.24051E-03
 0.39729996E+02 -0.35653E-03
 0.39779995E+02 -0.33749E-03
 0.39829998E+02 -0.24192E-03
 0.39879997E+02 -0.19341E-03
 0.39929996E+02 -0.19082E-03
 0.39979996E+02 -0.11209E-03
 0.40029995E+02 -0.49020E-04
 0.40079998E+02 -0.24576E-04
 0.40129997E+02  0.78711E-04
 0.40179996E+02  0.16645E-03
 0.40229996E+02  0.26898E-03
 0.40279995E+02  0.36125E-03
 0.40329998E+02  0.32408E-03
 0.40379997E+02  0.27867E-03
 0.40429996E+02  0.18538E-03
 0.40479996E+02 -0.12390E-03
 0.40529995E+02 -0.50291E-03
 0.40579998E+02 -0.70137E-03
 0.40629997E+02 -0.80135E-03
 0.40679996E+02 -0.75895E-03
 0.40729996E+02 -0.31101E-03
 0.40779995E+02  0.19038E-03
 0.40829998E+02  0.36395E-03
 0.40879997E+02  0.31290E-03
 0.40929996E+02  0.18289E-03
 0.40979996E+02  0.13272E-03
 0.41029995E+02  0.21601E-03
 0.41079998E+02  0.27008E-03
 0.41129997E+02  0.15780E-03
 0.41179996E+02  0.18078E-03
 0.41229996E+02  0.43857E-03
 0.41279995E+02  0.52931E-03
 0.41329998E+02  0.34421E-03
 0.41379997E+02  0.12122E-03
 0.41429996E+02 -0.66893E-04
 0.41479996E+02 -0.22453E-03
 0.41529995E+02 -0.92486E-04
 0.41579998E+02  0.95009E-04
 0.41629997E+02 -0.21142E-04
 0.41679996E+02 -0.12686E-03
 0.41729996E+02  0.22209E-04
 0.41779995E+02  0.25772E-03
 0.41829998E+02  0.23341E-03
 0.41879997E+02 -0.85403E-04
 0.41929996E+02 -0.37246E-03
 0.41979996E+02 -0.50135E-03
 0.42029995E+02 -0.56435E-03
 0.42079998E+02 -0.48526E-03
 0.42129997E+02 -0.21129E-03
 0.42179996E+02  0.20599E-04
 0.42229996E+02  0.74864E-04
 0.42279995E+02  0.14400E-03
 0.42329998E+02  0.27995E-03
 0.42379997E+02  0.20109E-03
 0.42429996E+02 -0.14127E-03
 0.42479996E+02 -0.35515E-03
 0.42529995E+02 -0.18909E-03
 0.42579998E+02  0.12153E-03
 0.42629997E+02  0.36308E-03
 0.42679996E+02  0.48143E-03
 0.42729996E+02  0.43866E-03
 0.42779995E+02  0.32852E-03
 0.42829998E+02  0.17011E-03
 0.42879997E+02 -0.85220E-04
 0.42929996E+02 -0.28557E-03
 0.42979996E+02 -0.24623E-03
 0.43029995E+02 -0.13807E-03
 0.43079998E+02 -0.12053E-03
 0.43129997E+02 -0.11119E-03
 0.43179996E+02 -0.12235E-03
 0.43229996E+02 -0.20568E-03
 0.43279995E+02 -0.34173E-03
 0.43329998E+02 -0.40292E-03
 0.43379997E+02 -0.32796E-03
 0.43429996E+02 -0.15593E-03
 0.43479996E+02  0.82186E-04
 0.43529995E+02  0.32231E-03
 0.43579998E+02  0.46651E-03
 0.43629997E+02  0.40225E-03
 0.43679996E+02  0.33567E-03
 0.43729996E+02  0.41602E-03
 0.43779995E+02  0.36246E-03
 0.43829998E+02  0.20857E-03
 0.43879997E+02  0.14971E-03
 0.43929996E+02  0.18963E-03
 0.43979996E+02  0.26909E-03
 0.44029995E+02  0.86822E-04
 0.44079998E+02 -0.20804E-03
 0.44129997E+02 -0.26959E-03
 0.44179996E+02 -0.38122E-03
 0.44229996E+02 -0.56617E-03
 0.44279995E+02 -0.55007E-03
 0.44329998E+02 -0.38375E-03
 0.44379997E+02 -0.22826E-03
 0.44429996E+02 -0.14715E-03
 0.44479996E+02 -0.15374E-03
 0.44529995E+02 -0.14163E-03
 0.44579998E+02 -0.84450E-05
 0.44629997E+02  0.81593E-05
 0.44679996E+02 -0.86492E-04
 0.44729996E+02 -0.28401E-04
 0.44779995E+02  0.15634E-03
 0.44829998E+02  0.35046E-03
 0.44879997E+02  0.43715E-03
 0.44929996E+02  0.35770E-03
 0.44979996E+02  0.23195E-03
 0.45029995E+02  0.18159E-03
 0.45079998E+02  0.18317E-03
 0.45129997E+02  0.22774E-03
 0.45179996E+02  0.29932E-03
 0.45229996E+02  0.27511E-03
 0.45279995E+02  0.64666E-04
 0.45329998E+02 -0.25454E-03
 0.45379997E+02 -0.51004E-03
 0.45429996E+02 -0.53398E-03
 0.45479996E+02 -0.49652E-03
 0.45529995E+02 -0.60335E-03
 0.45579998E+02 -0.60304E-03
 0.45629997E+02 -0.46784E-03
 0.45679996E+02 -0.38378E-03
 0.45729996E+02 -0.31095E-03
 0.45779995E+02 -0.78835E-04
 0.45829998E+02  0.28296E-03
 0.45879997E+02  0.58926E-03
 0.45929996E+02  0.82134E-03
 0.45979996E+02  0.95783E-03
 0.46029995E+02  0.94582E-03
 0.46079998E+02  0.72494E-03
 0.46129997E+02  0.47742E-03
 0.46179996E+02  0.37803E-03
 0.46229996E+02  0.29889E-03
 0.46279995E+02  0.22717E-03
 0.46329998E+02  0.11678E-03
 0.46379997E+02 -0.79088E-04
 0.46429996E+02 -0.19296E-03
 0.46479996E+02 -0.22122E-03
 0.46529995E+02 -0.26467E-03
 0.46579998E+02 -0.33071E-03
 0.46629997E+02 -0.40124E-03
 0.46679996E+02 -0.33879E-03
 0.46729996E+02 -0.26836E-03
 0.46779995E+02 -0.41409E-03
 0.46829998E+02 -0.63178E-03
 0.46879997E+02 -0.79505E-03
 0.46929996E+02 -0.85621E-03
 0.46979996E+02 -0.71238E-03
 0.47029995E+02 -0.41758E-03
 0.47079998E+02 -0.18704E-03
 0.47129997E+02 -0.20730E-04
 0.47179996E+02  0.26067E-03
 0.47229996E+02  0.54114E-03
 0.47279995E+02  0.58840E-03
 0.47329998E+02  0.47971E-03
 0.47379997E+02  0.40495E-03
 0.47429996E+02  0.47480E-03
 0.47479996E+02  0.55223E-03
 0.47529995E+02  0.40589E-03
 0.47579998E+02  0.19153E-03
 0.47629997E+02  0.75333E-04
 0.47679996E+02 -0.62762E-04
 0.47729996E+02 -0.23620E-03
 0.47779995E+02 -0.29548E-03
 0.47829998E+02 -0.18571E-03
 0.47879997E+02 -0.28526E-04
 0.47929996E+02  0.41020E-04
 0.47979996E+02  0.12242E-03
 0.48029995E+02  0.23579E-03
 0.48079998E+02  0.22647E-03
 0.48129997E+02  0.12104E-03
 0.48179996E+02  0.61012E-04
 0.48229996E+02  0.59925E-04
 0.48279995E+02 -0.40312E-04
 0.48329998E+02 -0.22592E-03
 0.48379997E+02 -0.40348E-03
 0.48429996E+02 -0.46394E-03
 0.48479996E+02 -0.33994E-03
 0.48529995E+02 -0.10437E-03
 0.48579998E+02  0.14925E-03
 0.48629997E+02  0.18664E-03
 0.48679996E+02  0.33592E-04
 0.48729996E+02 -0.10491E-03
 0.48779995E+02 -0.19318E-03
 0.48829998E+02 -0.22351E-03
 0.48879997E+02 -0.15068E-03
 0.48929996E+02  0.70938E-05
 0.48979996E+02  0.54046E-04
 0.49029995E+02  0.18664E-04
 0.49079998E+02  0.11008E-03
 0.49129997E+02  0.21098E-03
 0.49179996E+02  0.19666E-03
 0.49229996E+02  0.23002E-03
 0.49279995E+02  0.35370E-03
 0.49329998E+02  0.41943E-03
 0.49379997E+02  0.31910E-03
 0.49429996E+02  0.14799E-03
 0.49479996E+02  0.48432E-04
 0.49529995E+02  0.24695E-04
 0.49579998E+02  0.89289E-04
 0.49629997E+02  0.64107E-04
 0.49679996E+02 -0.21950E-04
 0.49729996E+02  0.55200E-04
 0.49779995E+02  0.12887E-03
 0.49829998E+02  0.21994E-03
 0.49879997E+02  0.32077E-03
 0.49929996E+02  0.21121E-03
 0.49979996E+02  0.18640E-04
 0.50029995E+02 -0.16671E-03
 0.50079998E+02 -0.41016E-03
 0.50129997E+02 -0.63075E-03
 0.50179996E+02 -0.69912E-03
 0.50229996E+02 -0.58987E-03
 0.50279995E+02 -0.50389E-03
 0.50329998E+02 -0.63332E-03
 0.50379997E+02 -0.67073E-03
 0.50429996E+02 -0.41716E-03
 0.50479996E+02 -0.22850E-03
 0.50529995E+02 -0.21467E-03
 0.50579998E+02 -0.12403E-03
 0.50629997E+02  0.17504E-03
 0.50679996E+02  0.50558E-03
 0.50729996E+02  0.66921E-03
 0.50779995E+02  0.68394E-03
 0.50829998E+02  0.54374E-03
 0.50879997E+02  0.37806E-03
 0.50929996E+02  0.32280E-03
 0.50979996E+02  0.21139E-03
 0.51029995E+02  0.44543E-04
 0.51079998E+02 -0.41471E-04
 0.51129997E+02 -0.15230E-03
 0.51179996E+02 -0.28487E-03
 0.51229996E+02 -0.23420E-03
 0.51279995E+02 -0.91585E-04
 0.51329998E+02 -0.10339E-03
 0.51379997E+02 -0.13091E-03
 0.51429996E+02  0.45754E-04
 0.51479996E+02  0.28368E-03
 0.51529995E+02  0.38204E-03
 0.51579998E+02  0.33309E-03
 0.51629997E+02  0.19584E-03
 0.51679996E+02  0.55168E-04
 0.51729996E+02 -0.16441E-04
 0.51779995E+02 -0.11207E-03
 0.51829998E+02 -0.20621E-03
 0.51879997E+02 -0.12453E-03
 0.51929996E+02 -0.11153E-03
 0.51979996E+02 -0.22303E-03
 0.52029995E+02 -0.17274E-03
 0.52079998E+02 -0.42784E-04
 0.52129997E+02  0.19619E-03
 0.52179996E+02  0.49403E-03
 0.52229996E+02  0.50811E-03
 0.52279995E+02  0.32201E-03
 0.52329998E+02  0.13187E-03
 0.52379997E+02 -0.11270E-03
 0.52429996E+02 -0.28086E-03
 0.52479996E+02 -0.14542E-03
 0.52529995E+02  0.55213E-04
 0.52579998E+02 -0.52447E-04
 0.52629997E+02 -0.29135E-03
 0.52679996E+02 -0.46922E-03
 0.52729996E+02 -0.52401E-03
 0.52779995E+02 -0.35472E-03
 0.52829998E+02 -0.30149E-03
 0.52879997E+02 -0.41394E-03
 0.52929996E+02 -0.37961E-03
 0.52979996E+02 -0.19276E-03
 0.53029995E+02  0.99098E-04
 0.53079998E+02  0.35879E-03
 0.53129997E+02  0.55843E-03
 0.53179996E+02  0.72943E-03
 0.53229996E+02  0.75247E-03
 0.53279995E+02  0.57445E-03
 0.53329998E+02  0.33825E-03
 0.53379997E+02  0.23007E-03
 0.53429996E+02  0.16835E-03
 0.53479996E+02  0.66492E-04
 0.53529995E+02 -0.67941E-04
 0.53579998E+02 -0.24655E-03
 0.53629997E+02 -0.41566E-03
 0.53679996E+02 -0.50375E-03
 0.53729996E+02 -0.51046E-03
 0.53779995E+02 -0.44838E-03
 0.53829998E+02 -0.28904E-03
 0.53879997E+02 -0.14139E-03
 0.53929996E+02 -0.30095E-04
 0.53979996E+02  0.17939E-03
 0.54029995E+02  0.43244E-03
 0.54079998E+02  0.67772E-03
 0.54129997E+02  0.76621E-03
 0.54179996E+02  0.45340E-03
 0.54229996E+02  0.18361E-06
 0.54279995E+02 -0.32463E-03
 0.54329998E+02 -0.56583E-03
 0.54379997E+02 -0.62544E-03
 0.54429996E+02 -0.55051E-03
 0.54479996E+02 -0.45115E-03
 0.54529995E+02 -0.24862E-03
 0.54579998E+02 -0.20407E-04
 0.54629997E+02  0.85051E-04
 0.54679996E+02  0.11204E-03
 0.54729996E+02  0.12057E-03
 0.54779995E+02  0.89277E-04
 0.54829998E+02  0.17204E-03
 0.54879997E+02  0.33660E-03
 0.54929996E+02  0.21942E-03
 0.54979996E+02 -0.15774E-03
 0.55029995E+02 -0.44499E-03
 0.55079998E+02 -0.46927E-03
 0.55129997E+02 -0.39186E-03
 0.55179996E+02 -0.34311E-03
 0.55229996E+02 -0.20998E-03
 0.55279995E+02 -0.37014E-04
 0.55329998E+02  0.18159E-03
 0.55379997E+02  0.54970E-03
 0.55429996E+02  0.78167E-03
 0.55479996E+02  0.66806E-03
 0.55529995E+02  0.45451E-03
 0.55579998E+02  0.29170E-03
 0.55629997E+02  0.20310E-03
 0.55679996E+02  0.21949E-03
 0.55729996E+02  0.14963E-03
 0.55779995E+02 -0.28592E-04
 0.55829998E+02 -0.79746E-04
 0.55879997E+02 -0.46897E-04
 0.55929996E+02 -0.86108E-04
 0.55979996E+02 -0.20615E-03
 0.56029995E+02 -0.29044E-03
 0.56079998E+02 -0.20822E-03
 0.56129997E+02 -0.60723E-04
 0.56179996E+02 -0.11168E-04
 0.56229996E+02  0.48974E-04
 0.56279995E+02  0.15643E-03
 0.56329998E+02  0.11119E-03
 0.56379997E+02 -0.12197E-04
 0.56429996E+02 -0.81741E-04
 0.56479996E+02 -0.14225E-03
 0.56529995E+02 -0.21100E-03
 0.56579998E+02 -0.28884E-03
 0.56629997E+02 -0.39415E-03
 0.56679996E+02 -0.47229E-03
 0.56729996E+02 -0.41149E-03
 0.56779995E+02 -0.22813E-03
 0.56829998E+02  0.87257E-04
 0.56879997E+02  0.35729E-03
 0.56929996E+02  0.42622E-03
 0.56979996E+02  0.38656E-03
 0.57029995E+02  0.23150E-03
 0.57079998E+02  0.85301E-04
 0.57129997E+02  0.47970E-04
 0.57179996E+02  0.70202E-04
 0.57229996E+02 -0.30447E-04
 0.57279995E+02 -0.26302E-03
 0.57329998E+02 -0.35359E-03
 0.57379997E+02 -0.29239E-03
 0.57429996E+02 -0.14403E-03
 0.57479996E+02  0.79906E-04
 0.57529995E+02  0.24026E-03
 0.57579998E+02  0.18778E-03
 0.57629997E+02  0.81365E-04
 0.57679996E+02  0.85835E-04
 0.57729996E+02  0.19422E-03
 0.57779995E+02  0.40562E-03
 0.57829998E+02  0.37970E-03
 0.57879997E+02  0.45684E-04
 0.57929996E+02 -0.20764E-03
 0.57979996E+02 -0.22239E-03
 0.58029995E+02 -0.11146E-03
 0.58079998E+02 -0.16540E-03
 0.58129997E+02 -0.28926E-03
 0.58179996E+02 -0.19985E-03
 0.58229996E+02  0.32948E-04
 0.58279995E+02  0.25733E-03
 0.58329998E+02  0.28951E-03
 0.58379997E+02  0.24007E-03
 0.58429996E+02  0.31473E-03
 0.58479996E+02  0.36879E-03
 0.58529995E+02  0.12759E-03
 0.58579998E+02 -0.34699E-03
 0.58629997E+02 -0.59814E-03
 0.58679996E+02 -0.45826E-03
 0.58729996E+02 -0.12878E-03
 0.58779995E+02  0.39363E-04
 0.58829998E+02 -0.12102E-03
 0.58879997E+02 -0.31822E-03
 0.58929996E+02 -0.33779E-03
 0.58979996E+02 -0.28141E-03
 0.59029995E+02 -0.11844E-03
 0.59079998E+02  0.19499E-03
 0.59129997E+02  0.43931E-03
 0.59179996E+02  0.54487E-03
 0.59229996E+02  0.61705E-03
 0.59279995E+02  0.68437E-03
 0.59329998E+02  0.67075E-03
 0.59379997E+02  0.51910E-03
 0.59429996E+02  0.23454E-03
 0.59479996E+02 -0.97499E-04
 0.59529995E+02 -0.28971E-03
 0.59579998E+02 -0.35463E-03
 0.59629997E+02 -0.33030E-03
 0.59679996E+02 -0.32317E-03
 0.59729996E+02 -0.48287E-03
 0.59779995E+02 -0.53131E-03
 0.59829998E+02 -0.38880E-03
 0.59879997E+02 -0.31870E-03
 0.59929996E+02 -0.38615E-03
 0.59979996E+02 -0.46509E-03
 0.60029995E+02 -0.38924E-03
 0.60079998E+02 -0.25733E-03
 0.60129997E+02 -0.23582E-03
 0.60179996E+02 -0.18585E-03
 0.60229996E+02  0.41584E-04
 0.60279995E+02  0.27582E-03
 0.60329998E+02  0.42004E-03
 0.60379997E+02  0.56290E-03
 0.60429996E+02  0.60984E-03
 0.60479996E+02  0.62871E-03
 0.60529995E+02  0.79391E-03
 0.60579998E+02  0.90736E-03
 0.60629997E+02  0.69221E-03
 0.60679996E+02  0.25307E-03
 0.60729996E+02 -0.17919E-03
 0.60779995E+02 -0.52638E-03
 0.60829998E+02 -0.66541E-03
 0.60879997E+02 -0.53422E-03
 0.60929996E+02 -0.23524E-03
 0.60979996E+02 -0.20128E-03
 0.61029995E+02 -0.64159E-03
 0.61079998E+02 -0.10428E-02
 0.61129997E+02 -0.92172E-03
 0.61179996E+02 -0.23118E-03
 0.61229996E+02  0.51377E-03
 0.61279995E+02  0.88125E-03
 0.61329998E+02  0.84823E-03
 0.61379997E+02  0.56059E-03
 0.61429996E+02  0.41772E-03
 0.61479996E+02  0.28804E-03
 0.61529995E+02  0.43556E-04
 0.61579998E+02 -0.16349E-05
 0.61629997E+02  0.18301E-04
 0.61679996E+02 -0.10362E-03
 0.61729996E+02 -0.30357E-03
 0.61779995E+02 -0.33580E-03
 0.61829998E+02 -0.19236E-03
 0.61879997E+02 -0.43468E-04
 0.61929996E+02  0.97939E-04
 0.61979996E+02  0.49963E-04
 0.62029995E+02 -0.91883E-04
 0.62079998E+02 -0.14759E-03
 0.62129997E+02 -0.24116E-05
 0.62179996E+02  0.39810E-03
 0.62229996E+02  0.57390E-03
 0.62279995E+02  0.39818E-03
 0.62329998E+02  0.13522E-03
 0.62379997E+02 -0.18692E-03
 0.62429996E+02 -0.39382E-03
 0.62479996E+02 -0.36179E-03
 0.62529995E+02 -0.32392E-03
 0.62579998E+02 -0.37315E-03
 0.62629997E+02 -0.50217E-03
 0.62679996E+02 -0.74327E-03
 0.62729996E+02 -0.73654E-03
 0.62779995E+02 -0.16042E-03
 0.62829998E+02  0.46205E-03
 0.62879997E+02  0.54056E-03
 0.62929996E+02  0.29737E-03
 0.62979996E+02 -0.67100E-04
 0.63029995E+02 -0.41802E-03
 0.63079998E+02 -0.43745E-03
 0.63129997E+02 -0.26128E-04
 0.63179996E+02  0.50912E-03
 0.63229996E+02  0.67100E-03
 0.63279995E+02  0.44728E-03
 0.63329998E+02  0.12467E-03
 0.63379997E+02  0.15868E-03
 0.63429996E+02  0.50417E-03
 0.63479996E+02  0.60558E-03
 0.63529995E+02  0.51193E-03
 0.63579998E+02  0.31636E-03
 0.63629997E+02 -0.18549E-04
 0.63679996E+02 -0.39493E-03
 0.63729996E+02 -0.54136E-03
 0.63779995E+02 -0.10220E-03
 0.63829998E+02  0.55813E-03
 0.63879997E+02  0.73580E-03
 0.63929996E+02  0.37862E-03
 0.63979996E+02 -0.41966E-04
 0.64029999E+02 -0.33373E-03
 0.64079994E+02 -0.67705E-03
 0.64129997E+02 -0.10188E-02
 0.64180000E+02 -0.10834E-02
 0.64229996E+02 -0.70431E-03
 0.64279999E+02 -0.81833E-04
 0.64329994E+02  0.43593E-03
 0.64379997E+02  0.76108E-03
 0.64430000E+02  0.10065E-02
 0.64479996E+02  0.10966E-02
 0.64529999E+02  0.72193E-03
 0.64579994E+02 -0.63802E-04
 0.64629997E+02 -0.80164E-03
 0.64680000E+02 -0.98838E-03
 0.64729996E+02 -0.77691E-03
 0.64779999E+02 -0.80295E-03
 0.64829994E+02 -0.98626E-03
 0.64879997E+02 -0.89080E-03
 0.64930000E+02 -0.49821E-03
 0.64979996E+02 -0.21701E-04
 0.65029999E+02  0.37013E-03
 0.65079994E+02  0.65166E-03
 0.65129997E+02  0.86063E-03
 0.65180000E+02  0.87722E-03
 0.65229996E+02  0.52893E-03
 0.65279999E+02 -0.73870E-04
 0.65329994E+02 -0.51456E-03
 0.65379997E+02 -0.56400E-03
 0.65430000E+02 -0.38117E-03
 0.65479996E+02 -0.48140E-04
 0.65529999E+02  0.42440E-03
 0.65579994E+02  0.90812E-03
 0.65629997E+02  0.11615E-02
 0.65680000E+02  0.98426E-03
 0.65729996E+02  0.54761E-03
 0.65779999E+02  0.11248E-03
 0.65829994E+02 -0.12834E-03
 0.65879997E+02 -0.21163E-03
 0.65930000E+02 -0.55133E-03
 0.65979996E+02 -0.11259E-02
 0.66029999E+02 -0.14469E-02
 0.66079994E+02 -0.12740E-02
 0.66129997E+02 -0.68892E-03
 0.66180000E+02  0.50184E-04
 0.66229996E+02  0.54398E-03
 0.66279999E+02  0.67075E-03
 0.66329994E+02  0.63463E-03
 0.66379997E+02  0.47992E-03
 0.66430000E+02  0.25106E-03
 0.66479996E+02  0.29805E-04
 0.66529999E+02 -0.97236E-04
 0.66579994E+02 -0.14662E-03
 0.66629997E+02 -0.16991E-03
 0.66680000E+02  0.21886E-04
 0.66729996E+02  0.30551E-03
 0.66779999E+02  0.38676E-03
 0.66829994E+02  0.23890E-03
 0.66879997E+02 -0.10277E-03
 0.66930000E+02 -0.51151E-03
 0.66979996E+02 -0.73207E-03
 0.67029999E+02 -0.46646E-03
 0.67079994E+02  0.23010E-03
 0.67129997E+02  0.88718E-03
 0.67180000E+02  0.10337E-02
 0.67229996E+02  0.72217E-03
 0.67279999E+02  0.48046E-03
 0.67329994E+02  0.43947E-03
 0.67379997E+02  0.41475E-03
 0.67430000E+02  0.16510E-03
 0.67479996E+02 -0.46850E-03
 0.67529999E+02 -0.12043E-02
 0.67579994E+02 -0.16084E-02
 0.67629997E+02 -0.15046E-02
 0.67680000E+02 -0.10990E-02
 0.67729996E+02 -0.58651E-03
 0.67779999E+02  0.85058E-04
 0.67829994E+02  0.85278E-03
 0.67879997E+02  0.13661E-02
 0.67930000E+02  0.14398E-02
 0.67979996E+02  0.12117E-02
 0.68029999E+02  0.81280E-03
 0.68079994E+02  0.32018E-03
 0.68129997E+02 -0.22458E-03
 0.68180000E+02 -0.71962E-03
 0.68229996E+02 -0.99397E-03
 0.68279999E+02 -0.10660E-02
 0.68329994E+02 -0.10367E-02
 0.68379997E+02 -0.86196E-03
 0.68430000E+02 -0.53670E-03
 0.68479996E+02 -0.17250E-03
 0.68529999E+02  0.21430E-03
 0.68579994E+02  0.85895E-03
 0.68629997E+02  0.14692E-02
 0.68680000E+02  0.14081E-02
 0.68729996E+02  0.98389E-03
 0.68779999E+02  0.66561E-03
 0.68829994E+02  0.46063E-03
 0.68879997E+02  0.26398E-03
 0.68930000E+02 -0.68825E-04
 0.68979996E+02 -0.31759E-03
 0.69029999E+02 -0.22673E-03
 0.69079994E+02  0.71802E-04
 0.69129997E+02  0.40657E-03
 0.69180000E+02  0.52085E-03
 0.69229996E+02  0.17192E-03
 0.69279999E+02 -0.43747E-03
 0.69329994E+02 -0.96957E-03
 0.69379997E+02 -0.12956E-02
 0.69430000E+02 -0.14068E-02
 0.69479996E+02 -0.13110E-02
 0.69529999E+02 -0.10348E-02
 0.69579994E+02 -0.53645E-03
 0.69629997E+02  0.10802E-03
 0.69680000E+02  0.66614E-03
 0.69729996E+02  0.11295E-02
 0.69779999E+02  0.14807E-02
 0.69829994E+02  0.16266E-02
 0.69879997E+02  0.15699E-02
 0.69930000E+02  0.11582E-02
 0.69979996E+02  0.31663E-03
 0.70029999E+02 -0.54076E-03
 0.70079994E+02 -0.10760E-02
 0.70129997E+02 -0.13064E-02
 0.70180000E+02 -0.12694E-02
 0.70229996E+02 -0.10531E-02
 0.70279999E+02 -0.66612E-03
 0.70329994E+02 -0.10754E-03
 0.70379997E+02  0.34605E-03
 0.70430000E+02  0.47239E-03
 0.70479996E+02  0.39639E-03
 0.70529999E+02  0.22440E-03
 0.70579994E+02  0.10971E-04
 0.70629997E+02 -0.17970E-03
 0.70680000E+02 -0.43907E-03
 0.70729996E+02 -0.69916E-03
 0.70779999E+02 -0.70665E-03
 0.70829994E+02 -0.38500E-03
 0.70879997E+02 -0.53681E-04
 0.70930000E+02  0.52137E-05
 0.70979996E+02  0.40668E-04
 0.71029999E+02  0.15436E-03
 0.71079994E+02  0.18515E-03
 0.71129997E+02  0.14757E-03
 0.71180000E+02 -0.11467E-03
 0.71229996E+02 -0.63013E-03
 0.71279999E+02 -0.97009E-03
 0.71329994E+02 -0.78602E-03
 0.71379997E+02 -0.19974E-03
 0.71430000E+02  0.31183E-03
 0.71479996E+02  0.47665E-03
 0.71529999E+02  0.45938E-03
 0.71579994E+02  0.45833E-03
 0.71629997E+02  0.39192E-03
 0.71680000E+02  0.29948E-03
 0.71729996E+02  0.46926E-03
 0.71779999E+02  0.75991E-03
 0.71829994E+02  0.75216E-03
 0.71879997E+02  0.26042E-03
 0.71930000E+02 -0.44257E-03
 0.71979996E+02 -0.64056E-03
 0.72029999E+02 -0.16554E-03
 0.72079994E+02  0.38953E-03
 0.72129997E+02  0.67713E-03
 0.72180000E+02  0.80624E-03
 0.72229996E+02  0.81228E-03
 0.72279999E+02  0.57289E-03
 0.72329994E+02  0.37303E-04
 0.72379997E+02 -0.56567E-03
 0.72430000E+02 -0.86832E-03
 0.72479996E+02 -0.80961E-03
 0.72529999E+02 -0.50218E-03
 0.72579994E+02 -0.20181E-03
 0.72629997E+02 -0.14152E-03
 0.72680000E+02 -0.19741E-03
 0.72729996E+02 -0.13381E-03
 0.72779999E+02  0.89369E-04
 0.72829994E+02  0.30562E-03
 0.72879997E+02  0.41271E-03
 0.72930000E+02  0.35869E-03
 0.72979996E+02  0.29908E-03
 0.73029999E+02  0.36019E-03
 0.73079994E+02  0.35041E-03
 0.73129997E+02  0.17462E-03
 0.73180000E+02 -0.24162E-03
 0.73229996E+02 -0.74633E-03
 0.73279999E+02 -0.91117E-03
 0.73329994E+02 -0.69928E-03
 0.73379997E+02 -0.41866E-03
 0.73430000E+02 -0.26647E-03
 0.73479996E+02 -0.12301E-03
 0.73529999E+02  0.33662E-03
 0.73579994E+02  0.11052E-02
 0.73629997E+02  0.17281E-02
 0.73680000E+02  0.18462E-02
 0.73729996E+02  0.15796E-02
 0.73779999E+02  0.12716E-02
 0.73829994E+02  0.10649E-02
 0.73879997E+02  0.91553E-03
 0.73930000E+02  0.73363E-03
 0.73979996E+02  0.46474E-03
 0.74029999E+02  0.60124E-04
 0.74079994E+02 -0.43771E-03
 0.74129997E+02 -0.83201E-03
 0.74180000E+02 -0.11884E-02
 0.74229996E+02 -0.17862E-02
 0.74279999E+02 -0.25183E-02
 0.74329994E+02 -0.29791E-02
 0.74379997E+02 -0.28879E-02
 0.74430000E+02 -0.22355E-02
 0.74479996E+02 -0.12812E-02
 0.74529999E+02 -0.41298E-03
 0.74579994E+02  0.15455E-03
 0.74629997E+02  0.55270E-03
 0.74680000E+02  0.86132E-03
 0.74729996E+02  0.98080E-03
 0.74779999E+02  0.10078E-02
 0.74829994E+02  0.10423E-02
 0.74879997E+02  0.89657E-03
 0.74930000E+02  0.56040E-03
 0.74979996E+02  0.40265E-03
 0.75029999E+02  0.55603E-03
 0.75079994E+02  0.73430E-03
 0.75129997E+02  0.64003E-03
 0.75180000E+02  0.16842E-03
 0.75229996E+02 -0.50335E-03
 0.75279999E+02 -0.10547E-02
 0.75329994E+02 -0.12787E-02
 0.75379997E+02 -0.11461E-02
 0.75430000E+02 -0.82024E-03
 0.75479996E+02 -0.52406E-03
 0.75529999E+02 -0.31730E-03
 0.75579994E+02 -0.43867E-04
 0.75629997E+02  0.38689E-03
 0.75680000E+02  0.87380E-03
 0.75729996E+02  0.12564E-02
 0.75779999E+02  0.13619E-02
 0.75829994E+02  0.11917E-02
 0.75879997E+02  0.83270E-03
 0.75930000E+02  0.29538E-03
 0.75979996E+02 -0.18161E-03
 0.76029999E+02 -0.31548E-03
 0.76079994E+02 -0.19404E-03
 0.76129997E+02 -0.16808E-04
 0.76180000E+02  0.10855E-03
 0.76229996E+02  0.13694E-03
 0.76279999E+02  0.79231E-04
 0.76329994E+02  0.34113E-04
 0.76379997E+02  0.16320E-03
 0.76430000E+02  0.35179E-03
 0.76479996E+02  0.37006E-03
 0.76529999E+02  0.35398E-03
 0.76579994E+02  0.50996E-03
 0.76629997E+02  0.76321E-03
 0.76680000E+02  0.92235E-03
 0.76729996E+02  0.82553E-03
 0.76779999E+02  0.44263E-03
 0.76829994E+02 -0.86784E-04
 0.76879997E+02 -0.70224E-03
 0.76930000E+02 -0.13463E-02
 0.76979996E+02 -0.17566E-02
 0.77029999E+02 -0.18025E-02
 0.77079994E+02 -0.15725E-02
 0.77129997E+02 -0.10797E-02
 0.77180000E+02 -0.37053E-03
 0.77229996E+02  0.19147E-03
 0.77279999E+02  0.30196E-03
 0.77329994E+02  0.19727E-03
 0.77379997E+02  0.18262E-03
 0.77430000E+02  0.22181E-03
 0.77479996E+02  0.15853E-03
 0.77529999E+02 -0.11111E-03
 0.77579994E+02 -0.50487E-03
 0.77629997E+02 -0.81612E-03
 0.77680000E+02 -0.79016E-03
 0.77729996E+02 -0.22245E-03
 0.77779999E+02  0.71282E-03
 0.77829994E+02  0.15073E-02
 0.77879997E+02  0.18547E-02
 0.77930000E+02  0.18743E-02
 0.77979996E+02  0.16703E-02
 0.78029999E+02  0.12528E-02
 0.78079994E+02  0.76148E-03
 0.78129997E+02  0.27742E-03
 0.78180000E+02 -0.21017E-03
 0.78229996E+02 -0.63104E-03
 0.78279999E+02 -0.93996E-03
 0.78329994E+02 -0.11905E-02
 0.78379997E+02 -0.13547E-02
 0.78430000E+02 -0.13517E-02
 0.78479996E+02 -0.12571E-02
 0.78529999E+02 -0.11907E-02
 0.78579994E+02 -0.10816E-02
 0.78629997E+02 -0.86316E-03
 0.78680000E+02 -0.54559E-03
 0.78729996E+02 -0.83343E-04
 0.78779999E+02  0.41029E-03
 0.78829994E+02  0.74386E-03
 0.78879997E+02  0.84783E-03
 0.78930000E+02  0.70247E-03
 0.78979996E+02  0.46225E-03
 0.79029999E+02  0.38537E-03
 0.79079994E+02  0.48575E-03
 0.79129997E+02  0.59637E-03
 0.79180000E+02  0.59068E-03
 0.79229996E+02  0.41077E-03
 0.79279999E+02  0.16060E-03
 0.79329994E+02 -0.33472E-04
 0.79379997E+02 -0.23691E-03
 0.79430000E+02 -0.44079E-03
 0.79479996E+02 -0.46520E-03
 0.79529999E+02 -0.27977E-03
 0.79579994E+02 -0.80870E-04
 0.79629997E+02 -0.15779E-04
 0.79680000E+02  0.45534E-04
 0.79729996E+02  0.28864E-03
 0.79779999E+02  0.62085E-03
 0.79829994E+02  0.87347E-03
 0.79879997E+02  0.10072E-02
 0.79930000E+02  0.91745E-03
 0.79979996E+02  0.49943E-03
 0.80029999E+02 -0.43552E-04
 0.80079994E+02 -0.41737E-03
 0.80129997E+02 -0.68079E-03
 0.80180000E+02 -0.10270E-02
 0.80229996E+02 -0.14432E-02
 0.80279999E+02 -0.17199E-02
 0.80329994E+02 -0.16738E-02
 0.80379997E+02 -0.13359E-02
 0.80430000E+02 -0.84209E-03
 0.80479996E+02 -0.35737E-03
 0.80529999E+02  0.13510E-03
 0.80579994E+02  0.76415E-03
 0.80629997E+02  0.13779E-02
 0.80680000E+02  0.17555E-02
 0.80729996E+02  0.18171E-02
 0.80779999E+02  0.15563E-02
 0.80829994E+02  0.11214E-02
 0.80879997E+02  0.79297E-03
 0.80930000E+02  0.71483E-03
 0.80979996E+02  0.71957E-03
 0.81029999E+02  0.56741E-03
 0.81079994E+02  0.19207E-03
 0.81129997E+02 -0.27718E-03
 0.81180000E+02 -0.70022E-03
 0.81229996E+02 -0.10759E-02
 0.81279999E+02 -0.13841E-02
 0.81329994E+02 -0.15026E-02
 0.81379997E+02 -0.13733E-02
 0.81430000E+02 -0.11402E-02
 0.81479996E+02 -0.87707E-03
 0.81529999E+02 -0.50762E-03
 0.81579994E+02 -0.55923E-04
 0.81629997E+02  0.42281E-03
 0.81680000E+02  0.87626E-03
 0.81729996E+02  0.11694E-02
 0.81779999E+02  0.11267E-02
 0.81829994E+02  0.75108E-03
 0.81879997E+02  0.33917E-03
 0.81930000E+02  0.16831E-03
 0.81979996E+02  0.16112E-03
 0.82029999E+02  0.10953E-03
 0.82079994E+02  0.63888E-04
 0.82129997E+02  0.10173E-03
 0.82180000E+02  0.17831E-03
 0.82229996E+02  0.24304E-03
 0.82279999E+02  0.14817E-03
 0.82329994E+02 -0.17024E-03
 0.82379997E+02 -0.59654E-03
 0.82430000E+02 -0.10135E-02
 0.82479996E+02 -0.13133E-02
 0.82529999E+02 -0.13877E-02
 0.82579994E+02 -0.12116E-02
 0.82629997E+02 -0.88388E-03
 0.82680000E+02 -0.53207E-03
 0.82729996E+02 -0.18413E-03
 0.82779999E+02  0.17725E-03
 0.82829994E+02  0.48828E-03
 0.82879997E+02  0.66236E-03
 0.82930000E+02  0.64062E-03
 0.82979996E+02  0.52520E-03
 0.83029999E+02  0.46504E-03
 0.83079994E+02  0.40638E-03
 0.83129997E+02  0.37975E-03
 0.83180000E+02  0.53956E-03
 0.83229996E+02  0.85396E-03
 0.83279999E+02  0.10504E-02
 0.83329994E+02  0.94189E-03
 0.83379997E+02  0.62254E-03
 0.83430000E+02  0.18046E-03
 0.83479996E+02 -0.28067E-03
 0.83529999E+02 -0.59062E-03
 0.83579994E+02 -0.64913E-03
 0.83629997E+02 -0.39628E-03
 0.83680000E+02 -0.11767E-04
 0.83729996E+02  0.19060E-03
 0.83779999E+02  0.14336E-03
 0.83829994E+02 -0.63722E-04
 0.83879997E+02 -0.32054E-03
 0.83930000E+02 -0.52149E-03
 0.83979996E+02 -0.61004E-03
 0.84029999E+02 -0.56789E-03
 0.84079994E+02 -0.41456E-03
 0.84129997E+02 -0.21466E-03
 0.84180000E+02  0.16451E-04
 0.84229996E+02  0.28749E-03
 0.84279999E+02  0.47563E-03
 0.84329994E+02  0.47128E-03
 0.84379997E+02  0.34795E-03
 0.84430000E+02  0.24282E-03
 0.84479996E+02  0.19160E-03
 0.84529999E+02  0.21112E-03
 0.84579994E+02  0.36817E-03
 0.84629997E+02  0.57644E-03
 0.84680000E+02  0.62959E-03
 0.84729996E+02  0.42749E-03
 0.84779999E+02  0.42342E-05
 0.84829994E+02 -0.48882E-03
 0.84879997E+02 -0.88027E-03
 0.84930000E+02 -0.11277E-02
 0.84979996E+02 -0.12502E-02
 0.85029999E+02 -0.12929E-02
 0.85079994E+02 -0.12973E-02
 0.85129997E+02 -0.12405E-02
 0.85180000E+02 -0.11204E-02
 0.85229996E+02 -0.91279E-03
 0.85279999E+02 -0.56829E-03
 0.85329994E+02 -0.95278E-04
 0.85379997E+02  0.47641E-03
 0.85430000E+02  0.11059E-02
 0.85479996E+02  0.16931E-02
 0.85529999E+02  0.21630E-02
 0.85579994E+02  0.25099E-02
 0.85629997E+02  0.26055E-02
 0.85680000E+02  0.22911E-02
 0.85729996E+02  0.16198E-02
 0.85779999E+02  0.73424E-03
 0.85829994E+02 -0.18750E-03
 0.85879997E+02 -0.90198E-03
 0.85930000E+02 -0.12792E-02
 0.85979996E+02 -0.13682E-02
 0.86029999E+02 -0.13577E-02
 0.86079994E+02 -0.13898E-02
 0.86129997E+02 -0.14488E-02
 0.86180000E+02 -0.15138E-02
 0.86229996E+02 -0.15556E-02
 0.86279999E+02 -0.14772E-02
 0.86329994E+02 -0.11808E-02
 0.86379997E+02 -0.69604E-03
 0.86430000E+02 -0.10959E-03
 0.86479996E+02  0.51351E-03
 0.86529999E+02  0.10188E-02
 0.86579994E+02  0.12913E-02
 0.86629997E+02  0.13961E-02
 0.86680000E+02  0.14044E-02
 0.86729996E+02  0.13184E-02
 0.86779999E+02  0.11564E-02
 0.86829994E+02  0.92455E-03
 0.86879997E+02  0.65713E-03
 0.86930000E+02  0.40660E-03
 0.86979996E+02  0.16383E-03
 0.87029999E+02 -0.98644E-04
 0.87079994E+02 -0.40322E-03
 0.87129997E+02 -0.66626E-03
 0.87180000E+02 -0.71984E-03
 0.87229996E+02 -0.51465E-03
 0.87279999E+02 -0.18623E-03
 0.87329994E+02  0.34351E-04
 0.87379997E+02  0.10855E-04
 0.87430000E+02 -0.22253E-03
 0.87479996E+02 -0.54925E-03
 0.87529999E+02 -0.89655E-03
 0.87579994E+02 -0.11945E-02
 0.87629997E+02 -0.12888E-02
 0.87680000E+02 -0.11263E-02
 0.87729996E+02 -0.75732E-03
 0.87779999E+02 -0.17566E-03
 0.87829994E+02  0.57005E-03
 0.87879997E+02  0.12628E-02
 0.87930000E+02  0.16641E-02
 0.87979996E+02  0.17138E-02
 0.88029999E+02  0.14717E-02
 0.88079994E+02  0.97694E-03
 0.88129997E+02  0.24835E-03
 0.88180000E+02 -0.58388E-03
 0.88229996E+02 -0.12258E-02
 0.88279999E+02 -0.14821E-02
 0.88329994E+02 -0.13926E-02
 0.88379997E+02 -0.10475E-02
 0.88430000E+02 -0.54366E-03
 0.88479996E+02 -0.56292E-04
 0.88529999E+02  0.23962E-03
 0.88579994E+02  0.28898E-03
 0.88629997E+02  0.17033E-03
 0.88680000E+02  0.61747E-04
 0.88729996E+02  0.15943E-03
 0.88779999E+02  0.46783E-03
 0.88829994E+02  0.81800E-03
 0.88879997E+02  0.11053E-02
 0.88930000E+02  0.13135E-02
 0.88979996E+02  0.14128E-02
 0.89029999E+02  0.12955E-02
 0.89079994E+02  0.85310E-03
 0.89129997E+02  0.15048E-03
 0.89180000E+02 -0.51620E-03
 0.89229996E+02 -0.89722E-03
 0.89279999E+02 -0.99995E-03
 0.89329994E+02 -0.90463E-03
 0.89379997E+02 -0.70117E-03
 0.89430000E+02 -0.45534E-03
 0.89479996E+02 -0.20122E-03
 0.89529999E+02 -0.72191E-04
 0.89579994E+02 -0.18560E-03
 0.89629997E+02 -0.45153E-03
 0.89680000E+02 -0.69818E-03
 0.89729996E+02 -0.83556E-03
 0.89779999E+02 -0.76543E-03
 0.89829994E+02 -0.48579E-03
 0.89879997E+02 -0.13234E-03
 0.89930000E+02  0.20718E-03
 0.89979996E+02  0.44549E-03
 0.90029999E+02  0.54088E-03
 0.90079994E+02  0.49294E-03
 0.90129997E+02  0.29496E-03
 0.90180000E+02  0.73808E-04
 0.90229996E+02  0.41427E-04
 0.90279999E+02  0.29092E-03
 0.90329994E+02  0.62670E-03
 0.90379997E+02  0.81898E-03
 0.90430000E+02  0.82908E-03
 0.90479996E+02  0.63004E-03
 0.90529999E+02  0.24985E-03
 0.90579994E+02 -0.15196E-03
 0.90629997E+02 -0.38259E-03
 0.90680000E+02 -0.41353E-03
 0.90729996E+02 -0.34570E-03
 0.90779999E+02 -0.24281E-03
 0.90829994E+02 -0.14311E-03
 0.90879997E+02 -0.33215E-04
 0.90930000E+02  0.12344E-03
 0.90979996E+02  0.35967E-03
 0.91029999E+02  0.57809E-03
 0.91079994E+02  0.62065E-03
 0.91129997E+02  0.46156E-03
 0.91180000E+02  0.11347E-03
 0.91229996E+02 -0.34985E-03
 0.91279999E+02 -0.80042E-03
 0.91329994E+02 -0.11287E-02
 0.91379997E+02 -0.12992E-02
 0.91430000E+02 -0.13629E-02
 0.91479996E+02 -0.13062E-02
 0.91529999E+02 -0.10561E-02
 0.91579994E+02 -0.62539E-03
 0.91629997E+02 -0.15421E-03
 0.91680000E+02  0.24825E-03
 0.91729996E+02  0.55937E-03
 0.91779999E+02  0.71898E-03
 0.91829994E+02  0.70576E-03
 0.91879997E+02  0.62089E-03
 0.91930000E+02  0.56060E-03
 0.91979996E+02  0.55268E-03
 0.92029999E+02  0.61258E-03
 0.92079994E+02  0.73165E-03
 0.92129997E+02  0.90830E-03
 0.92180000E+02  0.11888E-02
 0.92229996E+02  0.15323E-02
 0.92279999E+02  0.17262E-02
 0.92329994E+02  0.15830E-02
 0.92379997E+02  0.11668E-02
 0.92430000E+02  0.65036E-03
 0.92479996E+02  0.79748E-04
 0.92529999E+02 -0.55419E-03
 0.92579994E+02 -0.11960E-02
 0.92629997E+02 -0.17646E-02
 0.92680000E+02 -0.21676E-02
 0.92729996E+02 -0.23348E-02
 0.92779999E+02 -0.22893E-02
 0.92829994E+02 -0.20596E-02
 0.92879997E+02 -0.16845E-02
 0.92930000E+02 -0.12414E-02
 0.92979996E+02 -0.74769E-03
 0.93029999E+02 -0.19324E-03
 0.93079994E+02  0.34793E-03
 0.93129997E+02  0.75577E-03
 0.93180000E+02  0.99249E-03
 0.93229996E+02  0.10807E-02
 0.93279999E+02  0.10771E-02
 0.93329994E+02  0.10229E-02
 0.93379997E+02  0.91252E-03
 0.93430000E+02  0.76604E-03
 0.93479996E+02  0.55504E-03
 0.93529999E+02  0.22438E-03
 0.93579994E+02 -0.16149E-03
 0.93629997E+02 -0.48313E-03
 0.93680000E+02 -0.67980E-03
 0.93729996E+02 -0.68072E-03
 0.93779999E+02 -0.43538E-03
 0.93829994E+02  0.16766E-04
 0.93879997E+02  0.59666E-03
 0.93930000E+02  0.11165E-02
 0.93979996E+02  0.14028E-02
 0.94029999E+02  0.14712E-02
 0.94079994E+02  0.13949E-02
 0.94129997E+02  0.12307E-02
 0.94180000E+02  0.98614E-03
 0.94229996E+02  0.62778E-03
 0.94279999E+02  0.18976E-03
 0.94329994E+02 -0.24527E-03
 0.94379997E+02 -0.60410E-03
 0.94430000E+02 -0.82267E-03
 0.94479996E+02 -0.90876E-03
 0.94529999E+02 -0.99633E-03
 0.94579994E+02 -0.11791E-02
 0.94629997E+02 -0.14118E-02
 0.94680000E+02 -0.16206E-02
 0.94729996E+02 -0.17266E-02
 0.94779999E+02 -0.16782E-02
 0.94829994E+02 -0.14974E-02
 0.94879997E+02 -0.12086E-02
 0.94930000E+02 -0.80347E-03
 0.94979996E+02 -0.25970E-03
 0.95029999E+02  0.37002E-03
 0.95079994E+02  0.94291E-03
 0.95129997E+02  0.13689E-02
 0.95180000E+02  0.16522E-02
 0.95229996E+02  0.18748E-02
 0.95279999E+02  0.20710E-02
 0.95329994E+02  0.21613E-02
 0.95379997E+02  0.20584E-02
 0.95430000E+02  0.17188E-02
 0.95479996E+02  0.11675E-02
 0.95529999E+02  0.48772E-03
 0.95579994E+02 -0.20541E-03
 0.95629997E+02 -0.81183E-03
 0.95680000E+02 -0.12499E-02
 0.95729996E+02 -0.14790E-02
 0.95779999E+02 -0.15129E-02
 0.95829994E+02 -0.13870E-02
 0.95879997E+02 -0.11985E-02
 0.95930000E+02 -0.10140E-02
 0.95979996E+02 -0.85919E-03
 0.96029999E+02 -0.75937E-03
 0.96079994E+02 -0.65715E-03
 0.96129997E+02 -0.52476E-03
 0.96180000E+02 -0.40287E-03
 0.96229996E+02 -0.27564E-03
 0.96279999E+02 -0.60209E-04
 0.96329994E+02  0.28781E-03
 0.96379997E+02  0.70968E-03
 0.96430000E+02  0.10946E-02
 0.96479996E+02  0.13006E-02
 0.96529999E+02  0.12601E-02
 0.96579994E+02  0.10262E-02
 0.96629997E+02  0.67703E-03
 0.96680000E+02  0.31974E-03
 0.96729996E+02  0.22918E-04
 0.96779999E+02 -0.20819E-03
 0.96829994E+02 -0.39602E-03
 0.96879997E+02 -0.59199E-03
 0.96930000E+02 -0.76034E-03
 0.96979996E+02 -0.81506E-03
 0.97029999E+02 -0.75231E-03
 0.97079994E+02 -0.62250E-03
 0.97129997E+02 -0.47085E-03
 0.97180000E+02 -0.28211E-03
 0.97229996E+02 -0.15919E-04
 0.97279999E+02  0.28606E-03
 0.97329994E+02  0.53530E-03
 0.97379997E+02  0.69812E-03
 0.97430000E+02  0.78611E-03
 0.97479996E+02  0.78339E-03
 0.97529999E+02  0.63425E-03
 0.97579994E+02  0.34266E-03
 0.97629997E+02  0.25202E-04
 0.97680000E+02 -0.18604E-03
 0.97729996E+02 -0.23632E-03
 0.97779999E+02 -0.16035E-03
 0.97829994E+02 -0.12637E-04
 0.97879997E+02  0.15475E-03
 0.97930000E+02  0.25157E-03
 0.97979996E+02  0.23308E-03
 0.98029999E+02  0.14870E-03
 0.98079994E+02  0.78242E-04
 0.98129997E+02  0.56219E-04
 0.98180000E+02  0.25562E-04
 0.98229996E+02 -0.54436E-04
 0.98279999E+02 -0.17284E-03
 0.98329994E+02 -0.32625E-03
 0.98379997E+02 -0.45542E-03
 0.98430000E+02 -0.47605E-03
 0.98479996E+02 -0.39282E-03
 0.98529999E+02 -0.29515E-03
 0.98579994E+02 -0.25893E-03
 0.98629997E+02 -0.29660E-03
 0.98680000E+02 -0.36658E-03
 0.98729996E+02 -0.38567E-03
 0.98779999E+02 -0.31728E-03
 0.98829994E+02 -0.17017E-03
 0.98879997E+02  0.16186E-04
 0.98930000E+02  0.13331E-03
 0.98979996E+02  0.15387E-03
 0.99029999E+02  0.15753E-03
 0.99079994E+02  0.23576E-03
 0.99129997E+02  0.43288E-03
 0.99180000E+02  0.65970E-03
 0.99229996E+02  0.80311E-03
 0.99279999E+02  0.81321E-03
 0.99329994E+02  0.69438E-03
 0.99379997E+02  0.49627E-03
 0.99430000E+02  0.27476E-03
 0.99479996E+02  0.91090E-04
 0.99529999E+02 -0.30044E-04
 0.99579994E+02 -0.13026E-03
 0.99629997E+02 -0.28604E-03
 0.99680000E+02 -0.48363E-03
 0.99729996E+02 -0.65370E-03
 0.99779999E+02 -0.80475E-03
 0.99829994E+02 -0.91020E-03
 0.99879997E+02 -0.88487E-03
 0.99930000E+02 -0.70680E-03
 0.99979996E+02 -0.44405E-03
 0.10003000E+03 -0.17422E-03
 0.10007999E+03  0.86290E-04
 0.10013000E+03  0.36027E-03
 0.10018000E+03  0.63819E-03
 0.10023000E+03  0.85951E-03
 0.10028000E+03  0.10098E-02
 0.10032999E+03  0.11010E-02
 0.10038000E+03  0.10627E-02
 0.10043000E+03  0.80910E-03
 0.10048000E+03  0.34858E-03
 0.10053000E+03 -0.21461E-03
 0.10057999E+03 -0.71760E-03
 0.10063000E+03 -0.10327E-02
 0.10068000E+03 -0.11484E-02
 0.10073000E+03 -0.11166E-02
 0.10078000E+03 -0.97076E-03
 0.10082999E+03 -0.73411E-03
 0.10088000E+03 -0.45860E-03
 0.10093000E+03 -0.18505E-03
 0.10098000E+03  0.61882E-04
 0.10103000E+03  0.23324E-03
 0.10107999E+03  0.32140E-03
 0.10113000E+03  0.38112E-03
 0.10118000E+03  0.46091E-03
 0.10123000E+03  0.55140E-03
 0.10128000E+03  0.60704E-03
 0.10132999E+03  0.64490E-03
 0.10138000E+03  0.68548E-03
 0.10143000E+03  0.67202E-03
 0.10148000E+03  0.53473E-03
 0.10153000E+03  0.24361E-03
 0.10157999E+03 -0.14293E-03
 0.10163000E+03 -0.47312E-03
 0.10168000E+03 -0.58972E-03
 0.10173000E+03 -0.48574E-03
 0.10178000E+03 -0.28212E-03
 0.10182999E+03 -0.76524E-04
 0.10188000E+03  0.58846E-04
 0.10193000E+03  0.12753E-03
 0.10198000E+03  0.20085E-03
 0.10203000E+03  0.28460E-03
 0.10207999E+03  0.31014E-03
 0.10213000E+03  0.21997E-03
 0.10218000E+03  0.35698E-04
 0.10223000E+03 -0.18837E-03
 0.10228000E+03 -0.38525E-03
 0.10232999E+03 -0.48988E-03
 0.10238000E+03 -0.50027E-03
 0.10243000E+03 -0.45321E-03
 0.10248000E+03 -0.39658E-03
 0.10253000E+03 -0.37320E-03
 0.10257999E+03 -0.40185E-03
 0.10263000E+03 -0.43494E-03
 0.10268000E+03 -0.39315E-03
 0.10273000E+03 -0.25997E-03
 0.10278000E+03 -0.64087E-04
 0.10282999E+03  0.13770E-03
 0.10288000E+03  0.28840E-03
 0.10293000E+03  0.39624E-03
 0.10298000E+03  0.49016E-03
 0.10303000E+03  0.57614E-03
 0.10307999E+03  0.67509E-03
 0.10313000E+03  0.78998E-03
 0.10318000E+03  0.88036E-03
 0.10323000E+03  0.89008E-03
 0.10328000E+03  0.74290E-03
 0.10332999E+03  0.40464E-03
 0.10338000E+03 -0.43987E-04
 0.10343000E+03 -0.47752E-03
 0.10348000E+03 -0.81131E-03
 0.10353000E+03 -0.98607E-03
 0.10357999E+03 -0.97349E-03
 0.10363000E+03 -0.79935E-03
 0.10368000E+03 -0.52804E-03
 0.10373000E+03 -0.23744E-03
 0.10378000E+03  0.39354E-04
 0.10382999E+03  0.28707E-03
 0.10388000E+03  0.43927E-03
 0.10393000E+03  0.44883E-03
 0.10398000E+03  0.34558E-03
 0.10403000E+03  0.19936E-03
 0.10407999E+03  0.71283E-04
 0.10413000E+03 -0.16881E-04
 0.10418000E+03 -0.40194E-04
 0.10423000E+03  0.22061E-04
 0.10428000E+03  0.92656E-04
 0.10432999E+03  0.79901E-04
 0.10438000E+03  0.58750E-05
 0.10443000E+03 -0.78560E-04
 0.10448000E+03 -0.14355E-03
 0.10453000E+03 -0.15562E-03
 0.10457999E+03 -0.11627E-03
 0.10463000E+03 -0.65697E-04
 0.10468000E+03 -0.60841E-04
 0.10473000E+03 -0.11428E-03
 0.10478000E+03 -0.17720E-03
 0.10482999E+03 -0.22036E-03
 0.10488000E+03 -0.24475E-03
 0.10493000E+03 -0.23440E-03
 0.10498000E+03 -0.13662E-03
 0.10503000E+03  0.73594E-04
 0.10507999E+03  0.34202E-03
 0.10513000E+03  0.57344E-03
 0.10518000E+03  0.67233E-03
 0.10523000E+03  0.62412E-03
 0.10528000E+03  0.48972E-03
 0.10532999E+03  0.30933E-03
 0.10538000E+03  0.99188E-04
 0.10543000E+03 -0.13363E-03
 0.10548000E+03 -0.37471E-03
 0.10553000E+03 -0.58346E-03
 0.10557999E+03 -0.69935E-03
 0.10563000E+03 -0.69189E-03
 0.10568000E+03 -0.57118E-03
 0.10573000E+03 -0.31854E-03
 0.10578000E+03  0.27538E-04
 0.10582999E+03  0.31609E-03
 0.10588000E+03  0.42950E-03
 0.10593000E+03  0.36564E-03
 0.10598000E+03  0.22323E-03
 0.10603000E+03  0.89826E-04
 0.10607999E+03 -0.43450E-04
 0.10613000E+03 -0.20355E-03
 0.10618000E+03 -0.39506E-03
 0.10623000E+03 -0.56134E-03
 0.10628000E+03 -0.58694E-03
 0.10632999E+03 -0.44172E-03
 0.10638000E+03 -0.17085E-03
 0.10643000E+03  0.17793E-03
 0.10648000E+03  0.52484E-03
 0.10653000E+03  0.78929E-03
 0.10657999E+03  0.92655E-03
 0.10663000E+03  0.92796E-03
 0.10668000E+03  0.81539E-03
 0.10673000E+03  0.61056E-03
 0.10678000E+03  0.34021E-03
 0.10682999E+03  0.65995E-04
 0.10688000E+03 -0.16913E-03
 0.10693000E+03 -0.36483E-03
 0.10698000E+03 -0.50507E-03
 0.10703000E+03 -0.58142E-03
 0.10707999E+03 -0.62025E-03
 0.10713000E+03 -0.65472E-03
 0.10718000E+03 -0.71658E-03
 0.10723000E+03 -0.80995E-03
 0.10728000E+03 -0.86762E-03
 0.10732999E+03 -0.80061E-03
 0.10738000E+03 -0.57490E-03
 0.10743000E+03 -0.21165E-03
 0.10748000E+03  0.22071E-03
 0.10753000E+03  0.63653E-03
 0.10757999E+03  0.98826E-03
 0.10763000E+03  0.12673E-02
 0.10768000E+03  0.14393E-02
 0.10773000E+03  0.14556E-02
 0.10778000E+03  0.13032E-02
 0.10782999E+03  0.98830E-03
 0.10788000E+03  0.57115E-03
 0.10793000E+03  0.15257E-03
 0.10798000E+03 -0.21630E-03
 0.10803000E+03 -0.53948E-03
 0.10807999E+03 -0.82156E-03
 0.10813000E+03 -0.10371E-02
 0.10818000E+03 -0.11626E-02
 0.10823000E+03 -0.11815E-02
 0.10828000E+03 -0.10827E-02
 0.10832999E+03 -0.89611E-03
 0.10838000E+03 -0.66654E-03
 0.10843000E+03 -0.40420E-03
 0.10848000E+03 -0.81096E-04
 0.10853000E+03  0.28567E-03
 0.10857999E+03  0.60148E-03
 0.10863000E+03  0.78304E-03
 0.10868000E+03  0.81231E-03
 0.10873000E+03  0.72369E-03
 0.10878000E+03  0.54160E-03
 0.10882999E+03  0.29686E-03
 0.10888000E+03  0.58891E-04
 0.10893000E+03 -0.15225E-03
 0.10898000E+03 -0.34926E-03
 0.10903000E+03 -0.48867E-03
 0.10907999E+03 -0.50979E-03
 0.10913000E+03 -0.41098E-03
 0.10918000E+03 -0.25632E-03
 0.10923000E+03 -0.96285E-04
 0.10928000E+03  0.68308E-04
 0.10932999E+03  0.21902E-03
 0.10938000E+03  0.31382E-03
 0.10943000E+03  0.33028E-03
 0.10948000E+03  0.26516E-03
 0.10953000E+03  0.12683E-03
 0.10957999E+03 -0.43129E-04
 0.10963000E+03 -0.16837E-03
 0.10968000E+03 -0.18862E-03
 0.10973000E+03 -0.10019E-03
 0.10978000E+03  0.50069E-04
 0.10982999E+03  0.21300E-03
 0.10988000E+03  0.35262E-03
 0.10993000E+03  0.42195E-03
 0.10998000E+03  0.37701E-03
 0.11003000E+03  0.22450E-03
 0.11007999E+03  0.42372E-04
 0.11013000E+03 -0.92508E-04
 0.11018000E+03 -0.16871E-03
 0.11023000E+03 -0.20341E-03
 0.11028000E+03 -0.20796E-03
 0.11032999E+03 -0.18113E-03
 0.11038000E+03 -0.10160E-03
 0.11043000E+03  0.16679E-04
 0.11048000E+03  0.82704E-04
 0.11053000E+03  0.33513E-04
 0.11057999E+03 -0.94806E-04
 0.11063000E+03 -0.24884E-03
 0.11068000E+03 -0.38168E-03
 0.11073000E+03 -0.44637E-03
 0.11078000E+03 -0.43609E-03
 0.11082999E+03 -0.35783E-03
 0.11088000E+03 -0.21082E-03
 0.11093000E+03  0.61642E-05
 0.11098000E+03  0.26768E-03
 0.11103000E+03  0.50581E-03
 0.11107999E+03  0.65941E-03
 0.11113000E+03  0.71587E-03
 0.11118000E+03  0.69320E-03
 0.11123000E+03  0.58429E-03
 0.11128000E+03  0.38980E-03
 0.11132999E+03  0.16762E-03
 0.11138000E+03 -0.14779E-04
 0.11143000E+03 -0.15275E-03
 0.11148000E+03 -0.28507E-03
 0.11153000E+03 -0.42085E-03
 0.11157999E+03 -0.54049E-03
 0.11163000E+03 -0.61085E-03
 0.11168000E+03 -0.60411E-03
 0.11173000E+03 -0.51896E-03
 0.11178000E+03 -0.36977E-03
 0.11182999E+03 -0.16952E-03
 0.11188000E+03  0.48026E-04
 0.11193000E+03  0.23370E-03
 0.11198000E+03  0.35439E-03
 0.11203000E+03  0.38731E-03
 0.11207999E+03  0.33581E-03
 0.11213000E+03  0.21496E-03
 0.11218000E+03  0.59203E-04
 0.11223000E+03 -0.73200E-04
 0.11228000E+03 -0.13682E-03
 0.11232999E+03 -0.12222E-03
 0.11238000E+03 -0.69177E-04
 0.11243000E+03 -0.10310E-06
 0.11248000E+03  0.93763E-04
 0.11253000E+03  0.18633E-03
 0.11257999E+03  0.22557E-03
 0.11263000E+03  0.19421E-03
 0.11268000E+03  0.12193E-03
 0.11273000E+03  0.39271E-04
 0.11278000E+03 -0.44175E-04
 0.11282999E+03 -0.13427E-03
 0.11288000E+03 -0.22361E-03
 0.11293000E+03 -0.27656E-03
 0.11298000E+03 -0.27507E-03
 0.11303000E+03 -0.23024E-03
 0.11307999E+03 -0.15292E-03
 0.11313000E+03 -0.41066E-04
 0.11318000E+03  0.93754E-04
 0.11323000E+03  0.18651E-03
 0.11328000E+03  0.17227E-03
 0.11332999E+03  0.53176E-04
 0.11338000E+03 -0.12215E-03
 0.11343000E+03 -0.30427E-03
 0.11348000E+03 -0.46007E-03
 0.11353000E+03 -0.54387E-03
 0.11357999E+03 -0.49342E-03
 0.11363000E+03 -0.28276E-03
 0.11368000E+03  0.44387E-04
 0.11373000E+03  0.41017E-03
 0.11378000E+03  0.74064E-03
 0.11382999E+03  0.96711E-03
 0.11388000E+03  0.10556E-02
 0.11393000E+03  0.10130E-02
 0.11398000E+03  0.85865E-03
 0.11403000E+03  0.62121E-03
 0.11407999E+03  0.35339E-03
 0.11413000E+03  0.10980E-03
 0.11418000E+03 -0.11188E-03
 0.11423000E+03 -0.31835E-03
 0.11428000E+03 -0.47095E-03
 0.11432999E+03 -0.55110E-03
 0.11438000E+03 -0.59274E-03
 0.11443000E+03 -0.64662E-03
 0.11448000E+03 -0.71876E-03
 0.11453000E+03 -0.75736E-03
 0.11457999E+03 -0.70742E-03
 0.11463000E+03 -0.56952E-03
 0.11468000E+03 -0.38737E-03
 0.11473000E+03 -0.18931E-03
 0.11478000E+03 -0.30391E-06
 0.11482999E+03  0.13524E-03
 0.11488000E+03  0.18839E-03
 0.11493000E+03  0.16631E-03
 0.11498000E+03  0.10094E-03
 0.11503000E+03  0.33264E-04
 0.11507999E+03 -0.33004E-05
 0.11513000E+03  0.65465E-05
 0.11518000E+03  0.63732E-04
 0.11523000E+03  0.16315E-03
 0.11528000E+03  0.28611E-03
 0.11532999E+03  0.39188E-03
 0.11538000E+03  0.45872E-03
 0.11543000E+03  0.50672E-03
 0.11548000E+03  0.54482E-03
 0.11553000E+03  0.56025E-03
 0.11557999E+03  0.53274E-03
 0.11563000E+03  0.42830E-03
 0.11568000E+03  0.25597E-03
 0.11573000E+03  0.82168E-04
 0.11578000E+03 -0.36603E-04
 0.11582999E+03 -0.89957E-04
 0.11588000E+03 -0.10751E-03
 0.11593000E+03 -0.11677E-03
 0.11598000E+03 -0.13270E-03
 0.11603000E+03 -0.15238E-03
 0.11607999E+03 -0.17265E-03
 0.11613000E+03 -0.23213E-03
 0.11618000E+03 -0.34945E-03
 0.11623000E+03 -0.51298E-03
 0.11628000E+03 -0.69682E-03
 0.11632999E+03 -0.83537E-03
 0.11638000E+03 -0.87224E-03
 0.11643000E+03 -0.78560E-03
 0.11648000E+03 -0.58352E-03
 0.11653000E+03 -0.28400E-03
 0.11657999E+03  0.78827E-04
 0.11663000E+03  0.42919E-03
 0.11668000E+03  0.68887E-03
 0.11673000E+03  0.79944E-03
 0.11678000E+03  0.75481E-03
 0.11682999E+03  0.60797E-03
 0.11688000E+03  0.42171E-03
 0.11693000E+03  0.23322E-03
 0.11698000E+03  0.52251E-04
 0.11703000E+03 -0.10056E-03
 0.11707999E+03 -0.21318E-03
 0.11713000E+03 -0.29654E-03
 0.11718000E+03 -0.34989E-03
 0.11723000E+03 -0.35451E-03
 0.11728000E+03 -0.29870E-03
 0.11732999E+03 -0.21179E-03
 0.11738000E+03 -0.13300E-03
 0.11743000E+03 -0.78507E-04
 0.11748000E+03 -0.39171E-04
 0.11753000E+03  0.44546E-05
 0.11757999E+03  0.56944E-04
 0.11763000E+03  0.12769E-03
 0.11768000E+03  0.23191E-03
 0.11773000E+03  0.36500E-03
 0.11778000E+03  0.48824E-03
 0.11782999E+03  0.55241E-03
 0.11788000E+03  0.53032E-03
 0.11793000E+03  0.42320E-03
 0.11798000E+03  0.27265E-03
 0.11803000E+03  0.13008E-03
 0.11807999E+03  0.25715E-04
 0.11813000E+03 -0.29933E-04
 0.11818000E+03 -0.56933E-04
 0.11823000E+03 -0.73615E-04
 0.11828000E+03 -0.94781E-04
 0.11832999E+03 -0.14777E-03
 0.11838000E+03 -0.22718E-03
 0.11843000E+03 -0.31626E-03
 0.11848000E+03 -0.40587E-03
 0.11853000E+03 -0.47186E-03
 0.11857999E+03 -0.49113E-03
 0.11863000E+03 -0.44540E-03
 0.11868000E+03 -0.32892E-03
 0.11873000E+03 -0.15888E-03
 0.11878000E+03  0.26619E-04
 0.11882999E+03  0.18277E-03
 0.11888000E+03  0.28470E-03
 0.11893000E+03  0.32695E-03
 0.11898000E+03  0.31861E-03
 0.11903000E+03  0.27968E-03
 0.11907999E+03  0.23225E-03
 0.11913000E+03  0.19427E-03
 0.11918000E+03  0.16201E-03
 0.11923000E+03  0.12013E-03
 0.11928000E+03  0.70029E-04
 0.11932999E+03  0.26695E-04
 0.11938000E+03 -0.17076E-04
 0.11943000E+03 -0.76815E-04
 0.11948000E+03 -0.14011E-03
 0.11953000E+03 -0.19074E-03
 0.11957999E+03 -0.21457E-03
 0.11963000E+03 -0.20564E-03
 0.11968000E+03 -0.17868E-03
 0.11973000E+03 -0.14311E-03
 0.11978000E+03 -0.88966E-04
 0.11982999E+03 -0.16072E-04
 0.11988000E+03  0.51306E-04
 0.11993000E+03  0.80800E-04
 0.11998000E+03  0.50363E-04
 0.12003000E+03 -0.23067E-04
 0.12007999E+03 -0.10109E-03
 0.12013000E+03 -0.14862E-03
 0.12018000E+03 -0.13632E-03
 0.12023000E+03 -0.64178E-04
 0.12028000E+03  0.33125E-04
 0.12032999E+03  0.10434E-03
 0.12038000E+03  0.11173E-03
 0.12043000E+03  0.54379E-04
 0.12048000E+03 -0.32375E-04
 0.12053000E+03 -0.10977E-03
 0.12057999E+03 -0.15551E-03
 0.12063000E+03 -0.15426E-03
 0.12068000E+03 -0.10353E-03
 0.12073000E+03 -0.15903E-04
 0.12078000E+03  0.72483E-04
 0.12082999E+03  0.13555E-03
 0.12088000E+03  0.18682E-03
 0.12093000E+03  0.23314E-03
 0.12098000E+03  0.26384E-03
 0.12103000E+03  0.26576E-03
 0.12107999E+03  0.23787E-03
 0.12113000E+03  0.20179E-03
 0.12118000E+03  0.18135E-03
 0.12123000E+03  0.18837E-03
 0.12128000E+03  0.21757E-03
 0.12132999E+03  0.24902E-03
 0.12138000E+03  0.26029E-03
 0.12143000E+03  0.23771E-03
 0.12148000E+03  0.19356E-03
 0.12153000E+03  0.15404E-03
 0.12157999E+03  0.11926E-03
 0.12163000E+03  0.63806E-04
 0.12168000E+03 -0.40572E-04
 0.12173000E+03 -0.19239E-03
 0.12178000E+03 -0.34405E-03
 0.12182999E+03 -0.44942E-03
 0.12188000E+03 -0.49606E-03
 0.12193000E+03 -0.49181E-03
 0.12198000E+03 -0.45866E-03
 0.12203000E+03 -0.42610E-03
 0.12207999E+03 -0.39634E-03
 0.12213000E+03 -0.34428E-03
 0.12218000E+03 -0.27273E-03
 0.12223000E+03 -0.20210E-03
 0.12228000E+03 -0.13383E-03
 0.12232999E+03 -0.66849E-04
 0.12238000E+03 -0.66926E-05
 0.12243000E+03  0.34265E-04
 0.12248000E+03  0.53496E-04
 0.12253000E+03  0.70206E-04
 0.12257999E+03  0.10224E-03
 0.12263000E+03  0.15100E-03
 0.12268000E+03  0.19952E-03
 0.12273000E+03  0.22304E-03
 0.12278000E+03  0.21110E-03
 0.12282999E+03  0.17844E-03
 0.12288000E+03  0.15129E-03
 0.12293000E+03  0.14178E-03
 0.12298000E+03  0.14709E-03
 0.12303000E+03  0.16570E-03
 0.12307999E+03  0.19342E-03
 0.12313000E+03  0.21295E-03
 0.12318000E+03  0.20189E-03
 0.12323000E+03  0.16551E-03
 0.12328000E+03  0.13458E-03
 0.12332999E+03  0.10888E-03
 0.12338000E+03  0.63324E-04
 0.12343000E+03 -0.32521E-05
 0.12348000E+03 -0.75846E-04
 0.12353000E+03 -0.14258E-03
 0.12357999E+03 -0.17970E-03
 0.12363000E+03 -0.16426E-03
 0.12368000E+03 -0.11047E-03
 0.12373000E+03 -0.56381E-04
 0.12378000E+03 -0.31240E-04
 0.12382999E+03 -0.40150E-04
 0.12388000E+03 -0.62291E-04
 0.12393000E+03 -0.66712E-04
 0.12398000E+03 -0.41388E-04
 0.12403000E+03 -0.11912E-04
 0.12407999E+03 -0.14873E-04
 0.12413000E+03 -0.52512E-04
 0.12418000E+03 -0.10212E-03
 0.12423000E+03 -0.14042E-03
 0.12428000E+03 -0.13726E-03
 0.12432999E+03 -0.69631E-04
 0.12438000E+03  0.43142E-04
 0.12443000E+03  0.13419E-03
 0.12448000E+03  0.15661E-03
 0.12453000E+03  0.11409E-03
 0.12457999E+03  0.29528E-04
 0.12463000E+03 -0.56112E-04
 0.12468000E+03 -0.11358E-03
 0.12473000E+03 -0.14415E-03
 0.12478000E+03 -0.15197E-03
 0.12482999E+03 -0.13560E-03
 0.12488000E+03 -0.94349E-04
 0.12493000E+03 -0.43991E-04
 0.12498000E+03 -0.34180E-05
 0.12503000E+03  0.40240E-04
 0.12507999E+03  0.96999E-04
 0.12513000E+03  0.14467E-03
 0.12518000E+03  0.16285E-03
 0.12523000E+03  0.14601E-03
 0.12528000E+03  0.11053E-03
 0.12532999E+03  0.89245E-04
 0.12538000E+03  0.91166E-04
 0.12543000E+03  0.95863E-04
 0.12548000E+03  0.91630E-04
 0.12553000E+03  0.91410E-04
 0.12557999E+03  0.11036E-03
 0.12563000E+03  0.14325E-03
 0.12568000E+03  0.16849E-03
 0.12573000E+03  0.17111E-03
 0.12578000E+03  0.15263E-03
 0.12582999E+03  0.12504E-03
 0.12588000E+03  0.10902E-03
 0.12593000E+03  0.12043E-03
 0.12598000E+03  0.14985E-03
 0.12603000E+03  0.16500E-03
 0.12607999E+03  0.13780E-03
 0.12613000E+03  0.60658E-04
 0.12618000E+03 -0.67280E-04
 0.12623000E+03 -0.22943E-03
 0.12628000E+03 -0.39466E-03
 0.12632999E+03 -0.54279E-03
 0.12638000E+03 -0.65532E-03
 0.12643000E+03 -0.71178E-03
 0.12648000E+03 -0.69753E-03
 0.12653000E+03 -0.61216E-03
 0.12657999E+03 -0.46651E-03
 0.12663000E+03 -0.28714E-03
 0.12668000E+03 -0.10347E-03
 0.12673000E+03  0.79235E-04
 0.12678000E+03  0.25103E-03
 0.12682999E+03  0.37728E-03
 0.12688000E+03  0.42496E-03
 0.12693000E+03  0.40057E-03
 0.12698000E+03  0.34652E-03
 0.12703000E+03  0.30387E-03
 0.12707999E+03  0.29115E-03
 0.12713000E+03  0.29107E-03
 0.12718000E+03  0.26693E-03
 0.12723000E+03  0.20371E-03
 0.12728000E+03  0.11267E-03
 0.12732999E+03  0.93710E-05
 0.12738000E+03 -0.95103E-04
 0.12743000E+03 -0.18702E-03
 0.12748000E+03 -0.24062E-03
 0.12753000E+03 -0.24489E-03
 0.12757999E+03 -0.21179E-03
 0.12763000E+03 -0.14743E-03
 0.12768000E+03 -0.62843E-04
 0.12773000E+03  0.17232E-04
 0.12778000E+03  0.66245E-04
 0.12782999E+03  0.70030E-04
 0.12788000E+03  0.54230E-04
 0.12793000E+03  0.60833E-04
 0.12798000E+03  0.90809E-04
 0.12803000E+03  0.11269E-03
 0.12808000E+03  0.10970E-03
 0.12813000E+03  0.95177E-04
 0.12817999E+03  0.82076E-04
 0.12823000E+03  0.63416E-04
 0.12828000E+03  0.38741E-04
 0.12833000E+03  0.19138E-04
 0.12838000E+03  0.11506E-04
 0.12842999E+03  0.23227E-04
 0.12848000E+03  0.65712E-04
 0.12853000E+03  0.12982E-03
 0.12858000E+03  0.18613E-03
 0.12863000E+03  0.21222E-03
 0.12867999E+03  0.19022E-03
 0.12873000E+03  0.12533E-03
 0.12878000E+03  0.44467E-04
 0.12883000E+03 -0.36322E-04
 0.12888000E+03 -0.10979E-03
 0.12892999E+03 -0.17069E-03
 0.12898000E+03 -0.21850E-03
 0.12903000E+03 -0.25644E-03
 0.12908000E+03 -0.28349E-03
 0.12913000E+03 -0.29900E-03
 0.12917999E+03 -0.30140E-03
 0.12923000E+03 -0.27923E-03
 0.12928000E+03 -0.21800E-03
 0.12933000E+03 -0.11658E-03
 0.12938000E+03  0.30328E-05
 0.12942999E+03  0.11281E-03
 0.12948000E+03  0.19917E-03
 0.12953000E+03  0.25849E-03
 0.12958000E+03  0.27775E-03
 0.12963000E+03  0.23525E-03
 0.12967999E+03  0.13479E-03
 0.12973000E+03  0.11110E-04
 0.12978000E+03 -0.10542E-03
 0.12983000E+03 -0.19582E-03
 0.12988000E+03 -0.25002E-03
 0.12992999E+03 -0.25800E-03
 0.12998000E+03 -0.20681E-03
 0.13003000E+03 -0.10604E-03
 0.13008000E+03  0.21180E-04
 0.13013000E+03  0.15630E-03
 0.13017999E+03  0.27739E-03
 0.13023000E+03  0.36927E-03
 0.13028000E+03  0.42693E-03
 0.13033000E+03  0.43408E-03
 0.13038000E+03  0.38074E-03
 0.13042999E+03  0.28294E-03
 0.13048000E+03  0.15839E-03
 0.13053000E+03  0.15553E-04
 0.13058000E+03 -0.13636E-03
 0.13063000E+03 -0.28415E-03
 0.13067999E+03 -0.40376E-03
 0.13073000E+03 -0.47082E-03
 0.13078000E+03 -0.48277E-03
 0.13083000E+03 -0.44839E-03
 0.13088000E+03 -0.37485E-03
 0.13092999E+03 -0.27356E-03
 0.13098000E+03 -0.16955E-03
 0.13103000E+03 -0.78321E-04
 0.13108000E+03  0.14358E-04
 0.13113000E+03  0.11873E-03
 0.13117999E+03  0.21946E-03
 0.13123000E+03  0.29752E-03
 0.13128000E+03  0.34083E-03
 0.13133000E+03  0.34454E-03
 0.13138000E+03  0.31756E-03
 0.13142999E+03  0.26926E-03
 0.13148000E+03  0.20993E-03
 0.13153000E+03  0.14190E-03
 0.13158000E+03  0.52717E-04
 0.13163000E+03 -0.55094E-04
 0.13167999E+03 -0.16014E-03
 0.13173000E+03 -0.23620E-03
 0.13178000E+03 -0.27412E-03
 0.13183000E+03 -0.28558E-03
 0.13188000E+03 -0.28045E-03
 0.13192999E+03 -0.25918E-03
 0.13198000E+03 -0.21894E-03
 0.13203000E+03 -0.16318E-03
 0.13208000E+03 -0.10619E-03
 0.13213000E+03 -0.52525E-04
 0.13217999E+03  0.16276E-04
 0.13223000E+03  0.10616E-03
 0.13228000E+03  0.19378E-03
 0.13233000E+03  0.25148E-03
 0.13238000E+03  0.26914E-03
 0.13242999E+03  0.25100E-03
 0.13248000E+03  0.20473E-03
 0.13253000E+03  0.14701E-03
 0.13258000E+03  0.95289E-04
 0.13263000E+03  0.45655E-04
 0.13267999E+03 -0.11599E-04
 0.13273000E+03 -0.60081E-04
 0.13278000E+03 -0.89664E-04
 0.13283000E+03 -0.11085E-03
 0.13288000E+03 -0.11775E-03
 0.13292999E+03 -0.94342E-04
 0.13298000E+03 -0.40453E-04
 0.13303000E+03  0.31414E-04
 0.13308000E+03  0.10960E-03
 0.13313000E+03  0.17414E-03
 0.13317999E+03  0.21101E-03
 0.13323000E+03  0.22146E-03
 0.13328000E+03  0.20660E-03
 0.13333000E+03  0.16961E-03
 0.13338000E+03  0.11388E-03
 0.13342999E+03  0.45386E-04
 0.13348000E+03 -0.25227E-04
 0.13353000E+03 -0.82323E-04
 0.13358000E+03 -0.11843E-03
 0.13363000E+03 -0.13717E-03
 0.13367999E+03 -0.14280E-03
 0.13373000E+03 -0.13990E-03
 0.13378000E+03 -0.12731E-03
 0.13383000E+03 -0.11601E-03
 0.13388000E+03 -0.12085E-03
 0.13392999E+03 -0.13180E-03
 0.13398000E+03 -0.13178E-03
 0.13403000E+03 -0.11352E-03
 0.13408000E+03 -0.83722E-04
 0.13413000E+03 -0.57040E-04
 0.13417999E+03 -0.37432E-04
 0.13423000E+03 -0.26165E-04
 0.13428000E+03 -0.25630E-04
 0.13433000E+03 -0.27182E-04
 0.13438000E+03 -0.20980E-04
 0.13442999E+03  0.29241E-05
 0.13448000E+03  0.43783E-04
 0.13453000E+03  0.85580E-04
 0.13458000E+03  0.12438E-03
 0.13463000E+03  0.15653E-03
 0.13467999E+03  0.16906E-03
 0.13473000E+03  0.14711E-03
 0.13478000E+03  0.82573E-04
 0.13483000E+03 -0.55873E-05
 0.13488000E+03 -0.88913E-04
 0.13492999E+03 -0.14803E-03
 0.13498000E+03 -0.15654E-03
 0.13503000E+03 -0.97832E-04
 0.13508000E+03 -0.69283E-06
 0.13513000E+03  0.94773E-04
 0.13517999E+03  0.17275E-03
 0.13523000E+03  0.22657E-03
 0.13528000E+03  0.25296E-03
 0.13533000E+03  0.24839E-03
 0.13538000E+03  0.20447E-03
 0.13542999E+03  0.12076E-03
 0.13548000E+03  0.18766E-04
 0.13553000E+03 -0.76436E-04
 0.13558000E+03 -0.16010E-03
 0.13563000E+03 -0.23352E-03
 0.13567999E+03 -0.28398E-03
 0.13573000E+03 -0.29089E-03
 0.13578000E+03 -0.25187E-03
 0.13583000E+03 -0.18748E-03
 0.13588000E+03 -0.11833E-03
 0.13592999E+03 -0.54544E-04
 0.13598000E+03  0.16351E-05
 0.13603000E+03  0.51145E-04
 0.13608000E+03  0.93249E-04
 0.13613000E+03  0.12305E-03
 0.13617999E+03  0.13827E-03
 0.13623000E+03  0.14851E-03
 0.13628000E+03  0.16228E-03
 0.13633000E+03  0.17217E-03
 0.13638000E+03  0.16444E-03
 0.13642999E+03  0.13282E-03
 0.13648000E+03  0.74901E-04
 0.13653000E+03 -0.10666E-04
 0.13658000E+03 -0.11505E-03
 0.13663000E+03 -0.22191E-03
 0.13667999E+03 -0.31117E-03
 0.13673000E+03 -0.36088E-03
 0.13678000E+03 -0.35852E-03
 0.13683000E+03 -0.30378E-03
 0.13688000E+03 -0.19622E-03
 0.13692999E+03 -0.40929E-04
 0.13698000E+03  0.13339E-03
 0.13703000E+03  0.28452E-03
 0.13708000E+03  0.38148E-03
 0.13713000E+03  0.41567E-03
 0.13717999E+03  0.39109E-03
 0.13723000E+03  0.31462E-03
 0.13728000E+03  0.19697E-03
 0.13733000E+03  0.54402E-04
 0.13738000E+03 -0.95111E-04
 0.13742999E+03 -0.23440E-03
 0.13748000E+03 -0.34658E-03
 0.13753000E+03 -0.41300E-03
 0.13758000E+03 -0.41837E-03
 0.13763000E+03 -0.35871E-03
 0.13767999E+03 -0.24301E-03
 0.13773000E+03 -0.10073E-03
 0.13778000E+03  0.31604E-04
 0.13783000E+03  0.13233E-03
 0.13788000E+03  0.19788E-03
 0.13792999E+03  0.22928E-03
 0.13798000E+03  0.22001E-03
 0.13803000E+03  0.17593E-03
 0.13808000E+03  0.12017E-03
 0.13813000E+03  0.65780E-04
 0.13817999E+03  0.22106E-04
 0.13823000E+03  0.55280E-05
 0.13828000E+03  0.25105E-04
 0.13833000E+03  0.76394E-04
 0.13838000E+03  0.14058E-03
 0.13842999E+03  0.20043E-03
 0.13848000E+03  0.24393E-03
 0.13853000E+03  0.24880E-03
 0.13858000E+03  0.19940E-03
 0.13863000E+03  0.10116E-03
 0.13867999E+03 -0.30373E-04
 0.13873000E+03 -0.16528E-03
 0.13878000E+03 -0.26879E-03
 0.13883000E+03 -0.32423E-03
 0.13888000E+03 -0.32565E-03
 0.13892999E+03 -0.26858E-03
 0.13898000E+03 -0.16067E-03
 0.13903000E+03 -0.35130E-04
 0.13908000E+03  0.68565E-04
 0.13913000E+03  0.12439E-03
 0.13917999E+03  0.12287E-03
 0.13923000E+03  0.78182E-04
 0.13928000E+03  0.84411E-05
 0.13933000E+03 -0.80170E-04
 0.13938000E+03 -0.17200E-03
 0.13942999E+03 -0.23211E-03
 0.13948000E+03 -0.23244E-03
 0.13953000E+03 -0.16999E-03
 0.13958000E+03 -0.66428E-04
 0.13963000E+03  0.55391E-04
 0.13967999E+03  0.17750E-03
 0.13973000E+03  0.26915E-03
 0.13978000E+03  0.30450E-03
 0.13983000E+03  0.27950E-03
 0.13988000E+03  0.21213E-03
 0.13992999E+03  0.12843E-03
 0.13998000E+03  0.54400E-04
 0.14003000E+03  0.28669E-05
 0.14008000E+03 -0.40657E-04
 0.14013000E+03 -0.87643E-04
 0.14017999E+03 -0.12722E-03
 0.14023000E+03 -0.13680E-03
 0.14028000E+03 -0.11101E-03
 0.14033000E+03 -0.66422E-04
 0.14038000E+03 -0.12985E-04
 0.14042999E+03  0.45037E-04
 0.14048000E+03  0.98332E-04
 0.14053000E+03  0.13686E-03
 0.14058000E+03  0.15355E-03
 0.14063000E+03  0.14408E-03
 0.14067999E+03  0.11171E-03
 0.14073000E+03  0.68101E-04
 0.14078000E+03  0.27178E-04
 0.14083000E+03 -0.78017E-05
 0.14088000E+03 -0.41210E-04
 0.14092999E+03 -0.67608E-04
 0.14098000E+03 -0.82223E-04
 0.14103000E+03 -0.91258E-04
 0.14108000E+03 -0.10356E-03
 0.14113000E+03 -0.11771E-03
 0.14117999E+03 -0.13255E-03
 0.14123000E+03 -0.15156E-03
 0.14128000E+03 -0.16343E-03
 0.14133000E+03 -0.16078E-03
 0.14138000E+03 -0.14822E-03
 0.14142999E+03 -0.12698E-03
 0.14148000E+03 -0.10089E-03
 0.14153000E+03 -0.70844E-04
 0.14158000E+03 -0.33135E-04
 0.14163000E+03  0.80092E-05
 0.14167999E+03  0.42194E-04
 0.14173000E+03  0.67500E-04
 0.14178000E+03  0.90970E-04
 0.14183000E+03  0.10893E-03
 0.14188000E+03  0.11785E-03
 0.14192999E+03  0.12318E-03
 0.14198000E+03  0.12525E-03
 0.14203000E+03  0.12132E-03
 0.14208000E+03  0.10536E-03
 0.14213000E+03  0.79575E-04
 0.14217999E+03  0.47743E-04
 0.14223000E+03  0.31340E-05
 0.14228000E+03 -0.43695E-04
 0.14233000E+03 -0.71735E-04
 0.14238000E+03 -0.76551E-04
 0.14242999E+03 -0.69432E-04
 0.14248000E+03 -0.59996E-04
 0.14253000E+03 -0.36896E-04
 0.14258000E+03  0.14525E-04
 0.14263000E+03  0.88503E-04
 0.14267999E+03  0.16427E-03
 0.14273000E+03  0.22754E-03
 0.14278000E+03  0.26787E-03
 0.14283000E+03  0.26027E-03
 0.14288000E+03  0.20034E-03
 0.14292999E+03  0.11091E-03
 0.14298000E+03  0.77667E-05
 0.14303000E+03 -0.93343E-04
 0.14308000E+03 -0.17740E-03
 0.14313000E+03 -0.23628E-03
 0.14317999E+03 -0.26463E-03
 0.14323000E+03 -0.26312E-03
 0.14328000E+03 -0.23431E-03
 0.14333000E+03 -0.17824E-03
 0.14338000E+03 -0.10535E-03
 0.14342999E+03 -0.38971E-04
 0.14348000E+03  0.94030E-05
 0.14353000E+03  0.42599E-04
 0.14358000E+03  0.67363E-04
 0.14363000E+03  0.85142E-04
 0.14367999E+03  0.86780E-04
 0.14373000E+03  0.71796E-04
 0.14378000E+03  0.44747E-04
 0.14383000E+03  0.68378E-05
 0.14388000E+03 -0.38894E-04
 0.14392999E+03 -0.84064E-04
 0.14398000E+03 -0.11293E-03
 0.14403000E+03 -0.12381E-03
 0.14408000E+03 -0.12515E-03
 0.14413000E+03 -0.11962E-03
 0.14417999E+03 -0.10121E-03
 0.14423000E+03 -0.59415E-04
 0.14428000E+03  0.15750E-05
 0.14433000E+03  0.67661E-04
 0.14438000E+03  0.12946E-03
 0.14442999E+03  0.18029E-03
 0.14448000E+03  0.20254E-03
 0.14453000E+03  0.18419E-03
 0.14458000E+03  0.14124E-03
 0.14463000E+03  0.93574E-04
 0.14467999E+03  0.48894E-04
 0.14473000E+03  0.13853E-04
 0.14478000E+03 -0.57557E-05
 0.14483000E+03 -0.71495E-05
 0.14488000E+03  0.60188E-05
 0.14492999E+03  0.20005E-04
 0.14498000E+03  0.29160E-04
 0.14503000E+03  0.38687E-04
 0.14508000E+03  0.54088E-04
 0.14513000E+03  0.70452E-04
 0.14517999E+03  0.71070E-04
 0.14523000E+03  0.49784E-04
 0.14528000E+03  0.16534E-04
 0.14533000E+03 -0.16528E-04
 0.14538000E+03 -0.46741E-04
 0.14542999E+03 -0.71244E-04
 0.14548000E+03 -0.85956E-04
 0.14553000E+03 -0.97791E-04
 0.14558000E+03 -0.10741E-03
 0.14563000E+03 -0.11078E-03
 0.14567999E+03 -0.11410E-03
 0.14573000E+03 -0.12207E-03
 0.14578000E+03 -0.13250E-03
 0.14583000E+03 -0.13681E-03
 0.14588000E+03 -0.13474E-03
 0.14592999E+03 -0.13488E-03
 0.14598000E+03 -0.13007E-03
 0.14603000E+03 -0.10405E-03
 0.14608000E+03 -0.52470E-04
 0.14613000E+03  0.98335E-05
 0.14617999E+03  0.63335E-04
 0.14623000E+03  0.95437E-04
 0.14628000E+03  0.10569E-03
 0.14633000E+03  0.10965E-03
 0.14638000E+03  0.11696E-03
 0.14642999E+03  0.12159E-03
 0.14648000E+03  0.11716E-03
 0.14653000E+03  0.10566E-03
 0.14658000E+03  0.92403E-04
 0.14663000E+03  0.84749E-04
 0.14667999E+03  0.90317E-04
 0.14673000E+03  0.10573E-03
 0.14678000E+03  0.11301E-03
 0.14683000E+03  0.99049E-04
 0.14688000E+03  0.71422E-04
 0.14692999E+03  0.38928E-04
 0.14698000E+03  0.11907E-05
 0.14703000E+03 -0.43193E-04
 0.14708000E+03 -0.80466E-04
 0.14713000E+03 -0.90164E-04
 0.14717999E+03 -0.70308E-04
 0.14723000E+03 -0.26285E-04
 0.14728000E+03  0.33512E-04
 0.14733000E+03  0.95400E-04
 0.14738000E+03  0.13866E-03
 0.14742999E+03  0.14534E-03
 0.14748000E+03  0.12075E-03
 0.14753000E+03  0.83042E-04
 0.14758000E+03  0.46194E-04
 0.14763000E+03  0.11344E-04
 0.14767999E+03 -0.26552E-04
 0.14773000E+03 -0.68528E-04
 0.14778000E+03 -0.10766E-03
 0.14783000E+03 -0.13563E-03
 0.14788000E+03 -0.15619E-03
 0.14792999E+03 -0.17374E-03
 0.14798000E+03 -0.19255E-03
 0.14803000E+03 -0.21480E-03
 0.14808000E+03 -0.23803E-03
 0.14813000E+03 -0.26104E-03
 0.14817999E+03 -0.26514E-03
 0.14823000E+03 -0.23663E-03
 0.14828000E+03 -0.18143E-03
 0.14833000E+03 -0.10565E-03
 0.14838000E+03 -0.20721E-04
 0.14842999E+03  0.60453E-04
 0.14848000E+03  0.12777E-03
 0.14853000E+03  0.17687E-03
 0.14858000E+03  0.20927E-03
 0.14863000E+03  0.23089E-03
 0.14867999E+03  0.24871E-03
 0.14873000E+03  0.25497E-03
 0.14878000E+03  0.23452E-03
 0.14883000E+03  0.18921E-03
 0.14888000E+03  0.12629E-03
 0.14892999E+03  0.40311E-04
 0.14898000E+03 -0.57111E-04
 0.14903000E+03 -0.13653E-03
 0.14908000E+03 -0.18103E-03
 0.14913000E+03 -0.18723E-03
 0.14917999E+03 -0.15627E-03
 0.14923000E+03 -0.95705E-04
 0.14928000E+03 -0.21778E-04
 0.14933000E+03  0.55222E-04
 0.14938000E+03  0.12323E-03
 0.14942999E+03  0.16899E-03
 0.14948000E+03  0.19941E-03
 0.14953000E+03  0.21770E-03
 0.14958000E+03  0.21174E-03
 0.14963000E+03  0.17672E-03
 0.14967999E+03  0.12472E-03
 0.14973000E+03  0.71404E-04
 0.14978000E+03  0.20524E-04
 0.14983000E+03 -0.25423E-04
 0.14988000E+03 -0.65978E-04
 0.14992999E+03 -0.97584E-04
 0.14998000E+03 -0.11362E-03
