-0.19999981E-01  0.12079E-04
 0.30000020E-01 -0.26802E-04
 0.80000021E-01 -0.30932E-04
 0.13000003E+00  0.52846E-04
 0.18000002E+00  0.22121E-04
 0.23000002E+00 -0.60919E-04
 0.28000003E+00 -0.32803E-04
 0.33000001E+00 -0.25193E-04
 0.38000003E+00  0.26481E-04
 0.43000004E+00  0.87340E-04
 0.48000002E+00 -0.29874E-04
 0.53000003E+00  0.18600E-04
 0.58000004E+00 -0.46939E-04
 0.63000005E+00  0.15528E-04
 0.68000001E+00  0.82325E-04
 0.73000002E+00 -0.90371E-04
 0.78000003E+00  0.11322E-04
 0.83000004E+00 -0.25097E-04
 0.88000005E+00  0.13254E-04
 0.93000001E+00  0.68497E-04
 0.98000002E+00 -0.22825E-04
 0.10300001E+01 -0.12152E-05
 0.10800000E+01 -0.33892E-04
 0.11300000E+01 -0.22281E-04
 0.11800001E+01  0.76494E-04
 0.12300000E+01  0.74006E-04
 0.12800001E+01 -0.60380E-04
 0.13300000E+01 -0.70834E-04
 0.13800000E+01 -0.36406E-04
 0.14300001E+01 -0.20744E-05
 0.14800000E+01  0.66746E-04
 0.15300001E+01  0.51425E-04
 0.15800000E+01 -0.25954E-04
 0.16300000E+01 -0.41785E-04
 0.16800001E+01  0.11110E-04
 0.17300000E+01 -0.47261E-04
 0.17800001E+01 -0.10017E-04
 0.18300000E+01  0.78098E-04
 0.18800000E+01  0.10817E-04
 0.19300001E+01 -0.72375E-04
 0.19800000E+01 -0.26648E-04
 0.20300000E+01  0.42128E-04
 0.20800002E+01 -0.85504E-05
 0.21300001E+01  0.99990E-05
 0.21800001E+01  0.56535E-04
 0.22300000E+01 -0.39687E-05
 0.22800000E+01  0.56411E-04
 0.23300002E+01 -0.17588E-04
 0.23800001E+01 -0.14385E-03
 0.24300001E+01  0.25503E-04
 0.24800000E+01  0.18278E-04
 0.25300000E+01  0.38291E-04
 0.25800002E+01  0.42455E-04
 0.26300001E+01 -0.16112E-04
 0.26800001E+01  0.12908E-04
 0.27300000E+01 -0.64651E-04
 0.27800000E+01  0.64537E-05
 0.28300002E+01  0.70192E-04
 0.28800001E+01 -0.69914E-04
 0.29300001E+01 -0.81404E-04
 0.29800000E+01  0.13415E-03
 0.30300000E+01  0.26581E-04
 0.30800002E+01 -0.96775E-04
 0.31300001E+01  0.48270E-04
 0.31800001E+01  0.87049E-05
 0.32300000E+01 -0.95715E-04
 0.32800000E+01  0.20350E-04
 0.33300002E+01  0.18538E-04
 0.33800001E+01 -0.40074E-04
 0.34300001E+01  0.67323E-04
 0.34800000E+01 -0.83725E-04
 0.35300000E+01  0.46241E-04
 0.35800002E+01  0.13707E-03
 0.36300001E+01 -0.50722E-04
 0.36800001E+01  0.15718E-04
 0.37300000E+01 -0.67914E-04
 0.37800000E+01 -0.44233E-06
 0.38300002E+01 -0.72787E-04
 0.38800001E+01 -0.38723E-04
 0.39300001E+01  0.18396E-03
 0.39800000E+01 -0.13568E-03
 0.40300002E+01  0.58208E-04
 0.40799999E+01  0.75289E-04
 0.41300001E+01 -0.69034E-04
 0.41800003E+01  0.99506E-04
 0.42300000E+01 -0.17907E-03
 0.42800002E+01  0.52117E-04
 0.43299999E+01  0.28316E-04
 0.43800001E+01 -0.73166E-04
 0.44300003E+01  0.17914E-03
 0.44800000E+01 -0.74484E-04
 0.45300002E+01 -0.50223E-04
 0.45799999E+01  0.48130E-05
 0.46300001E+01 -0.14372E-04
 0.46800003E+01  0.32305E-04
 0.47300000E+01  0.74156E-05
 0.47800002E+01 -0.31528E-04
 0.48299999E+01 -0.57702E-04
 0.48800001E+01  0.13347E-03
 0.49300003E+01  0.27111E-04
 0.49800000E+01 -0.11044E-03
 0.50300002E+01  0.39662E-04
 0.50799999E+01 -0.18354E-04
 0.51300001E+01  0.67161E-04
 0.51800003E+01  0.49457E-04
 0.52300000E+01 -0.62870E-04
 0.52800002E+01 -0.11495E-05
 0.53299999E+01 -0.93915E-04
 0.53800001E+01  0.25750E-04
 0.54300003E+01 -0.21675E-05
 0.54800000E+01  0.62084E-06
 0.55300002E+01  0.91898E-04
 0.55799999E+01 -0.58406E-04
 0.56300001E+01 -0.68034E-04
 0.56800003E+01  0.28256E-04
 0.57300000E+01  0.72819E-04
 0.57800002E+01 -0.33158E-05
 0.58299999E+01 -0.52439E-05
 0.58800001E+01 -0.82540E-04
 0.59300003E+01  0.32282E-05
 0.59800000E+01  0.48650E-04
 0.60300002E+01  0.16046E-04
 0.60799999E+01  0.36750E-04
 0.61300001E+01 -0.11894E-03
 0.61800003E+01  0.40720E-04
 0.62300000E+01  0.27925E-04
 0.62800002E+01 -0.19831E-04
 0.63299999E+01 -0.78283E-05
 0.63800001E+01 -0.81578E-04
 0.64300003E+01  0.39964E-04
 0.64800000E+01  0.27032E-04
 0.65300002E+01  0.37085E-04
 0.65799999E+01  0.62938E-04
 0.66300001E+01 -0.31863E-04
 0.66800003E+01 -0.98935E-05
 0.67300000E+01  0.34838E-04
 0.67800002E+01 -0.12208E-03
 0.68299999E+01  0.72491E-04
 0.68800001E+01  0.55283E-04
 0.69300003E+01 -0.12621E-03
 0.69800000E+01  0.26811E-04
 0.70300002E+01 -0.20835E-04
 0.70799999E+01  0.10138E-03
 0.71300001E+01 -0.18665E-05
 0.71800003E+01 -0.21298E-04
 0.72300000E+01  0.16451E-04
 0.72800002E+01 -0.91601E-05
 0.73299999E+01  0.92669E-04
 0.73800001E+01 -0.18337E-03
 0.74300003E+01 -0.41621E-04
 0.74800000E+01  0.54499E-04
 0.75300002E+01  0.35760E-05
 0.75799999E+01  0.13851E-03
 0.76300001E+01 -0.56552E-04
 0.76800003E+01  0.26212E-04
 0.77300000E+01  0.13764E-04
 0.77800002E+01 -0.11471E-03
 0.78299999E+01  0.52743E-04
 0.78800001E+01  0.48062E-05
 0.79300003E+01 -0.12146E-03
 0.79800000E+01 -0.28528E-04
 0.80299997E+01  0.16208E-03
 0.80799999E+01 -0.11297E-03
 0.81300001E+01  0.12263E-03
 0.81800003E+01  0.25269E-03
 0.82300005E+01 -0.24568E-03
 0.82799997E+01 -0.58708E-04
 0.83299999E+01 -0.72114E-04
 0.83800001E+01 -0.63727E-04
 0.84300003E+01  0.71752E-04
 0.84800005E+01  0.80127E-04
 0.85299997E+01  0.11909E-04
 0.85799999E+01  0.11969E-04
 0.86300001E+01  0.96853E-04
 0.86800003E+01 -0.15044E-04
 0.87300005E+01 -0.15648E-03
 0.87799997E+01 -0.20109E-04
 0.88299999E+01  0.92795E-05
 0.88800001E+01 -0.13656E-04
 0.89300003E+01  0.18165E-03
 0.89800005E+01 -0.11806E-03
 0.90299997E+01  0.79739E-04
 0.90799999E+01 -0.85211E-04
 0.91300001E+01 -0.14407E-04
 0.91800003E+01  0.28430E-04
 0.92300005E+01 -0.12173E-03
 0.92799997E+01  0.21892E-03
 0.93299999E+01 -0.17152E-03
 0.93800001E+01  0.91778E-04
 0.94300003E+01  0.33070E-05
 0.94800005E+01 -0.16392E-04
 0.95299997E+01  0.54368E-04
 0.95799999E+01 -0.19189E-03
 0.96300001E+01  0.64784E-04
 0.96800003E+01  0.59467E-05
 0.97300005E+01  0.15987E-03
 0.97799997E+01 -0.17276E-04
 0.98299999E+01 -0.11458E-03
 0.98800001E+01  0.37415E-04
 0.99300003E+01 -0.17341E-04
 0.99800005E+01  0.55262E-04
 0.10030000E+02 -0.23864E-04
 0.10080000E+02 -0.37252E-04
 0.10130000E+02  0.31769E-04
 0.10180000E+02 -0.16054E-04
 0.10230000E+02 -0.82744E-04
 0.10280000E+02  0.13669E-03
 0.10330000E+02 -0.17096E-04
 0.10380000E+02 -0.54661E-04
 0.10430000E+02  0.76734E-04
 0.10480000E+02 -0.76467E-04
 0.10530000E+02  0.44073E-04
 0.10580000E+02 -0.87350E-04
 0.10630000E+02  0.51275E-05
 0.10680000E+02  0.71488E-04
 0.10730000E+02 -0.14810E-04
 0.10780000E+02  0.56014E-04
 0.10830000E+02 -0.10266E-03
 0.10880000E+02  0.20207E-04
 0.10930000E+02  0.76864E-04
 0.10980000E+02 -0.57126E-04
 0.11030000E+02  0.29412E-04
 0.11080000E+02  0.32185E-04
 0.11130000E+02 -0.46967E-04
 0.11180000E+02 -0.44209E-05
 0.11230000E+02 -0.14086E-04
 0.11280000E+02 -0.65788E-04
 0.11330000E+02  0.89145E-04
 0.11380000E+02  0.82486E-04
 0.11430000E+02  0.30550E-04
 0.11480000E+02 -0.35060E-04
 0.11530000E+02 -0.13215E-03
 0.11580000E+02  0.26987E-04
 0.11630000E+02 -0.20484E-04
 0.11680000E+02 -0.60476E-04
 0.11730000E+02  0.51175E-04
 0.11780000E+02  0.77633E-04
 0.11830000E+02 -0.11728E-05
 0.11880000E+02 -0.83332E-04
 0.11930000E+02 -0.62159E-05
 0.11980000E+02  0.40011E-04
 0.12030000E+02  0.19811E-04
 0.12080000E+02  0.44436E-04
 0.12130000E+02 -0.14224E-04
 0.12180000E+02 -0.20857E-04
 0.12230000E+02  0.56775E-04
 0.12280000E+02 -0.11625E-03
 0.12330000E+02 -0.46259E-04
 0.12380000E+02  0.15344E-03
 0.12430000E+02 -0.27406E-04
 0.12480000E+02  0.19233E-04
 0.12530000E+02  0.62523E-04
 0.12580000E+02 -0.16283E-03
 0.12630000E+02 -0.51480E-05
 0.12680000E+02  0.25512E-04
 0.12730000E+02 -0.42682E-04
 0.12780001E+02  0.62511E-04
 0.12830000E+02 -0.25865E-07
 0.12880000E+02  0.62464E-04
 0.12930000E+02 -0.50718E-05
 0.12980000E+02 -0.74094E-04
 0.13030001E+02  0.21898E-04
 0.13080000E+02 -0.17161E-04
 0.13130000E+02  0.16993E-04
 0.13180000E+02 -0.53707E-05
 0.13230000E+02 -0.21148E-04
 0.13280001E+02  0.46913E-04
 0.13330000E+02 -0.64300E-04
 0.13380000E+02  0.18768E-04
 0.13430000E+02  0.12090E-03
 0.13480000E+02 -0.54614E-04
 0.13530001E+02 -0.63928E-04
 0.13580000E+02  0.65810E-04
 0.13630000E+02 -0.73652E-05
 0.13680000E+02 -0.31320E-04
 0.13730000E+02  0.61982E-05
 0.13780001E+02 -0.35526E-04
 0.13830000E+02  0.41299E-04
 0.13880000E+02  0.49945E-04
 0.13930000E+02 -0.44831E-05
 0.13980000E+02 -0.78204E-04
 0.14030001E+02 -0.46452E-04
 0.14080000E+02  0.29874E-04
 0.14130000E+02 -0.14978E-04
 0.14180000E+02  0.17152E-04
 0.14230000E+02  0.51304E-04
 0.14280001E+02  0.41105E-04
 0.14330000E+02 -0.37758E-04
 0.14380000E+02 -0.29341E-04
 0.14430000E+02  0.64221E-04
 0.14480000E+02 -0.37624E-04
 0.14530001E+02 -0.66505E-05
 0.14580000E+02  0.49191E-04
 0.14630000E+02 -0.90562E-04
 0.14680000E+02  0.17351E-04
 0.14730000E+02  0.53456E-04
 0.14780001E+02 -0.35874E-04
 0.14830000E+02  0.34696E-04
 0.14880000E+02 -0.32888E-04
 0.14930000E+02 -0.54938E-04
 0.14980000E+02  0.39795E-04
 0.15030001E+02 -0.31356E-04
 0.15080000E+02  0.76073E-05
 0.15130000E+02  0.86081E-04
 0.15180000E+02 -0.62639E-04
 0.15230000E+02 -0.28008E-04
 0.15280001E+02  0.31894E-04
 0.15330000E+02  0.24626E-05
 0.15380000E+02  0.17701E-06
 0.15430000E+02 -0.87646E-05
 0.15480000E+02  0.12320E-04
 0.15530001E+02 -0.31276E-05
 0.15580000E+02  0.13332E-04
 0.15630000E+02  0.17221E-04
 0.15680000E+02 -0.15245E-04
 0.15730000E+02 -0.12458E-04
 0.15780001E+02  0.33234E-04
 0.15830000E+02  0.20419E-05
 0.15880000E+02 -0.85281E-04
 0.15930000E+02  0.52104E-04
 0.15980000E+02  0.78203E-04
 0.16030001E+02 -0.75494E-04
 0.16080000E+02  0.92079E-05
 0.16130001E+02 -0.50996E-04
 0.16180000E+02 -0.34348E-05
 0.16230000E+02  0.59056E-04
 0.16280001E+02 -0.23128E-04
 0.16330000E+02  0.25012E-05
 0.16380001E+02 -0.78262E-04
 0.16430000E+02  0.55304E-04
 0.16480000E+02  0.10481E-03
 0.16530001E+02 -0.43470E-04
 0.16580000E+02 -0.34349E-04
 0.16630001E+02 -0.16412E-04
 0.16680000E+02 -0.72610E-04
 0.16730000E+02 -0.15146E-04
 0.16780001E+02  0.82617E-04
 0.16830000E+02  0.41681E-04
 0.16880001E+02  0.45655E-04
 0.16930000E+02  0.20287E-04
 0.16980000E+02 -0.14402E-04
 0.17030001E+02 -0.61608E-04
 0.17080000E+02 -0.96261E-04
 0.17130001E+02  0.73920E-04
 0.17180000E+02  0.72666E-04
 0.17230000E+02 -0.47764E-04
 0.17280001E+02  0.56810E-05
 0.17330000E+02  0.17117E-04
 0.17380001E+02  0.81536E-05
 0.17430000E+02 -0.43019E-04
 0.17480000E+02 -0.51864E-04
 0.17530001E+02  0.15649E-04
 0.17580000E+02  0.78210E-04
 0.17630001E+02  0.11321E-04
 0.17680000E+02 -0.45546E-04
 0.17730000E+02 -0.18780E-05
 0.17780001E+02 -0.76317E-04
 0.17830000E+02  0.10784E-04
 0.17880001E+02  0.17280E-04
 0.17930000E+02 -0.20980E-04
 0.17980000E+02  0.90474E-04
 0.18030001E+02  0.27842E-04
 0.18080000E+02 -0.55603E-04
 0.18130001E+02 -0.20711E-04
 0.18180000E+02  0.25715E-04
 0.18230000E+02  0.19848E-04
 0.18280001E+02  0.53664E-04
 0.18330000E+02 -0.11036E-04
 0.18380001E+02 -0.10388E-03
 0.18430000E+02  0.16541E-04
 0.18480000E+02 -0.82888E-05
 0.18530001E+02 -0.83240E-04
 0.18580000E+02  0.93627E-04
 0.18630001E+02  0.65232E-04
 0.18680000E+02 -0.66412E-04
 0.18730000E+02 -0.11939E-03
 0.18780001E+02  0.14536E-03
 0.18830000E+02  0.29974E-03
 0.18880001E+02 -0.52257E-03
 0.18930000E+02 -0.44028E-05
 0.18980000E+02  0.11189E-03
 0.19030001E+02  0.91682E-04
 0.19080000E+02  0.23178E-03
 0.19130001E+02 -0.75653E-03
 0.19180000E+02  0.80626E-03
 0.19230000E+02 -0.38648E-03
 0.19280001E+02  0.64115E-04
 0.19330000E+02  0.28640E-03
 0.19380001E+02 -0.31035E-03
 0.19430000E+02  0.87452E-03
 0.19480000E+02 -0.99325E-03
 0.19530001E+02  0.81356E-03
 0.19580000E+02 -0.68027E-03
 0.19630001E+02 -0.11005E-03
 0.19680000E+02  0.45104E-03
 0.19730000E+02 -0.61691E-03
 0.19780001E+02  0.49185E-03
 0.19830000E+02 -0.89780E-03
 0.19880001E+02  0.91885E-03
 0.19930000E+02 -0.82814E-04
 0.19980000E+02 -0.50771E-04
 0.20030001E+02  0.12868E-03
 0.20080000E+02 -0.57427E-03
 0.20130001E+02  0.75956E-03
 0.20180000E+02 -0.16402E-03
 0.20230000E+02 -0.82899E-03
 0.20280001E+02 -0.10882E-03
 0.20330000E+02  0.22303E-04
 0.20380001E+02  0.97574E-03
 0.20430000E+02 -0.28005E-03
 0.20480000E+02 -0.26271E-03
 0.20530001E+02  0.13737E-02
 0.20580000E+02 -0.88247E-03
 0.20630001E+02 -0.22907E-03
 0.20680000E+02 -0.45382E-03
 0.20730000E+02  0.10816E-03
 0.20780001E+02  0.98022E-04
 0.20830000E+02 -0.11512E-02
 0.20880001E+02  0.31320E-03
 0.20930000E+02  0.12720E-02
 0.20980000E+02 -0.13211E-02
 0.21030001E+02  0.22200E-02
 0.21080000E+02  0.34920E-02
 0.21130001E+02 -0.12200E-02
 0.21180000E+02 -0.80505E-03
 0.21230000E+02 -0.12931E-02
 0.21280001E+02 -0.17840E-02
 0.21330000E+02 -0.36429E-03
 0.21380001E+02  0.53073E-03
 0.21430000E+02 -0.35155E-02
 0.21480000E+02  0.37692E-02
 0.21530001E+02  0.10164E-02
 0.21580000E+02 -0.83815E-03
 0.21630001E+02  0.85646E-03
 0.21680000E+02 -0.31508E-02
 0.21730000E+02  0.24041E-02
 0.21780001E+02 -0.30944E-02
 0.21830000E+02  0.32139E-02
 0.21880001E+02 -0.59237E-03
 0.21930000E+02 -0.29766E-02
 0.21980000E+02  0.51684E-02
 0.22030001E+02 -0.31067E-02
 0.22080000E+02  0.32200E-02
 0.22130001E+02  0.23835E-03
 0.22180000E+02 -0.32768E-02
 0.22230000E+02  0.59168E-02
 0.22280001E+02 -0.24138E-02
 0.22330000E+02 -0.54156E-02
 0.22380001E+02  0.22737E-02
 0.22430000E+02  0.31128E-02
 0.22480000E+02 -0.54541E-02
 0.22530001E+02  0.14468E-02
 0.22580000E+02  0.21432E-02
 0.22630001E+02 -0.72991E-02
 0.22680000E+02  0.36561E-02
 0.22730000E+02  0.47590E-03
 0.22780001E+02  0.59137E-02
 0.22830000E+02  0.37497E-02
 0.22880001E+02 -0.83091E-02
 0.22930000E+02  0.41905E-02
 0.22980000E+02  0.16837E-02
 0.23030001E+02 -0.48627E-02
 0.23080000E+02  0.20087E-02
 0.23130001E+02  0.43245E-03
 0.23180000E+02 -0.13631E-02
 0.23230000E+02  0.92454E-03
 0.23280001E+02  0.68711E-03
 0.23330000E+02 -0.74744E-02
 0.23380001E+02 -0.55272E-02
 0.23430000E+02  0.11542E-01
 0.23480000E+02 -0.78893E-03
 0.23530001E+02 -0.30938E-02
 0.23580000E+02  0.11048E-02
 0.23630001E+02  0.39587E-03
 0.23680000E+02  0.18662E-02
 0.23730000E+02 -0.23400E-02
 0.23780001E+02  0.30652E-02
 0.23830000E+02  0.30145E-03
 0.23880001E+02  0.53935E-02
 0.23930000E+02 -0.18712E-02
 0.23980000E+02 -0.27557E-02
 0.24030001E+02  0.18845E-02
 0.24080000E+02 -0.77273E-02
 0.24130001E+02  0.29763E-02
 0.24180000E+02  0.43976E-02
 0.24230000E+02 -0.10288E-01
 0.24280001E+02  0.28515E-02
 0.24330000E+02  0.37670E-02
 0.24380001E+02 -0.71873E-02
 0.24430000E+02  0.51004E-02
 0.24480000E+02 -0.27901E-02
 0.24530001E+02  0.56942E-02
 0.24580000E+02  0.52723E-02
 0.24630001E+02 -0.76613E-03
 0.24680000E+02  0.20932E-02
 0.24730000E+02 -0.12130E-01
 0.24780001E+02  0.36024E-02
 0.24830000E+02  0.18547E-02
 0.24880001E+02 -0.23103E-02
 0.24930000E+02 -0.73688E-03
 0.24980000E+02 -0.54531E-02
 0.25030001E+02  0.74037E-02
 0.25080000E+02 -0.56249E-02
 0.25130001E+02 -0.11242E-02
 0.25180000E+02  0.98812E-02
 0.25230000E+02 -0.42857E-02
 0.25280001E+02  0.31865E-02
 0.25330000E+02  0.25370E-02
 0.25380001E+02 -0.10791E-02
 0.25430000E+02  0.55530E-03
 0.25480000E+02 -0.22763E-02
 0.25530001E+02  0.34998E-02
 0.25580000E+02  0.54309E-02
 0.25630001E+02 -0.94231E-02
 0.25680000E+02 -0.85244E-02
 0.25730000E+02  0.79862E-02
 0.25780001E+02 -0.70135E-03
 0.25830000E+02  0.11011E-02
 0.25880001E+02 -0.19501E-02
 0.25930000E+02 -0.83480E-03
 0.25980000E+02  0.73886E-02
 0.26030001E+02 -0.44675E-02
 0.26080000E+02 -0.53139E-03
 0.26130001E+02 -0.28535E-02
 0.26180000E+02  0.24041E-02
 0.26230000E+02  0.35479E-02
 0.26280001E+02 -0.11721E-01
 0.26330000E+02  0.76021E-02
 0.26380001E+02  0.41406E-02
 0.26430000E+02 -0.49819E-02
 0.26480000E+02  0.57889E-02
 0.26530001E+02 -0.86139E-02
 0.26580000E+02 -0.87255E-03
 0.26630001E+02 -0.30174E-02
 0.26680000E+02  0.24622E-02
 0.26730000E+02  0.93957E-02
 0.26780001E+02 -0.74501E-02
 0.26830000E+02  0.12817E-02
 0.26880001E+02  0.34659E-02
 0.26930000E+02  0.86008E-02
 0.26980000E+02 -0.53036E-02
 0.27030001E+02 -0.67142E-02
 0.27080000E+02  0.59931E-02
 0.27130001E+02  0.18595E-03
 0.27180000E+02  0.31042E-02
 0.27230000E+02 -0.80421E-02
 0.27280001E+02  0.49503E-02
 0.27330000E+02  0.24859E-02
 0.27380001E+02 -0.13751E-01
 0.27430000E+02  0.28725E-02
 0.27480000E+02 -0.52573E-02
 0.27530001E+02  0.68048E-02
 0.27580000E+02  0.45348E-02
 0.27630001E+02 -0.77539E-02
 0.27680000E+02  0.13119E-01
 0.27730000E+02 -0.52105E-02
 0.27780001E+02 -0.95147E-04
 0.27830000E+02  0.13092E-02
 0.27880001E+02 -0.68007E-02
 0.27930000E+02 -0.97028E-03
 0.27980000E+02 -0.63027E-02
 0.28030001E+02  0.17998E-01
 0.28080000E+02  0.42812E-02
 0.28130001E+02 -0.21605E-02
 0.28180000E+02 -0.67583E-02
 0.28230000E+02 -0.12570E-01
 0.28280001E+02  0.16304E-01
 0.28330000E+02 -0.11834E-01
 0.28380001E+02 -0.85624E-02
 0.28430000E+02  0.19229E-01
 0.28480000E+02  0.57226E-02
 0.28530001E+02 -0.67089E-02
 0.28580000E+02 -0.48131E-04
 0.28630001E+02 -0.15513E-02
 0.28680000E+02 -0.97086E-02
 0.28730000E+02 -0.16261E-03
 0.28780001E+02 -0.84951E-02
 0.28830000E+02  0.90563E-02
 0.28880001E+02  0.95141E-02
 0.28930000E+02 -0.56370E-02
 0.28980000E+02  0.12242E-01
 0.29030001E+02 -0.90019E-03
 0.29080000E+02 -0.33525E-02
 0.29130001E+02  0.82580E-02
 0.29180000E+02 -0.83359E-02
 0.29230000E+02 -0.56839E-02
 0.29280001E+02  0.77892E-03
 0.29330000E+02 -0.27961E-02
 0.29380001E+02  0.39831E-02
 0.29430000E+02 -0.69468E-03
 0.29480000E+02  0.20000E-02
 0.29530001E+02 -0.99284E-02
 0.29580000E+02 -0.51710E-02
 0.29630001E+02  0.12881E-01
 0.29680000E+02 -0.29445E-03
 0.29730000E+02  0.47117E-02
 0.29780001E+02  0.29346E-02
 0.29830000E+02 -0.29925E-02
 0.29880001E+02 -0.52439E-02
 0.29930000E+02  0.10009E-02
 0.29980000E+02  0.88933E-02
 0.30030001E+02 -0.42694E-04
 0.30080000E+02 -0.12609E-01
 0.30130001E+02 -0.58907E-02
 0.30180000E+02  0.12790E-02
 0.30230000E+02 -0.75648E-02
 0.30280001E+02  0.34915E-02
 0.30330000E+02  0.17138E-02
 0.30380001E+02  0.53113E-03
 0.30430000E+02  0.54940E-02
 0.30480000E+02  0.57882E-02
 0.30530001E+02  0.11033E-01
 0.30580000E+02  0.79355E-02
 0.30630001E+02 -0.85654E-02
 0.30680000E+02 -0.67942E-02
 0.30730000E+02 -0.42233E-04
 0.30780001E+02 -0.31066E-02
 0.30830000E+02  0.45363E-02
 0.30880001E+02 -0.10505E-01
 0.30930000E+02 -0.25648E-02
 0.30980000E+02  0.99734E-02
 0.31030001E+02 -0.14457E-02
 0.31080000E+02 -0.49859E-02
 0.31130001E+02  0.12790E-02
 0.31180000E+02  0.26163E-02
 0.31230000E+02 -0.10872E-01
 0.31280001E+02  0.21310E-02
 0.31330000E+02  0.15048E-01
 0.31380001E+02  0.31571E-02
 0.31430000E+02 -0.64989E-02
 0.31480000E+02  0.70754E-02
 0.31530001E+02  0.10752E-02
 0.31580000E+02 -0.71741E-02
 0.31630001E+02  0.28481E-02
 0.31680000E+02 -0.28914E-02
 0.31730000E+02 -0.11362E-01
 0.31780001E+02 -0.15102E-01
 0.31830000E+02  0.11813E-01
 0.31880001E+02  0.10528E-01
 0.31930000E+02 -0.79514E-02
 0.31980000E+02 -0.29540E-02
 0.32029999E+02  0.61424E-02
 0.32080002E+02  0.93303E-02
 0.32130001E+02 -0.73849E-02
 0.32180000E+02 -0.31896E-02
 0.32230000E+02  0.25908E-02
 0.32279999E+02  0.75495E-03
 0.32330002E+02 -0.79464E-03
 0.32380001E+02  0.34947E-02
 0.32430000E+02  0.24320E-01
 0.32480000E+02  0.65317E-02
 0.32529999E+02 -0.11654E-01
 0.32580002E+02 -0.17910E-04
 0.32630001E+02 -0.59431E-02
 0.32680000E+02 -0.19152E-01
 0.32730000E+02 -0.68981E-02
 0.32779999E+02  0.22443E-01
 0.32830002E+02  0.80711E-02
 0.32880001E+02 -0.19096E-01
 0.32930000E+02 -0.61395E-02
 0.32980000E+02 -0.66561E-02
 0.33029999E+02 -0.36870E-01
 0.33080002E+02 -0.45021E-01
 0.33130001E+02  0.85021E-02
 0.33180000E+02  0.49537E-01
 0.33230000E+02  0.22225E-01
 0.33279999E+02  0.24244E-01
 0.33330002E+02  0.29437E-01
 0.33380001E+02  0.35682E-01
 0.33430000E+02  0.21336E-01
 0.33480000E+02 -0.47217E-01
 0.33529999E+02 -0.41515E-01
 0.33580002E+02 -0.42414E-01
 0.33630001E+02 -0.15322E-01
 0.33680000E+02  0.11237E-01
 0.33730000E+02 -0.10097E-01
 0.33779999E+02  0.90154E-01
 0.33830002E+02  0.22048E-01
 0.33880001E+02 -0.48466E-01
 0.33930000E+02  0.92995E-01
 0.33980000E+02  0.79520E-01
 0.34029999E+02  0.24126E-01
 0.34080002E+02 -0.81511E-01
 0.34130001E+02 -0.89501E-01
 0.34180000E+02 -0.29555E-01
 0.34230000E+02 -0.16344E+00
 0.34279999E+02 -0.88460E-01
 0.34330002E+02 -0.51593E-01
 0.34380001E+02 -0.53438E-01
 0.34430000E+02  0.64306E-01
 0.34480000E+02 -0.77660E-01
 0.34529999E+02 -0.42323E-01
 0.34580002E+02  0.19797E+00
 0.34630001E+02  0.41187E+00
 0.34680000E+02  0.47410E+00
 0.34730000E+02  0.12680E+00
 0.34779999E+02 -0.23645E+00
 0.34830002E+02 -0.30143E+00
 0.34880001E+02 -0.84148E-01
 0.34930000E+02 -0.30793E-01
 0.34980000E+02 -0.23090E+00
 0.35029999E+02 -0.32690E+00
 0.35080002E+02 -0.25492E+00
 0.35130001E+02 -0.55117E-01
 0.35180000E+02  0.60760E-01
 0.35230000E+02  0.17696E+00
 0.35279999E+02  0.40747E+00
 0.35330002E+02  0.45329E+00
 0.35380001E+02  0.20703E+00
 0.35430000E+02  0.21035E+00
 0.35480000E+02  0.10590E+00
 0.35529999E+02 -0.35542E+00
 0.35580002E+02 -0.45734E+00
 0.35630001E+02 -0.38420E+00
 0.35680000E+02 -0.17616E+00
 0.35730000E+02  0.36110E-01
 0.35779999E+02  0.11268E+00
 0.35830002E+02  0.14051E+00
 0.35880001E+02  0.10465E+00
 0.35930000E+02  0.16437E+00
 0.35980000E+02  0.12679E+00
 0.36029999E+02 -0.26688E-01
 0.36080002E+02 -0.10826E+00
 0.36130001E+02 -0.10207E+00
 0.36180000E+02 -0.80409E-01
 0.36230000E+02  0.39900E-01
 0.36279999E+02  0.99248E-02
 0.36330002E+02 -0.14913E+00
 0.36380001E+02 -0.30162E-01
 0.36430000E+02  0.79133E-01
 0.36480000E+02  0.52958E-01
 0.36529999E+02  0.51517E-01
 0.36580002E+02  0.15297E-01
 0.36630001E+02  0.16296E-01
 0.36680000E+02  0.14189E+00
 0.36730000E+02  0.11586E+00
 0.36779999E+02 -0.91310E-01
 0.36830002E+02 -0.12007E+00
 0.36880001E+02 -0.13391E-02
 0.36930000E+02  0.95391E-02
 0.36980000E+02 -0.70246E-01
 0.37029999E+02 -0.18103E-02
 0.37080002E+02  0.16352E-01
 0.37130001E+02 -0.98316E-02
 0.37180000E+02  0.98108E-02
 0.37230000E+02  0.13178E-01
 0.37279999E+02  0.45768E-01
 0.37330002E+02 -0.11770E+00
 0.37380001E+02 -0.50625E-01
 0.37430000E+02  0.63607E-01
 0.37480000E+02  0.21859E-02
 0.37529999E+02  0.90079E-01
 0.37580002E+02  0.48128E-01
 0.37630001E+02  0.51421E-03
 0.37680000E+02 -0.37439E-02
 0.37730000E+02  0.30330E-01
 0.37779999E+02  0.68838E-01
 0.37830002E+02 -0.74732E-01
 0.37880001E+02 -0.19040E+00
 0.37930000E+02 -0.10528E+00
 0.37980000E+02 -0.19398E-01
 0.38029999E+02  0.27644E-01
 0.38080002E+02  0.18053E+00
 0.38130001E+02  0.10352E+00
 0.38180000E+02 -0.22369E-01
 0.38230000E+02  0.69539E-01
 0.38279999E+02 -0.17721E-01
 0.38330002E+02 -0.52560E-01
 0.38380001E+02 -0.48772E-01
 0.38430000E+02 -0.18110E+00
 0.38480000E+02 -0.13754E-01
 0.38529999E+02  0.11983E+00
 0.38580002E+02 -0.12320E-02
 0.38630001E+02  0.70022E-01
 0.38680000E+02  0.11923E+00
 0.38730000E+02 -0.37684E-01
 0.38779999E+02 -0.10806E+00
 0.38830002E+02 -0.80332E-01
 0.38880001E+02 -0.52390E-01
 0.38930000E+02 -0.61313E-03
 0.38980000E+02  0.61669E-01
 0.39029999E+02  0.63103E-01
 0.39080002E+02  0.22808E-01
 0.39130001E+02  0.88424E-01
 0.39180000E+02  0.69151E-01
 0.39230000E+02 -0.14214E+00
 0.39279999E+02 -0.78923E-01
 0.39330002E+02  0.54369E-01
 0.39380001E+02  0.21966E-01
 0.39430000E+02  0.60226E-01
 0.39480000E+02  0.79481E-02
 0.39529999E+02 -0.21318E-01
 0.39580002E+02 -0.17734E-01
 0.39630001E+02 -0.11579E+00
 0.39680000E+02 -0.10471E+00
 0.39730000E+02  0.20020E-01
 0.39779999E+02  0.72881E-01
 0.39830002E+02  0.52943E-01
 0.39880001E+02  0.57980E-02
 0.39930000E+02  0.18479E-01
 0.39980000E+02  0.16048E-01
 0.40029999E+02 -0.45988E-01
 0.40080002E+02  0.34956E-01
 0.40130001E+02  0.49448E-01
 0.40180000E+02 -0.23783E-01
 0.40230000E+02 -0.35529E-01
 0.40279999E+02  0.17872E-01
 0.40330002E+02  0.78418E-01
 0.40380001E+02 -0.25247E-01
 0.40430000E+02 -0.48437E-01
 0.40480000E+02  0.59878E-01
 0.40529999E+02  0.47204E-01
 0.40580002E+02 -0.39477E-01
 0.40630001E+02 -0.77388E-01
 0.40680000E+02 -0.78710E-01
 0.40730000E+02 -0.12852E+00
 0.40779999E+02 -0.11531E+00
 0.40830002E+02  0.20124E-01
 0.40880001E+02  0.12724E+00
 0.40930000E+02  0.17984E+00
 0.40980000E+02  0.16034E+00
 0.41029999E+02  0.12150E+00
 0.41080002E+02  0.11816E-01
 0.41130001E+02 -0.10012E+00
 0.41180000E+02 -0.52726E-01
 0.41230000E+02 -0.86562E-01
 0.41279999E+02 -0.13437E+00
 0.41330002E+02 -0.10750E+00
 0.41380001E+02  0.46722E-02
 0.41430000E+02  0.18236E+00
 0.41480000E+02  0.10297E+00
 0.41529999E+02 -0.25597E-01
 0.41580002E+02 -0.23386E-01
 0.41630001E+02 -0.56182E-01
 0.41680000E+02 -0.32525E-01
 0.41730000E+02  0.29669E-02
 0.41779999E+02 -0.95857E-01
 0.41830002E+02 -0.11061E+00
 0.41880001E+02  0.38143E-01
 0.41930000E+02  0.79795E-01
 0.41980000E+02  0.44688E-01
 0.42029999E+02  0.17792E-01
 0.42080002E+02 -0.35567E-01
 0.42130001E+02 -0.20123E-01
 0.42180000E+02  0.68556E-01
 0.42230000E+02  0.70821E-01
 0.42279999E+02  0.18289E-01
 0.42330002E+02  0.46072E-01
 0.42380001E+02  0.27878E-01
 0.42430000E+02 -0.34648E-01
 0.42480000E+02 -0.55237E-01
 0.42529999E+02 -0.46729E-01
 0.42580002E+02 -0.41603E-02
 0.42630001E+02  0.45804E-01
 0.42680000E+02  0.19952E-01
 0.42730000E+02 -0.70436E-01
 0.42779999E+02 -0.66432E-01
 0.42830002E+02  0.23450E-02
 0.42880001E+02  0.93286E-01
 0.42930000E+02  0.85671E-01
 0.42980000E+02  0.72790E-02
 0.43029999E+02 -0.44192E-03
 0.43080002E+02 -0.37271E-01
 0.43130001E+02 -0.32629E-01
 0.43180000E+02 -0.33608E-01
 0.43230000E+02 -0.51676E-01
 0.43279999E+02 -0.44063E-01
 0.43330002E+02 -0.58054E-01
 0.43380001E+02  0.27260E-01
 0.43430000E+02  0.65762E-01
 0.43480000E+02  0.40789E-01
 0.43529999E+02  0.34541E-01
 0.43580002E+02 -0.20698E-01
 0.43630001E+02  0.36414E-02
 0.43680000E+02  0.31601E-01
 0.43730000E+02  0.54049E-01
 0.43779999E+02  0.57978E-01
 0.43830002E+02 -0.14599E-02
 0.43880001E+02 -0.20411E-01
 0.43930000E+02 -0.78727E-01
 0.43980000E+02 -0.14887E+00
 0.44029999E+02 -0.13307E+00
 0.44080002E+02 -0.43364E-01
 0.44130001E+02  0.60348E-01
 0.44180000E+02  0.13258E+00
 0.44230000E+02  0.12684E+00
 0.44279999E+02  0.88838E-01
 0.44330002E+02  0.62321E-01
 0.44380001E+02  0.81640E-02
 0.44430000E+02 -0.66119E-01
 0.44480000E+02 -0.89439E-01
 0.44529999E+02 -0.17056E-01
 0.44580002E+02  0.81167E-02
 0.44630001E+02 -0.29056E-01
 0.44680000E+02 -0.16539E-02
 0.44730000E+02  0.70807E-02
 0.44779999E+02 -0.66835E-01
 0.44830002E+02 -0.32781E-01
 0.44880001E+02  0.58338E-01
 0.44930000E+02  0.29659E-01
 0.44980000E+02 -0.12288E-02
 0.45030003E+02  0.34665E-02
 0.45080002E+02 -0.19323E-01
 0.45130001E+02 -0.52837E-01
 0.45180000E+02 -0.54410E-01
 0.45230000E+02 -0.28685E-01
 0.45280003E+02  0.15530E-01
 0.45330002E+02  0.49450E-01
 0.45380001E+02  0.80825E-01
 0.45430000E+02  0.94839E-01
 0.45480000E+02  0.28054E-01
 0.45530003E+02 -0.71021E-02
 0.45580002E+02 -0.26080E-01
 0.45630001E+02 -0.71692E-01
 0.45680000E+02 -0.52379E-01
 0.45730000E+02 -0.11628E-01
 0.45780003E+02  0.44353E-01
 0.45830002E+02  0.83456E-01
 0.45880001E+02  0.49806E-01
 0.45930000E+02  0.13375E-01
 0.45980000E+02 -0.42112E-01
 0.46030003E+02 -0.82147E-01
 0.46080002E+02 -0.76576E-01
 0.46130001E+02 -0.55774E-01
 0.46180000E+02 -0.97523E-05
 0.46230000E+02  0.49783E-01
 0.46280003E+02  0.88021E-01
 0.46330002E+02  0.73309E-01
 0.46380001E+02  0.31226E-01
 0.46430000E+02 -0.21180E-01
 0.46480000E+02 -0.71547E-01
 0.46530003E+02 -0.65682E-01
 0.46580002E+02 -0.54586E-01
 0.46630001E+02 -0.14491E-01
 0.46680000E+02  0.12711E-02
 0.46730000E+02  0.28184E-02
 0.46780003E+02  0.24618E-01
 0.46830002E+02  0.95666E-02
 0.46880001E+02  0.43069E-01
 0.46930000E+02  0.79738E-01
 0.46980000E+02  0.63477E-01
 0.47030003E+02  0.42162E-01
 0.47080002E+02 -0.20297E-01
 0.47130001E+02 -0.72204E-01
 0.47180000E+02 -0.78119E-01
 0.47230000E+02 -0.54457E-01
 0.47280003E+02  0.14494E-01
 0.47330002E+02  0.43161E-01
 0.47380001E+02 -0.16402E-01
 0.47430000E+02 -0.49576E-01
 0.47480000E+02  0.61082E-02
 0.47530003E+02  0.31230E-01
 0.47580002E+02  0.15427E-01
 0.47630001E+02  0.28740E-01
 0.47680000E+02  0.37897E-01
 0.47730000E+02  0.36726E-01
 0.47780003E+02  0.11209E-01
 0.47830002E+02 -0.27147E-01
 0.47880001E+02 -0.59398E-01
 0.47930000E+02 -0.70149E-01
 0.47980000E+02 -0.43792E-01
 0.48030003E+02 -0.24984E-02
 0.48080002E+02  0.43778E-01
 0.48130001E+02  0.36092E-01
 0.48180000E+02  0.11965E-01
 0.48230000E+02  0.36615E-01
 0.48280003E+02  0.22207E-01
 0.48330002E+02 -0.35202E-01
 0.48380001E+02 -0.72842E-01
 0.48430000E+02 -0.42536E-01
 0.48480000E+02  0.45873E-01
 0.48530003E+02  0.78046E-01
 0.48580002E+02  0.66328E-01
 0.48630001E+02  0.34400E-01
 0.48680000E+02 -0.28909E-01
 0.48730000E+02 -0.34067E-01
 0.48780003E+02  0.96120E-03
 0.48830002E+02 -0.13102E-01
 0.48880001E+02 -0.58670E-01
 0.48930000E+02 -0.68182E-01
 0.48980000E+02 -0.16103E-01
 0.49030003E+02  0.26255E-01
 0.49080002E+02  0.29045E-01
 0.49130001E+02  0.39093E-01
 0.49180000E+02  0.46623E-01
 0.49230000E+02  0.54488E-01
 0.49280003E+02  0.22509E-01
 0.49330002E+02 -0.34621E-01
 0.49380001E+02 -0.44586E-01
 0.49430000E+02 -0.46125E-01
 0.49480000E+02 -0.27525E-01
 0.49530003E+02 -0.90355E-03
 0.49580002E+02  0.23130E-01
 0.49630001E+02  0.53957E-01
 0.49680000E+02  0.50647E-01
 0.49730000E+02  0.19067E-01
 0.49780003E+02 -0.32745E-01
 0.49830002E+02 -0.55281E-01
 0.49880001E+02 -0.62392E-01
 0.49930000E+02 -0.58248E-01
 0.49980000E+02 -0.64881E-02
 0.50030003E+02  0.25950E-01
 0.50080002E+02  0.36155E-01
 0.50130001E+02  0.20303E-01
 0.50180000E+02 -0.57687E-02
 0.50230000E+02  0.23205E-02
 0.50280003E+02 -0.41500E-02
 0.50330002E+02 -0.27075E-01
 0.50380001E+02 -0.26283E-01
 0.50430000E+02  0.21238E-01
 0.50480000E+02  0.62267E-01
 0.50530003E+02  0.57930E-01
 0.50580002E+02  0.38176E-01
 0.50630001E+02  0.12128E-01
 0.50680000E+02  0.39518E-02
 0.50730000E+02 -0.15753E-01
 0.50780003E+02 -0.37601E-01
 0.50830002E+02 -0.42677E-01
 0.50880001E+02 -0.63069E-01
 0.50930000E+02 -0.76895E-01
 0.50980000E+02 -0.51774E-01
 0.51030003E+02 -0.10372E-01
 0.51080002E+02  0.16027E-01
 0.51130001E+02  0.57169E-01
 0.51180000E+02  0.89248E-01
 0.51230000E+02  0.82695E-01
 0.51280003E+02  0.76177E-01
 0.51330002E+02  0.64882E-01
 0.51380001E+02  0.15994E-01
 0.51430000E+02 -0.44097E-01
 0.51480000E+02 -0.80578E-01
 0.51530003E+02 -0.93071E-01
 0.51580002E+02 -0.81369E-01
 0.51630001E+02 -0.47564E-01
 0.51680000E+02 -0.30721E-01
 0.51730000E+02 -0.15733E-01
 0.51780003E+02  0.43179E-01
 0.51830002E+02  0.72752E-01
 0.51880001E+02  0.66821E-01
 0.51930000E+02  0.81110E-01
 0.51980000E+02  0.74428E-01
 0.52030003E+02  0.26552E-01
 0.52080002E+02 -0.26334E-01
 0.52130001E+02 -0.63810E-01
 0.52180000E+02 -0.58500E-01
 0.52230000E+02 -0.40649E-01
 0.52280003E+02 -0.54799E-01
 0.52330002E+02 -0.42986E-01
 0.52380001E+02  0.39778E-02
 0.52430000E+02  0.45825E-01
 0.52480000E+02  0.58804E-01
 0.52530003E+02  0.42101E-01
 0.52580002E+02  0.20047E-01
 0.52630001E+02 -0.66021E-02
 0.52680000E+02 -0.37202E-01
 0.52730000E+02 -0.52728E-01
 0.52780003E+02 -0.61973E-01
 0.52830002E+02 -0.59729E-01
 0.52880001E+02 -0.28170E-01
 0.52930000E+02 -0.13583E-01
 0.52980000E+02  0.49802E-02
 0.53030003E+02  0.53519E-01
 0.53080002E+02  0.82849E-01
 0.53130001E+02  0.75974E-01
 0.53180000E+02  0.57747E-01
 0.53230000E+02  0.43027E-01
 0.53280003E+02  0.85868E-02
 0.53330002E+02 -0.31317E-01
 0.53380001E+02 -0.43594E-01
 0.53430000E+02 -0.31352E-01
 0.53480000E+02 -0.15500E-01
 0.53530003E+02  0.11673E-01
 0.53580002E+02  0.22314E-01
 0.53630001E+02  0.17402E-01
 0.53680000E+02  0.45002E-01
 0.53730000E+02  0.44891E-01
 0.53780003E+02  0.15786E-01
 0.53830002E+02  0.50421E-02
 0.53880001E+02 -0.11787E-01
 0.53930000E+02 -0.44119E-01
 0.53980000E+02 -0.88313E-01
 0.54030003E+02 -0.12647E+00
 0.54080002E+02 -0.13648E+00
 0.54130001E+02 -0.12021E+00
 0.54180000E+02 -0.62119E-01
 0.54230000E+02  0.26351E-01
 0.54280003E+02  0.88838E-01
 0.54330002E+02  0.12741E+00
 0.54380001E+02  0.15369E+00
 0.54430000E+02  0.13632E+00
 0.54480000E+02  0.86392E-01
 0.54530003E+02  0.38778E-01
 0.54580002E+02 -0.17665E-01
 0.54630001E+02 -0.64491E-01
 0.54680000E+02 -0.72174E-01
 0.54730000E+02 -0.69473E-01
 0.54780003E+02 -0.59702E-01
 0.54830002E+02 -0.31294E-01
 0.54880001E+02 -0.42903E-02
 0.54930000E+02  0.13065E-01
 0.54980000E+02  0.24574E-01
 0.55030003E+02  0.25770E-01
 0.55080002E+02  0.20968E-01
 0.55130001E+02  0.21457E-01
 0.55180000E+02  0.34527E-01
 0.55230000E+02  0.31069E-01
 0.55280003E+02  0.16181E-01
 0.55330002E+02  0.35385E-02
 0.55380001E+02 -0.30986E-01
 0.55430000E+02 -0.41466E-01
 0.55480000E+02 -0.38136E-01
 0.55530003E+02 -0.48885E-01
 0.55580002E+02 -0.45193E-01
 0.55630001E+02 -0.30070E-01
 0.55680000E+02  0.15026E-03
 0.55730000E+02  0.29121E-01
 0.55780003E+02  0.29096E-01
 0.55830002E+02  0.15482E-01
 0.55880001E+02  0.23971E-01
 0.55930000E+02  0.29462E-01
 0.55980000E+02  0.20583E-01
 0.56030003E+02  0.29455E-01
 0.56080002E+02  0.80377E-02
 0.56130001E+02 -0.32622E-01
 0.56180000E+02 -0.32137E-01
 0.56230000E+02 -0.26966E-01
 0.56280003E+02 -0.32371E-01
 0.56330002E+02 -0.44433E-01
 0.56380001E+02 -0.42007E-01
 0.56430000E+02  0.27346E-03
 0.56480000E+02  0.40959E-01
 0.56530003E+02  0.60577E-01
 0.56580002E+02  0.51396E-01
 0.56630001E+02  0.24585E-01
 0.56680000E+02  0.10512E-01
 0.56730000E+02 -0.58937E-02
 0.56780003E+02 -0.13993E-01
 0.56830002E+02 -0.39537E-02
 0.56880001E+02  0.45468E-02
 0.56930000E+02  0.21861E-01
 0.56980000E+02  0.35744E-01
 0.57030003E+02  0.21173E-01
 0.57080002E+02 -0.47023E-02
 0.57130001E+02 -0.40519E-01
 0.57180000E+02 -0.59169E-01
 0.57230000E+02 -0.32962E-01
 0.57280003E+02 -0.96801E-02
 0.57330002E+02  0.38860E-02
 0.57380001E+02  0.97394E-02
 0.57430000E+02  0.95008E-02
 0.57480000E+02  0.16456E-01
 0.57530003E+02  0.87501E-02
 0.57580002E+02 -0.17008E-01
 0.57630001E+02 -0.44115E-01
 0.57680000E+02 -0.38772E-01
 0.57730000E+02 -0.82294E-02
 0.57780003E+02  0.15637E-01
 0.57830002E+02  0.27153E-01
 0.57880001E+02  0.38077E-01
 0.57930000E+02  0.54680E-01
 0.57980000E+02  0.60011E-01
 0.58030003E+02  0.49142E-01
 0.58080002E+02  0.19156E-01
 0.58130001E+02 -0.99976E-02
 0.58180000E+02 -0.28097E-01
 0.58230000E+02 -0.44050E-01
 0.58280003E+02 -0.43388E-01
 0.58330002E+02 -0.28667E-01
 0.58380001E+02 -0.20583E-01
 0.58430000E+02 -0.26585E-01
 0.58480000E+02 -0.32512E-01
 0.58530003E+02 -0.15531E-01
 0.58580002E+02  0.14726E-01
 0.58630001E+02  0.26886E-01
 0.58680000E+02  0.23713E-01
 0.58730000E+02  0.12783E-01
 0.58780003E+02 -0.34742E-02
 0.58830002E+02 -0.20984E-01
 0.58880001E+02 -0.30680E-01
 0.58930000E+02 -0.25006E-01
 0.58980000E+02 -0.10084E-01
 0.59030003E+02  0.71207E-02
 0.59080002E+02  0.19808E-01
 0.59130001E+02  0.23298E-01
 0.59180000E+02  0.17366E-01
 0.59230000E+02  0.19924E-01
 0.59280003E+02  0.16189E-01
 0.59330002E+02  0.20948E-02
 0.59380001E+02  0.33149E-02
 0.59430000E+02  0.63177E-02
 0.59480000E+02  0.13606E-01
 0.59530003E+02  0.27731E-01
 0.59580002E+02  0.23840E-01
 0.59630001E+02  0.10666E-01
 0.59680000E+02 -0.94228E-03
 0.59730000E+02 -0.19425E-01
 0.59780003E+02 -0.29887E-01
 0.59830002E+02 -0.25686E-01
 0.59880001E+02 -0.18796E-01
 0.59930000E+02 -0.92199E-02
 0.59980000E+02 -0.13734E-02
 0.60030003E+02 -0.53059E-02
 0.60080002E+02 -0.68178E-02
 0.60130001E+02 -0.57326E-02
 0.60180000E+02 -0.13593E-01
 0.60230000E+02 -0.77943E-02
 0.60280003E+02  0.15348E-01
 0.60330002E+02  0.39356E-01
 0.60380001E+02  0.42391E-01
 0.60430000E+02  0.30119E-01
 0.60480000E+02  0.17260E-01
 0.60530003E+02 -0.97367E-02
 0.60580002E+02 -0.28311E-01
 0.60630001E+02 -0.44152E-01
 0.60680000E+02 -0.55710E-01
 0.60730000E+02 -0.35196E-01
 0.60780003E+02 -0.10873E-01
 0.60830002E+02  0.60620E-02
 0.60880001E+02  0.14761E-01
 0.60930000E+02  0.12923E-01
 0.60980000E+02  0.10655E-01
 0.61030003E+02  0.13394E-01
 0.61080002E+02  0.11368E-01
 0.61130001E+02  0.38283E-02
 0.61180000E+02  0.12433E-01
 0.61230000E+02  0.22539E-01
 0.61280003E+02  0.23420E-01
 0.61330002E+02  0.17669E-01
 0.61380001E+02  0.12564E-01
 0.61430000E+02  0.66458E-02
 0.61480000E+02 -0.81035E-02
 0.61530003E+02 -0.14715E-01
 0.61580002E+02 -0.15784E-01
 0.61630001E+02 -0.10887E-01
 0.61680000E+02 -0.32236E-02
 0.61730000E+02 -0.90160E-02
 0.61780003E+02 -0.26838E-01
 0.61830002E+02 -0.33402E-01
 0.61880001E+02 -0.29167E-01
 0.61930000E+02 -0.25435E-01
 0.61980000E+02 -0.14461E-01
 0.62030003E+02 -0.11646E-01
 0.62080002E+02 -0.53922E-02
 0.62130001E+02  0.17086E-01
 0.62180000E+02  0.34432E-01
 0.62230000E+02  0.42199E-01
 0.62280003E+02  0.50157E-01
 0.62330002E+02  0.39974E-01
 0.62380001E+02  0.16751E-01
 0.62430000E+02  0.19691E-01
 0.62480000E+02  0.30431E-01
 0.62530003E+02  0.21174E-01
 0.62580002E+02 -0.16299E-02
 0.62630001E+02 -0.18730E-01
 0.62680000E+02 -0.29278E-01
 0.62730000E+02 -0.32623E-01
 0.62780003E+02 -0.26483E-01
 0.62830002E+02 -0.30458E-01
 0.62880001E+02 -0.30135E-01
 0.62930000E+02 -0.85791E-02
 0.62980000E+02  0.17940E-02
 0.63030003E+02 -0.66950E-02
 0.63080002E+02 -0.10988E-01
 0.63130001E+02 -0.22590E-01
 0.63180000E+02 -0.30399E-01
 0.63230000E+02 -0.17154E-01
 0.63280003E+02 -0.77610E-02
 0.63330002E+02 -0.18146E-02
 0.63380001E+02  0.99329E-02
 0.63430000E+02  0.21652E-01
 0.63480000E+02  0.33267E-01
 0.63530003E+02  0.37719E-01
 0.63580002E+02  0.49043E-01
 0.63630001E+02  0.66091E-01
 0.63680000E+02  0.64453E-01
 0.63730000E+02  0.51311E-01
 0.63780003E+02  0.21156E-01
 0.63830002E+02 -0.20018E-01
 0.63880001E+02 -0.49317E-01
 0.63930000E+02 -0.62304E-01
 0.63980000E+02 -0.64090E-01
 0.64029999E+02 -0.53134E-01
 0.64080002E+02 -0.22620E-01
 0.64129997E+02  0.12908E-01
 0.64180000E+02  0.37978E-01
 0.64230003E+02  0.32552E-01
 0.64279999E+02  0.65248E-02
 0.64330002E+02 -0.12093E-01
 0.64379997E+02 -0.29454E-01
 0.64430000E+02 -0.49225E-01
 0.64480003E+02 -0.47917E-01
 0.64529999E+02 -0.22204E-01
 0.64580002E+02 -0.18842E-02
 0.64629997E+02  0.18464E-01
 0.64680000E+02  0.30824E-01
 0.64730003E+02  0.19758E-01
 0.64779999E+02  0.80861E-02
 0.64830002E+02  0.52015E-02
 0.64879997E+02  0.13423E-01
 0.64930000E+02  0.17358E-01
 0.64980003E+02  0.17394E-01
 0.65029999E+02  0.16800E-01
 0.65080002E+02  0.21511E-02
 0.65129997E+02 -0.14151E-01
 0.65180000E+02 -0.30406E-01
 0.65230003E+02 -0.25990E-01
 0.65279999E+02 -0.64565E-02
 0.65330002E+02  0.10742E-02
 0.65379997E+02  0.12447E-01
 0.65430000E+02  0.25164E-01
 0.65480003E+02  0.30384E-01
 0.65529999E+02  0.30333E-01
 0.65580002E+02  0.29928E-01
 0.65629997E+02  0.22315E-01
 0.65680000E+02  0.11428E-01
 0.65730003E+02  0.15837E-02
 0.65779999E+02 -0.17122E-01
 0.65830002E+02 -0.33597E-01
 0.65879997E+02 -0.41647E-01
 0.65930000E+02 -0.42813E-01
 0.65980003E+02 -0.35203E-01
 0.66029999E+02 -0.99540E-02
 0.66080002E+02  0.13096E-01
 0.66129997E+02  0.21399E-01
 0.66180000E+02  0.22492E-01
 0.66230003E+02  0.73030E-02
 0.66279999E+02 -0.75116E-02
 0.66330002E+02 -0.19881E-01
 0.66379997E+02 -0.25678E-01
 0.66430000E+02 -0.26048E-01
 0.66480003E+02 -0.20424E-01
 0.66529999E+02  0.81813E-02
 0.66580002E+02  0.24798E-01
 0.66629997E+02  0.27891E-01
 0.66680000E+02  0.31775E-01
 0.66730003E+02  0.32191E-01
 0.66779999E+02  0.29495E-01
 0.66830002E+02  0.10836E-01
 0.66879997E+02 -0.57667E-02
 0.66930000E+02 -0.17117E-01
 0.66980003E+02 -0.30252E-01
 0.67029999E+02 -0.29099E-01
 0.67080002E+02 -0.20505E-01
 0.67129997E+02 -0.11107E-01
 0.67180000E+02  0.78910E-02
 0.67230003E+02  0.28953E-01
 0.67279999E+02  0.43375E-01
 0.67330002E+02  0.45774E-01
 0.67379997E+02  0.29887E-01
 0.67430000E+02  0.10876E-01
 0.67480003E+02 -0.33408E-02
 0.67529999E+02 -0.18264E-01
 0.67580002E+02 -0.33546E-01
 0.67629997E+02 -0.50004E-01
 0.67680000E+02 -0.52251E-01
 0.67730003E+02 -0.36999E-01
 0.67779999E+02 -0.22072E-01
 0.67830002E+02 -0.76550E-03
 0.67879997E+02  0.27205E-01
 0.67930000E+02  0.45443E-01
 0.67980003E+02  0.44722E-01
 0.68029999E+02  0.32274E-01
 0.68080002E+02  0.27321E-01
 0.68129997E+02  0.20813E-01
 0.68180000E+02 -0.12018E-02
 0.68230003E+02 -0.27995E-01
 0.68279999E+02 -0.39690E-01
 0.68330002E+02 -0.28553E-01
 0.68379997E+02 -0.15223E-01
 0.68430000E+02 -0.98255E-02
 0.68480003E+02 -0.14704E-01
 0.68529999E+02 -0.17852E-01
 0.68580002E+02 -0.12457E-01
 0.68629997E+02 -0.20638E-01
 0.68680000E+02 -0.17474E-01
 0.68730003E+02  0.45584E-02
 0.68779999E+02  0.19806E-01
 0.68830002E+02  0.32180E-01
 0.68879997E+02  0.32794E-01
 0.68930000E+02  0.21180E-01
 0.68980003E+02  0.17966E-01
 0.69029999E+02  0.13788E-01
 0.69080002E+02  0.16623E-02
 0.69129997E+02 -0.48882E-02
 0.69180000E+02 -0.14386E-01
 0.69230003E+02 -0.23234E-01
 0.69279999E+02 -0.18630E-01
 0.69330002E+02 -0.13087E-01
 0.69379997E+02 -0.10963E-01
 0.69430000E+02  0.41879E-03
 0.69480003E+02  0.13270E-01
 0.69529999E+02  0.17789E-01
 0.69580002E+02  0.21863E-01
 0.69629997E+02  0.18080E-01
 0.69680000E+02  0.10402E-01
 0.69730003E+02  0.47702E-02
 0.69779999E+02 -0.54122E-02
 0.69830002E+02 -0.10402E-01
 0.69879997E+02 -0.88955E-02
 0.69930000E+02 -0.22287E-02
 0.69980003E+02  0.21145E-03
 0.70029999E+02 -0.42377E-02
 0.70080002E+02  0.27571E-02
 0.70129997E+02  0.13067E-01
 0.70180000E+02  0.20662E-01
 0.70230003E+02  0.15308E-01
 0.70279999E+02  0.32228E-03
 0.70330002E+02  0.23996E-02
 0.70380005E+02 -0.45230E-02
 0.70430000E+02 -0.19210E-01
 0.70480003E+02 -0.21046E-01
 0.70529999E+02 -0.20906E-01
 0.70580002E+02 -0.13158E-01
 0.70630005E+02 -0.10303E-01
 0.70680000E+02 -0.90938E-02
 0.70730003E+02 -0.79458E-02
 0.70779999E+02 -0.10470E-01
 0.70830002E+02  0.12187E-03
 0.70880005E+02  0.20253E-02
 0.70930000E+02 -0.10821E-02
 0.70980003E+02  0.49902E-02
 0.71029999E+02  0.35275E-02
 0.71080002E+02  0.45551E-03
 0.71130005E+02  0.78603E-03
 0.71180000E+02  0.64247E-02
 0.71230003E+02  0.22252E-01
 0.71279999E+02  0.36057E-01
 0.71330002E+02  0.43098E-01
 0.71380005E+02  0.43389E-01
 0.71430000E+02  0.33626E-01
 0.71480003E+02  0.18058E-01
 0.71529999E+02 -0.73657E-02
 0.71580002E+02 -0.37465E-01
 0.71630005E+02 -0.51156E-01
 0.71680000E+02 -0.44562E-01
 0.71730003E+02 -0.38027E-01
 0.71779999E+02 -0.39379E-01
 0.71830002E+02 -0.33693E-01
 0.71880005E+02 -0.23381E-01
 0.71930000E+02 -0.18820E-01
 0.71980003E+02 -0.90790E-02
 0.72029999E+02  0.75807E-02
 0.72080002E+02  0.20544E-01
 0.72130005E+02  0.34917E-01
 0.72180000E+02  0.45696E-01
 0.72230003E+02  0.44240E-01
 0.72279999E+02  0.40701E-01
 0.72330002E+02  0.32059E-01
 0.72380005E+02  0.15336E-01
 0.72430000E+02  0.23302E-02
 0.72480003E+02 -0.11725E-01
 0.72529999E+02 -0.22400E-01
 0.72580002E+02 -0.23496E-01
 0.72630005E+02 -0.22500E-01
 0.72680000E+02 -0.16317E-01
 0.72730003E+02 -0.15327E-01
 0.72779999E+02 -0.21930E-01
 0.72830002E+02 -0.23148E-01
 0.72880005E+02 -0.11483E-01
 0.72930000E+02  0.62099E-02
 0.72980003E+02  0.78996E-02
 0.73029999E+02  0.82181E-02
 0.73080002E+02  0.13606E-01
 0.73130005E+02  0.12682E-01
 0.73180000E+02  0.15988E-01
 0.73230003E+02  0.94537E-02
 0.73279999E+02 -0.83571E-04
 0.73330002E+02  0.20290E-02
 0.73380005E+02 -0.74116E-03
 0.73430000E+02 -0.74668E-02
 0.73480003E+02 -0.78153E-02
 0.73529999E+02  0.68285E-03
 0.73580002E+02  0.14314E-01
 0.73630005E+02  0.22681E-01
 0.73680000E+02  0.21787E-01
 0.73730003E+02  0.21745E-01
 0.73779999E+02  0.16294E-01
 0.73830002E+02  0.44906E-02
 0.73880005E+02 -0.11547E-01
 0.73930000E+02 -0.33197E-01
 0.73980003E+02 -0.49130E-01
 0.74029999E+02 -0.50109E-01
 0.74080002E+02 -0.31521E-01
 0.74130005E+02 -0.16254E-01
 0.74180000E+02  0.24892E-02
 0.74230003E+02  0.29129E-01
 0.74279999E+02  0.37664E-01
 0.74330002E+02  0.39807E-01
 0.74380005E+02  0.36405E-01
 0.74430000E+02  0.27585E-01
 0.74480003E+02  0.20167E-01
 0.74529999E+02  0.91655E-02
 0.74580002E+02 -0.37976E-02
 0.74630005E+02 -0.21249E-01
 0.74680000E+02 -0.29143E-01
 0.74730003E+02 -0.23760E-01
 0.74779999E+02 -0.24547E-01
 0.74830002E+02 -0.32849E-01
 0.74880005E+02 -0.39200E-01
 0.74930000E+02 -0.33584E-01
 0.74980003E+02 -0.21929E-01
 0.75029999E+02 -0.12050E-01
 0.75080002E+02  0.30150E-02
 0.75130005E+02  0.20055E-01
 0.75180000E+02  0.32329E-01
 0.75230003E+02  0.36550E-01
 0.75279999E+02  0.29138E-01
 0.75330002E+02  0.16577E-01
 0.75380005E+02  0.69605E-02
 0.75430000E+02  0.83612E-03
 0.75480003E+02  0.18310E-02
 0.75529999E+02  0.10317E-01
 0.75580002E+02  0.20059E-01
 0.75630005E+02  0.18476E-01
 0.75680000E+02  0.12723E-01
 0.75730003E+02  0.89482E-02
 0.75779999E+02 -0.40858E-02
 0.75830002E+02 -0.85690E-02
 0.75880005E+02 -0.80362E-02
 0.75930000E+02 -0.14376E-01
 0.75980003E+02 -0.17082E-01
 0.76029999E+02 -0.14938E-01
 0.76080002E+02 -0.78249E-02
 0.76130005E+02 -0.71483E-02
 0.76180000E+02 -0.10412E-01
 0.76230003E+02 -0.61395E-02
 0.76279999E+02 -0.60058E-03
 0.76330002E+02  0.19909E-02
 0.76380005E+02 -0.46047E-02
 0.76430000E+02 -0.12446E-01
 0.76480003E+02 -0.57709E-02
 0.76529999E+02 -0.84543E-04
 0.76580002E+02 -0.16688E-02
 0.76630005E+02 -0.26545E-05
 0.76680000E+02  0.60486E-02
 0.76730003E+02  0.18782E-01
 0.76779999E+02  0.25085E-01
 0.76830002E+02  0.19302E-01
 0.76880005E+02  0.14067E-01
 0.76930000E+02  0.17011E-01
 0.76980003E+02  0.17816E-01
 0.77029999E+02  0.74604E-02
 0.77080002E+02 -0.69611E-04
 0.77130005E+02 -0.10965E-01
 0.77180000E+02 -0.22543E-01
 0.77230003E+02 -0.24552E-01
 0.77279999E+02 -0.30614E-01
 0.77330002E+02 -0.34148E-01
 0.77380005E+02 -0.25023E-01
 0.77430000E+02 -0.12932E-01
 0.77480003E+02 -0.45267E-02
 0.77529999E+02  0.40707E-02
 0.77580002E+02  0.75433E-02
 0.77630005E+02  0.73625E-02
 0.77680000E+02  0.13009E-01
 0.77730003E+02  0.18073E-01
 0.77779999E+02  0.22391E-01
 0.77830002E+02  0.25910E-01
 0.77880005E+02  0.17869E-01
 0.77930000E+02  0.77948E-02
 0.77980003E+02  0.63711E-02
 0.78029999E+02  0.42336E-02
 0.78080002E+02  0.11441E-02
 0.78130005E+02  0.12469E-03
 0.78180000E+02 -0.38259E-02
 0.78230003E+02 -0.12387E-01
 0.78279999E+02 -0.17825E-01
 0.78330002E+02 -0.22451E-01
 0.78380005E+02 -0.29565E-01
 0.78430000E+02 -0.26926E-01
 0.78480003E+02 -0.19454E-01
 0.78529999E+02 -0.81411E-02
 0.78580002E+02  0.80808E-02
 0.78630005E+02  0.21596E-01
 0.78680000E+02  0.30693E-01
 0.78730003E+02  0.29919E-01
 0.78779999E+02  0.25728E-01
 0.78830002E+02  0.14782E-01
 0.78880005E+02  0.14969E-02
 0.78930000E+02 -0.46815E-02
 0.78980003E+02 -0.13073E-01
 0.79029999E+02 -0.19548E-01
 0.79080002E+02 -0.22582E-01
 0.79130005E+02 -0.22268E-01
 0.79180000E+02 -0.17319E-01
 0.79230003E+02 -0.10616E-01
 0.79279999E+02 -0.22317E-02
 0.79330002E+02  0.56381E-02
 0.79380005E+02  0.15905E-01
 0.79430000E+02  0.28424E-01
 0.79480003E+02  0.36443E-01
 0.79529999E+02  0.35627E-01
 0.79580002E+02  0.25814E-01
 0.79630005E+02  0.13811E-01
 0.79680000E+02  0.23488E-02
 0.79730003E+02 -0.88771E-02
 0.79779999E+02 -0.17932E-01
 0.79830002E+02 -0.20257E-01
 0.79880005E+02 -0.17535E-01
 0.79930000E+02 -0.16147E-01
 0.79980003E+02 -0.13186E-01
 0.80029999E+02 -0.91229E-02
 0.80080002E+02 -0.45662E-02
 0.80130005E+02  0.98017E-03
 0.80180000E+02  0.46787E-02
 0.80230003E+02  0.16533E-02
 0.80279999E+02 -0.80038E-03
 0.80330002E+02  0.21056E-02
 0.80380005E+02 -0.25160E-02
 0.80430000E+02 -0.11630E-01
 0.80480003E+02 -0.16712E-01
 0.80529999E+02 -0.15790E-01
 0.80580002E+02 -0.96863E-02
 0.80630005E+02 -0.18822E-02
 0.80680000E+02  0.46508E-02
 0.80730003E+02  0.75159E-02
 0.80779999E+02  0.90779E-02
 0.80830002E+02  0.15064E-01
 0.80880005E+02  0.17835E-01
 0.80930000E+02  0.15890E-01
 0.80980003E+02  0.18991E-01
 0.81029999E+02  0.17618E-01
 0.81080002E+02  0.15283E-01
 0.81130005E+02  0.14101E-01
 0.81180000E+02  0.80107E-02
 0.81230003E+02  0.22413E-02
 0.81279999E+02 -0.40155E-02
 0.81330002E+02 -0.11492E-01
 0.81380005E+02 -0.19896E-01
 0.81430000E+02 -0.25850E-01
 0.81480003E+02 -0.28744E-01
 0.81529999E+02 -0.28613E-01
 0.81580002E+02 -0.24789E-01
 0.81630005E+02 -0.19285E-01
 0.81680000E+02 -0.94477E-02
 0.81730003E+02  0.49759E-02
 0.81779999E+02  0.14328E-01
 0.81830002E+02  0.14809E-01
 0.81880005E+02  0.11472E-01
 0.81930000E+02  0.55104E-02
 0.81980003E+02 -0.10659E-03
 0.82029999E+02 -0.33591E-02
 0.82080002E+02 -0.34629E-02
 0.82130005E+02 -0.42306E-02
 0.82180000E+02 -0.60227E-02
 0.82230003E+02 -0.26852E-02
 0.82279999E+02  0.24019E-02
 0.82330002E+02  0.84824E-02
 0.82380005E+02  0.14402E-01
 0.82430000E+02  0.17925E-01
 0.82480003E+02  0.21719E-01
 0.82529999E+02  0.21496E-01
 0.82580002E+02  0.19545E-01
 0.82630005E+02  0.18307E-01
 0.82680000E+02  0.13205E-01
 0.82730003E+02  0.72250E-02
 0.82779999E+02 -0.28745E-02
 0.82830002E+02 -0.13682E-01
 0.82880005E+02 -0.18908E-01
 0.82930000E+02 -0.23061E-01
 0.82980003E+02 -0.21779E-01
 0.83029999E+02 -0.17523E-01
 0.83080002E+02 -0.13055E-01
 0.83130005E+02 -0.37262E-02
 0.83180000E+02  0.24949E-02
 0.83230003E+02  0.91209E-03
 0.83279999E+02  0.63140E-03
 0.83330002E+02  0.46127E-02
 0.83380005E+02  0.10918E-01
 0.83430000E+02  0.16040E-01
 0.83480003E+02  0.13160E-01
 0.83529999E+02  0.77749E-02
 0.83580002E+02  0.43439E-02
 0.83630005E+02  0.14344E-02
 0.83680000E+02 -0.20783E-02
 0.83730003E+02 -0.64157E-02
 0.83779999E+02 -0.82084E-02
 0.83830002E+02 -0.99037E-02
 0.83880005E+02 -0.11389E-01
 0.83930000E+02 -0.10136E-01
 0.83980003E+02 -0.69365E-02
 0.84029999E+02 -0.35399E-02
 0.84080002E+02 -0.35748E-02
 0.84130005E+02 -0.54292E-02
 0.84180000E+02 -0.63651E-02
 0.84230003E+02 -0.79482E-02
 0.84279999E+02 -0.88678E-02
 0.84330002E+02 -0.11730E-01
 0.84380005E+02 -0.15005E-01
 0.84430000E+02 -0.94985E-02
 0.84480003E+02  0.19575E-02
 0.84529999E+02  0.14428E-01
 0.84580002E+02  0.23797E-01
 0.84630005E+02  0.30310E-01
 0.84680000E+02  0.34827E-01
 0.84730003E+02  0.30957E-01
 0.84779999E+02  0.25017E-01
 0.84830002E+02  0.20779E-01
 0.84880005E+02  0.12918E-01
 0.84930000E+02  0.34924E-02
 0.84980003E+02 -0.49001E-02
 0.85029999E+02 -0.11958E-01
 0.85080002E+02 -0.17415E-01
 0.85130005E+02 -0.22969E-01
 0.85180000E+02 -0.27114E-01
 0.85230003E+02 -0.24706E-01
 0.85279999E+02 -0.19042E-01
 0.85330002E+02 -0.16534E-01
 0.85380005E+02 -0.16379E-01
 0.85430000E+02 -0.13190E-01
 0.85480003E+02 -0.60833E-02
 0.85529999E+02 -0.15854E-02
 0.85580002E+02  0.23071E-02
 0.85630005E+02  0.66422E-02
 0.85680000E+02  0.66561E-02
 0.85730003E+02  0.72141E-02
 0.85779999E+02  0.92197E-02
 0.85830002E+02  0.11028E-01
 0.85880005E+02  0.12145E-01
 0.85930000E+02  0.12884E-01
 0.85980003E+02  0.15692E-01
 0.86029999E+02  0.17959E-01
 0.86080002E+02  0.17793E-01
 0.86130005E+02  0.13421E-01
 0.86180000E+02  0.42085E-02
 0.86230003E+02 -0.84081E-02
 0.86279999E+02 -0.20033E-01
 0.86330002E+02 -0.20909E-01
 0.86380005E+02 -0.11051E-01
 0.86430000E+02 -0.33551E-02
 0.86480003E+02  0.19917E-02
 0.86529999E+02  0.44831E-02
 0.86580002E+02  0.36036E-02
 0.86630005E+02  0.52963E-02
 0.86680000E+02  0.11624E-02
 0.86730003E+02 -0.11104E-02
 0.86779999E+02  0.60442E-02
 0.86830002E+02  0.10994E-01
 0.86880005E+02  0.99893E-02
 0.86930000E+02  0.46439E-02
 0.86980003E+02 -0.46791E-02
 0.87029999E+02 -0.12409E-01
 0.87080002E+02 -0.16741E-01
 0.87130005E+02 -0.23521E-01
 0.87180000E+02 -0.22181E-01
 0.87230003E+02 -0.10299E-01
 0.87279999E+02 -0.14075E-02
 0.87330002E+02  0.18323E-02
 0.87380005E+02  0.20393E-02
 0.87430000E+02  0.38904E-02
 0.87480003E+02  0.73058E-02
 0.87529999E+02  0.80960E-02
 0.87580002E+02  0.66523E-02
 0.87630005E+02  0.36940E-02
 0.87680000E+02  0.31826E-02
 0.87730003E+02  0.21307E-02
 0.87779999E+02 -0.41583E-02
 0.87830002E+02 -0.61957E-02
 0.87880005E+02 -0.33093E-02
 0.87930000E+02  0.40776E-04
 0.87980003E+02  0.20760E-02
 0.88029999E+02  0.17856E-02
 0.88080002E+02  0.39271E-03
 0.88130005E+02 -0.15880E-02
 0.88180000E+02 -0.14362E-02
 0.88230003E+02 -0.15816E-02
 0.88279999E+02 -0.41180E-03
 0.88330002E+02  0.33132E-02
 0.88380005E+02  0.42815E-02
 0.88430000E+02  0.40716E-02
 0.88480003E+02  0.66244E-02
 0.88529999E+02  0.84383E-02
 0.88580002E+02  0.61481E-02
 0.88630005E+02 -0.61982E-03
 0.88680000E+02 -0.65317E-02
 0.88730003E+02 -0.33238E-02
 0.88779999E+02  0.31529E-02
 0.88830002E+02  0.88275E-02
 0.88880005E+02  0.10525E-01
 0.88930000E+02  0.75164E-02
 0.88980003E+02  0.58431E-02
 0.89029999E+02  0.87383E-03
 0.89080002E+02 -0.54482E-02
 0.89130005E+02 -0.88544E-02
 0.89180000E+02 -0.94547E-02
 0.89230003E+02 -0.87593E-02
 0.89279999E+02 -0.93482E-02
 0.89330002E+02 -0.80273E-02
 0.89380005E+02 -0.69885E-02
 0.89430000E+02 -0.72103E-02
 0.89480003E+02 -0.77974E-02
 0.89529999E+02 -0.61075E-02
 0.89580002E+02 -0.52433E-03
 0.89630005E+02  0.41152E-02
 0.89680000E+02  0.96870E-02
 0.89730003E+02  0.11436E-01
 0.89779999E+02  0.90607E-02
 0.89830002E+02  0.94398E-02
 0.89880005E+02  0.75143E-02
 0.89930000E+02  0.47375E-02
 0.89980003E+02  0.37717E-02
 0.90029999E+02  0.20397E-02
 0.90080002E+02  0.76321E-03
 0.90130005E+02 -0.10887E-02
 0.90180000E+02 -0.41644E-02
 0.90230003E+02 -0.61233E-02
 0.90279999E+02 -0.83651E-02
 0.90330002E+02 -0.99106E-02
 0.90380005E+02 -0.10234E-01
 0.90430000E+02 -0.78926E-02
 0.90480003E+02 -0.30033E-03
 0.90529999E+02  0.39066E-02
 0.90580002E+02  0.59402E-02
 0.90630005E+02  0.10063E-01
 0.90680000E+02  0.95919E-02
 0.90730003E+02  0.53012E-02
 0.90779999E+02 -0.53097E-03
 0.90830002E+02 -0.74037E-02
 0.90880005E+02 -0.87917E-02
 0.90930000E+02 -0.75673E-02
 0.90980003E+02 -0.69595E-02
 0.91029999E+02 -0.10747E-02
 0.91080002E+02  0.54253E-02
 0.91130005E+02  0.10979E-01
 0.91180000E+02  0.14399E-01
 0.91230003E+02  0.11099E-01
 0.91279999E+02  0.69475E-02
 0.91330002E+02  0.45830E-02
 0.91380005E+02  0.23178E-02
 0.91430000E+02 -0.15970E-02
 0.91480003E+02 -0.80422E-02
 0.91529999E+02 -0.85807E-02
 0.91580002E+02 -0.46123E-02
 0.91630005E+02 -0.55150E-02
 0.91680000E+02 -0.59718E-02
 0.91730003E+02 -0.53952E-02
 0.91779999E+02 -0.71344E-02
 0.91830002E+02 -0.86244E-02
 0.91880005E+02 -0.94412E-02
 0.91930000E+02 -0.82105E-02
 0.91980003E+02 -0.43869E-02
 0.92029999E+02 -0.19778E-02
 0.92080002E+02  0.39219E-03
 0.92130005E+02  0.82696E-02
 0.92180000E+02  0.14426E-01
 0.92230003E+02  0.14723E-01
 0.92279999E+02  0.14380E-01
 0.92330002E+02  0.11875E-01
 0.92380005E+02  0.74259E-02
 0.92430000E+02  0.11222E-02
 0.92480003E+02 -0.50945E-02
 0.92529999E+02 -0.75008E-02
 0.92580002E+02 -0.84323E-02
 0.92630005E+02 -0.57874E-02
 0.92680000E+02 -0.28221E-02
 0.92730003E+02  0.29870E-03
 0.92779999E+02  0.69267E-02
 0.92830002E+02  0.78771E-02
 0.92880005E+02  0.47834E-02
 0.92930000E+02  0.28590E-02
 0.92980003E+02 -0.15242E-02
 0.93029999E+02 -0.64048E-02
 0.93080002E+02 -0.78658E-02
 0.93130005E+02 -0.68949E-02
 0.93180000E+02 -0.44854E-02
 0.93230003E+02  0.11361E-02
 0.93279999E+02  0.67488E-02
 0.93330002E+02  0.91963E-02
 0.93380005E+02  0.10436E-01
 0.93430000E+02  0.84151E-02
 0.93480003E+02  0.34343E-02
 0.93529999E+02 -0.14445E-02
 0.93580002E+02 -0.63638E-02
 0.93630005E+02 -0.10034E-01
 0.93680000E+02 -0.11122E-01
 0.93730003E+02 -0.83528E-02
 0.93779999E+02 -0.37977E-02
 0.93830002E+02 -0.28899E-02
 0.93880005E+02 -0.46628E-02
 0.93930000E+02 -0.64083E-02
 0.93980003E+02 -0.72499E-02
 0.94029999E+02 -0.52206E-02
 0.94080002E+02 -0.38915E-02
 0.94130005E+02 -0.37542E-02
 0.94180000E+02 -0.22331E-03
 0.94230003E+02  0.49300E-02
 0.94279999E+02  0.73391E-02
 0.94330002E+02  0.65878E-02
 0.94380005E+02  0.77462E-02
 0.94430000E+02  0.97676E-02
 0.94480003E+02  0.88188E-02
 0.94529999E+02  0.46031E-02
 0.94580002E+02 -0.92159E-03
 0.94630005E+02 -0.35738E-02
 0.94680000E+02 -0.55324E-02
 0.94730003E+02 -0.50719E-02
 0.94779999E+02 -0.13155E-02
 0.94830002E+02  0.31300E-02
 0.94880005E+02  0.89289E-02
 0.94930000E+02  0.11767E-01
 0.94980003E+02  0.11580E-01
 0.95029999E+02  0.91214E-02
 0.95080002E+02  0.49615E-02
 0.95130005E+02  0.40048E-02
 0.95180000E+02  0.28791E-02
 0.95230003E+02 -0.18254E-02
 0.95279999E+02 -0.68318E-02
 0.95330002E+02 -0.92066E-02
 0.95380005E+02 -0.95219E-02
 0.95430000E+02 -0.10524E-01
 0.95480003E+02 -0.11204E-01
 0.95529999E+02 -0.99396E-02
 0.95580002E+02 -0.68547E-02
 0.95630005E+02 -0.31447E-02
 0.95680000E+02 -0.56496E-03
 0.95730003E+02 -0.10923E-02
 0.95779999E+02 -0.55772E-02
 0.95830002E+02 -0.98373E-02
 0.95880005E+02 -0.12111E-01
 0.95930000E+02 -0.13522E-01
 0.95980003E+02 -0.11401E-01
 0.96029999E+02 -0.40838E-02
 0.96080002E+02  0.68650E-02
 0.96130005E+02  0.15992E-01
 0.96180000E+02  0.20087E-01
 0.96230003E+02  0.22071E-01
 0.96279999E+02  0.22105E-01
 0.96330002E+02  0.18953E-01
 0.96380005E+02  0.12904E-01
 0.96430000E+02  0.79431E-02
 0.96480003E+02  0.56379E-02
 0.96529999E+02  0.33503E-02
 0.96580002E+02  0.79886E-03
 0.96630005E+02 -0.27801E-02
 0.96680000E+02 -0.57849E-02
 0.96730003E+02 -0.78871E-02
 0.96779999E+02 -0.88573E-02
 0.96830002E+02 -0.84509E-02
 0.96880005E+02 -0.72036E-02
 0.96930000E+02 -0.45714E-02
 0.96980003E+02 -0.28499E-02
 0.97029999E+02 -0.34353E-03
 0.97080002E+02  0.29648E-02
 0.97130005E+02  0.37124E-02
 0.97180000E+02  0.21364E-02
 0.97230003E+02  0.23029E-03
 0.97279999E+02 -0.38581E-03
 0.97330002E+02 -0.37420E-02
 0.97380005E+02 -0.97761E-02
 0.97430000E+02 -0.12204E-01
 0.97480003E+02 -0.11031E-01
 0.97529999E+02 -0.76580E-02
 0.97580002E+02 -0.35642E-02
 0.97630005E+02 -0.67479E-03
 0.97680000E+02  0.26857E-02
 0.97730003E+02  0.50990E-02
 0.97779999E+02  0.51608E-02
 0.97830002E+02  0.55209E-02
 0.97880005E+02  0.55396E-02
 0.97930000E+02  0.31460E-02
 0.97980003E+02  0.14552E-02
 0.98029999E+02  0.23599E-02
 0.98080002E+02  0.27412E-02
 0.98130005E+02  0.13479E-02
 0.98180000E+02 -0.11445E-02
 0.98230003E+02 -0.31434E-02
 0.98279999E+02 -0.56858E-02
 0.98330002E+02 -0.91596E-02
 0.98380005E+02 -0.10200E-01
 0.98430000E+02 -0.83825E-02
 0.98480003E+02 -0.58699E-02
 0.98529999E+02 -0.27273E-02
 0.98580002E+02  0.24732E-02
 0.98630005E+02  0.71470E-02
 0.98680000E+02  0.10501E-01
 0.98730003E+02  0.13570E-01
 0.98779999E+02  0.15737E-01
 0.98830002E+02  0.16403E-01
 0.98880005E+02  0.14698E-01
 0.98930000E+02  0.10841E-01
 0.98980003E+02  0.58407E-02
 0.99029999E+02  0.25729E-02
 0.99080002E+02 -0.51686E-03
 0.99130005E+02 -0.64712E-02
 0.99180000E+02 -0.11723E-01
 0.99230003E+02 -0.13008E-01
 0.99279999E+02 -0.11788E-01
 0.99330002E+02 -0.98115E-02
 0.99380005E+02 -0.78717E-02
 0.99430000E+02 -0.49076E-02
 0.99480003E+02 -0.67799E-03
 0.99529999E+02  0.72929E-03
 0.99580002E+02 -0.31611E-02
 0.99630005E+02 -0.73254E-02
 0.99680000E+02 -0.80759E-02
 0.99730003E+02 -0.81826E-02
 0.99779999E+02 -0.59019E-02
 0.99830002E+02 -0.14057E-02
 0.99880005E+02  0.21916E-02
 0.99930000E+02  0.57626E-02
 0.99980003E+02  0.94554E-02
 0.10003000E+03  0.10889E-01
 0.10008000E+03  0.10129E-01
 0.10013000E+03  0.11793E-01
 0.10018000E+03  0.13544E-01
 0.10023000E+03  0.11535E-01
 0.10028000E+03  0.80833E-02
 0.10033000E+03  0.33864E-02
 0.10038000E+03 -0.67966E-03
 0.10043000E+03 -0.37085E-02
 0.10048000E+03 -0.74722E-02
 0.10053000E+03 -0.92466E-02
 0.10058000E+03 -0.82614E-02
 0.10063000E+03 -0.58747E-02
 0.10068000E+03 -0.44670E-02
 0.10073000E+03 -0.42817E-02
 0.10078000E+03 -0.36156E-02
 0.10083000E+03 -0.24316E-02
 0.10088000E+03 -0.62809E-03
 0.10093000E+03  0.16012E-02
 0.10098000E+03  0.30945E-02
 0.10103000E+03  0.32627E-02
 0.10108000E+03  0.33566E-02
 0.10113000E+03  0.19290E-02
 0.10118000E+03  0.61963E-04
 0.10123000E+03 -0.97069E-03
 0.10128000E+03 -0.27041E-02
 0.10133000E+03 -0.36545E-02
 0.10138000E+03 -0.35788E-02
 0.10143000E+03 -0.31121E-02
 0.10148000E+03 -0.26785E-02
 0.10153000E+03 -0.33007E-02
 0.10158000E+03 -0.55854E-02
 0.10163000E+03 -0.69396E-02
 0.10168000E+03 -0.65213E-02
 0.10173000E+03 -0.65574E-02
 0.10178000E+03 -0.58821E-02
 0.10183000E+03 -0.18930E-02
 0.10188000E+03  0.42218E-02
 0.10193000E+03  0.64613E-02
 0.10198000E+03  0.69029E-02
 0.10203000E+03  0.94669E-02
 0.10208000E+03  0.10263E-01
 0.10213000E+03  0.10162E-01
 0.10218000E+03  0.10506E-01
 0.10223000E+03  0.10105E-01
 0.10228000E+03  0.94241E-02
 0.10233000E+03  0.71819E-02
 0.10238000E+03  0.36503E-02
 0.10243000E+03  0.21724E-03
 0.10248000E+03 -0.24814E-02
 0.10253000E+03 -0.39681E-02
 0.10258000E+03 -0.62817E-02
 0.10263000E+03 -0.72534E-02
 0.10268000E+03 -0.52159E-02
 0.10273000E+03 -0.41243E-02
 0.10278000E+03 -0.40723E-02
 0.10283000E+03 -0.33909E-02
 0.10288000E+03 -0.30434E-02
 0.10293000E+03 -0.30162E-02
 0.10298000E+03 -0.24898E-02
 0.10303000E+03 -0.17451E-02
 0.10308000E+03 -0.13138E-02
 0.10313000E+03 -0.21497E-02
 0.10318000E+03 -0.27594E-02
 0.10323000E+03 -0.32216E-02
 0.10328000E+03 -0.33096E-02
 0.10333000E+03 -0.27495E-02
 0.10338000E+03 -0.65655E-03
 0.10343000E+03  0.46110E-02
 0.10348000E+03  0.73093E-02
 0.10353000E+03  0.78035E-02
 0.10358000E+03  0.90848E-02
 0.10363000E+03  0.97886E-02
 0.10368000E+03  0.89238E-02
 0.10373000E+03  0.52907E-02
 0.10378000E+03 -0.31400E-05
 0.10383000E+03 -0.50415E-02
 0.10388000E+03 -0.83063E-02
 0.10393000E+03 -0.10235E-01
 0.10398000E+03 -0.10841E-01
 0.10403000E+03 -0.10602E-01
 0.10408000E+03 -0.88843E-02
 0.10413000E+03 -0.47763E-02
 0.10418000E+03  0.25313E-04
 0.10423000E+03  0.35859E-02
 0.10428000E+03  0.45854E-02
 0.10433000E+03  0.56098E-02
 0.10438000E+03  0.52975E-02
 0.10443000E+03  0.18904E-02
 0.10448000E+03  0.13796E-02
 0.10453000E+03  0.30397E-02
 0.10458000E+03  0.21702E-02
 0.10463000E+03  0.90098E-03
 0.10468000E+03  0.12159E-02
 0.10473000E+03  0.36743E-02
 0.10478000E+03  0.71626E-02
 0.10483000E+03  0.87236E-02
 0.10488000E+03  0.65711E-02
 0.10493000E+03  0.84047E-03
 0.10498000E+03 -0.55363E-02
 0.10503000E+03 -0.11666E-01
 0.10508000E+03 -0.15533E-01
 0.10513000E+03 -0.14962E-01
 0.10518000E+03 -0.11558E-01
 0.10523000E+03 -0.55249E-02
 0.10528000E+03 -0.87984E-03
 0.10533000E+03  0.16010E-02
 0.10538000E+03  0.59940E-02
 0.10543000E+03  0.85948E-02
 0.10548000E+03  0.97123E-02
 0.10553000E+03  0.11434E-01
 0.10558000E+03  0.11411E-01
 0.10563000E+03  0.11354E-01
 0.10568000E+03  0.10318E-01
 0.10573000E+03  0.84793E-02
 0.10578000E+03  0.57814E-02
 0.10583000E+03 -0.10486E-03
 0.10588000E+03 -0.42708E-02
 0.10593000E+03 -0.65772E-02
 0.10598000E+03 -0.91919E-02
 0.10603000E+03 -0.95336E-02
 0.10608000E+03 -0.91435E-02
 0.10613000E+03 -0.85151E-02
 0.10618000E+03 -0.64039E-02
 0.10623000E+03 -0.38229E-02
 0.10628000E+03 -0.23846E-02
 0.10633000E+03 -0.35296E-02
 0.10638000E+03 -0.44803E-02
 0.10643000E+03 -0.42283E-02
 0.10648000E+03 -0.49936E-02
 0.10653000E+03 -0.44286E-02
 0.10658000E+03 -0.33821E-02
 0.10663000E+03 -0.12696E-02
 0.10668000E+03  0.37799E-02
 0.10673000E+03  0.71737E-02
 0.10678000E+03  0.96302E-02
 0.10683000E+03  0.11464E-01
 0.10688000E+03  0.10256E-01
 0.10693000E+03  0.82175E-02
 0.10698000E+03  0.55728E-02
 0.10703000E+03  0.17631E-02
 0.10708000E+03 -0.12415E-02
 0.10713000E+03 -0.36751E-02
 0.10718000E+03 -0.63621E-02
 0.10723000E+03 -0.80499E-02
 0.10728000E+03 -0.80549E-02
 0.10733000E+03 -0.55941E-02
 0.10738000E+03 -0.20014E-02
 0.10743000E+03  0.98959E-03
 0.10748000E+03  0.30615E-02
 0.10753000E+03  0.30364E-02
 0.10758000E+03  0.18679E-02
 0.10763000E+03  0.11177E-02
 0.10768000E+03  0.17182E-02
 0.10773000E+03  0.33401E-02
 0.10778000E+03  0.40094E-02
 0.10783000E+03  0.43217E-02
 0.10788000E+03  0.49527E-02
 0.10793000E+03  0.37825E-02
 0.10798000E+03  0.13216E-02
 0.10803000E+03 -0.16555E-02
 0.10808000E+03 -0.48683E-02
 0.10813000E+03 -0.55491E-02
 0.10818000E+03 -0.40364E-02
 0.10823000E+03 -0.17515E-02
 0.10828000E+03  0.67915E-03
 0.10833000E+03  0.23346E-02
 0.10838000E+03  0.40873E-02
 0.10843000E+03  0.54782E-02
 0.10848000E+03  0.45404E-02
 0.10853000E+03  0.29773E-02
 0.10858000E+03  0.81786E-03
 0.10863000E+03 -0.90702E-03
 0.10868000E+03 -0.41442E-05
 0.10873000E+03 -0.64844E-03
 0.10878000E+03 -0.22500E-02
 0.10883000E+03 -0.32868E-02
 0.10888000E+03 -0.41987E-02
 0.10893000E+03 -0.49873E-02
 0.10898000E+03 -0.67787E-02
 0.10903000E+03 -0.68010E-02
 0.10908000E+03 -0.55583E-02
 0.10913000E+03 -0.50535E-02
 0.10918000E+03 -0.39992E-02
 0.10923000E+03 -0.25260E-02
 0.10928000E+03 -0.44374E-03
 0.10933000E+03  0.16437E-02
 0.10938000E+03  0.23318E-02
 0.10943000E+03  0.36920E-02
 0.10948000E+03  0.55773E-02
 0.10953000E+03  0.65324E-02
 0.10958000E+03  0.66574E-02
 0.10963000E+03  0.56264E-02
 0.10968000E+03  0.37372E-02
 0.10973000E+03  0.93823E-03
 0.10978000E+03 -0.21858E-02
 0.10983000E+03 -0.50528E-02
 0.10988000E+03 -0.59877E-02
 0.10993000E+03 -0.50821E-02
 0.10998000E+03 -0.37629E-02
 0.11003000E+03 -0.20288E-02
 0.11008000E+03 -0.47196E-03
 0.11013000E+03  0.11856E-02
 0.11018000E+03  0.25769E-02
 0.11023000E+03  0.33125E-02
 0.11028000E+03  0.37029E-02
 0.11033000E+03  0.35588E-02
 0.11038000E+03  0.22870E-02
 0.11043000E+03  0.68505E-03
 0.11048000E+03 -0.11808E-02
 0.11053000E+03 -0.28423E-02
 0.11058000E+03 -0.21313E-02
 0.11063000E+03 -0.10321E-02
 0.11068000E+03 -0.16588E-03
 0.11073000E+03  0.18002E-02
 0.11078000E+03  0.29221E-02
 0.11083000E+03  0.24872E-02
 0.11088000E+03  0.84082E-03
 0.11093000E+03  0.27389E-05
 0.11098000E+03  0.46300E-03
 0.11103000E+03 -0.17999E-03
 0.11108000E+03 -0.83347E-03
 0.11113000E+03 -0.98230E-03
 0.11118000E+03  0.54757E-03
 0.11123000E+03  0.28390E-02
 0.11128000E+03  0.32001E-02
 0.11133000E+03  0.29657E-02
 0.11138000E+03  0.25454E-02
 0.11143000E+03  0.31011E-02
 0.11148000E+03  0.31113E-02
 0.11153000E+03  0.90557E-03
 0.11158000E+03 -0.61355E-03
 0.11163000E+03 -0.22642E-02
 0.11168000E+03 -0.37602E-02
 0.11173000E+03 -0.41155E-02
 0.11178000E+03 -0.45406E-02
 0.11183000E+03 -0.39336E-02
 0.11188000E+03 -0.39167E-02
 0.11193000E+03 -0.45705E-02
 0.11198000E+03 -0.48036E-02
 0.11203000E+03 -0.43527E-02
 0.11208000E+03 -0.31468E-02
 0.11213000E+03 -0.28779E-02
 0.11218000E+03 -0.19519E-02
 0.11223000E+03 -0.54078E-04
 0.11228000E+03  0.16077E-02
 0.11233000E+03  0.32867E-02
 0.11238000E+03  0.48066E-02
 0.11243000E+03  0.57626E-02
 0.11248000E+03  0.68512E-02
 0.11253000E+03  0.80100E-02
 0.11258000E+03  0.76545E-02
 0.11263000E+03  0.47094E-02
 0.11268000E+03  0.21492E-03
 0.11273000E+03 -0.29218E-02
 0.11278000E+03 -0.51073E-02
 0.11283000E+03 -0.73914E-02
 0.11288000E+03 -0.84939E-02
 0.11293000E+03 -0.74143E-02
 0.11298000E+03 -0.42628E-02
 0.11303000E+03 -0.37879E-03
 0.11308000E+03  0.17043E-02
 0.11313000E+03  0.19333E-02
 0.11318000E+03  0.27961E-02
 0.11323000E+03  0.33766E-02
 0.11328000E+03  0.34422E-02
 0.11333000E+03  0.42057E-02
 0.11338000E+03  0.53294E-02
 0.11343000E+03  0.68028E-02
 0.11348000E+03  0.70165E-02
 0.11353000E+03  0.53905E-02
 0.11358000E+03  0.30286E-02
 0.11363000E+03  0.63251E-03
 0.11368000E+03 -0.26171E-02
 0.11373000E+03 -0.65839E-02
 0.11378000E+03 -0.84854E-02
 0.11383000E+03 -0.88516E-02
 0.11388000E+03 -0.81702E-02
 0.11393000E+03 -0.63624E-02
 0.11398000E+03 -0.55761E-02
 0.11403000E+03 -0.60750E-02
 0.11408000E+03 -0.55955E-02
 0.11413000E+03 -0.29451E-02
 0.11418000E+03 -0.21962E-03
 0.11423000E+03  0.21150E-02
 0.11428000E+03  0.40859E-02
 0.11433000E+03  0.49658E-02
 0.11438000E+03  0.56329E-02
 0.11443000E+03  0.46962E-02
 0.11448000E+03  0.21922E-02
 0.11453000E+03 -0.26695E-03
 0.11458000E+03 -0.22592E-02
 0.11463000E+03 -0.19209E-02
 0.11468000E+03  0.85478E-03
 0.11473000E+03  0.46425E-02
 0.11478000E+03  0.74748E-02
 0.11483000E+03  0.87020E-02
 0.11488000E+03  0.90885E-02
 0.11493000E+03  0.82164E-02
 0.11498000E+03  0.60662E-02
 0.11503000E+03  0.28754E-02
 0.11508000E+03  0.27205E-04
 0.11513000E+03 -0.15778E-02
 0.11518000E+03 -0.27137E-02
 0.11523000E+03 -0.44142E-02
 0.11528000E+03 -0.51876E-02
 0.11533000E+03 -0.43528E-02
 0.11538000E+03 -0.36692E-02
 0.11543000E+03 -0.19996E-02
 0.11548000E+03 -0.58162E-03
 0.11553000E+03 -0.95176E-03
 0.11558000E+03 -0.21088E-02
 0.11563000E+03 -0.34407E-02
 0.11568000E+03 -0.41136E-02
 0.11573000E+03 -0.48359E-02
 0.11578000E+03 -0.54498E-02
 0.11583000E+03 -0.49113E-02
 0.11588000E+03 -0.31623E-02
 0.11593000E+03 -0.32405E-03
 0.11598000E+03  0.25315E-02
 0.11603000E+03  0.33798E-02
 0.11608000E+03  0.39004E-02
 0.11613000E+03  0.56241E-02
 0.11618000E+03  0.62349E-02
 0.11623000E+03  0.52770E-02
 0.11628000E+03  0.29852E-02
 0.11633000E+03 -0.22986E-03
 0.11638000E+03 -0.35306E-02
 0.11643000E+03 -0.63060E-02
 0.11648000E+03 -0.78946E-02
 0.11653000E+03 -0.77383E-02
 0.11658000E+03 -0.52462E-02
 0.11663000E+03 -0.21109E-02
 0.11668000E+03 -0.10721E-02
 0.11673000E+03 -0.43711E-04
 0.11678000E+03  0.25799E-02
 0.11683000E+03  0.47306E-02
 0.11688000E+03  0.62559E-02
 0.11693000E+03  0.57896E-02
 0.11698000E+03  0.38969E-02
 0.11703000E+03  0.32187E-02
 0.11708000E+03  0.32601E-02
 0.11713000E+03  0.28774E-02
 0.11718000E+03  0.68283E-03
 0.11723000E+03 -0.24155E-02
 0.11728000E+03 -0.40481E-02
 0.11733000E+03 -0.50349E-02
 0.11738000E+03 -0.55375E-02
 0.11743000E+03 -0.49282E-02
 0.11748000E+03 -0.31080E-02
 0.11753000E+03 -0.34979E-03
 0.11758000E+03  0.20666E-02
 0.11763000E+03  0.41984E-02
 0.11768000E+03  0.48273E-02
 0.11773000E+03  0.49174E-02
 0.11778000E+03  0.56155E-02
 0.11783000E+03  0.50096E-02
 0.11788000E+03  0.39070E-02
 0.11793000E+03  0.23674E-02
 0.11798000E+03  0.61159E-03
 0.11803000E+03 -0.29692E-03
 0.11808000E+03 -0.83895E-03
 0.11813000E+03 -0.85057E-03
 0.11818000E+03 -0.59383E-03
 0.11823000E+03  0.90479E-04
 0.11828000E+03  0.69930E-03
 0.11833000E+03 -0.16771E-03
 0.11838000E+03 -0.18780E-02
 0.11843000E+03 -0.37586E-02
 0.11848000E+03 -0.55097E-02
 0.11853000E+03 -0.70594E-02
 0.11858000E+03 -0.73724E-02
 0.11863000E+03 -0.56733E-02
 0.11868000E+03 -0.41091E-02
 0.11873000E+03 -0.28337E-02
 0.11878000E+03 -0.90944E-03
 0.11883000E+03  0.15393E-02
 0.11888000E+03  0.42099E-02
 0.11893000E+03  0.62597E-02
 0.11898000E+03  0.74931E-02
 0.11903000E+03  0.69305E-02
 0.11908000E+03  0.50055E-02
 0.11913000E+03  0.33017E-02
 0.11918000E+03  0.20389E-02
 0.11923000E+03  0.11565E-02
 0.11928000E+03 -0.33606E-03
 0.11933000E+03 -0.14174E-02
 0.11938000E+03 -0.18311E-02
 0.11943000E+03 -0.24884E-02
 0.11948000E+03 -0.33947E-02
 0.11953000E+03 -0.50518E-02
 0.11958000E+03 -0.62237E-02
 0.11963000E+03 -0.70442E-02
 0.11968000E+03 -0.72676E-02
 0.11973000E+03 -0.63551E-02
 0.11978000E+03 -0.40245E-02
 0.11983000E+03 -0.85960E-03
 0.11988000E+03  0.10602E-02
 0.11993000E+03  0.33162E-02
 0.11998000E+03  0.55786E-02
 0.12003000E+03  0.69507E-02
 0.12008000E+03  0.86304E-02
 0.12013000E+03  0.92382E-02
 0.12018000E+03  0.83002E-02
 0.12023000E+03  0.70765E-02
 0.12028000E+03  0.54453E-02
 0.12033000E+03  0.37435E-02
 0.12038000E+03  0.25005E-02
 0.12043000E+03  0.94465E-03
 0.12048000E+03 -0.72225E-03
 0.12053000E+03 -0.15225E-02
 0.12058000E+03 -0.18444E-02
 0.12063000E+03 -0.26190E-02
 0.12068000E+03 -0.34147E-02
 0.12073000E+03 -0.45311E-02
 0.12078000E+03 -0.55696E-02
 0.12083000E+03 -0.55961E-02
 0.12088000E+03 -0.54358E-02
 0.12093000E+03 -0.54262E-02
 0.12098000E+03 -0.55418E-02
 0.12103000E+03 -0.52156E-02
 0.12108000E+03 -0.43019E-02
 0.12113000E+03 -0.31876E-02
 0.12118000E+03 -0.21851E-02
 0.12123000E+03 -0.13536E-02
 0.12128000E+03 -0.32352E-03
 0.12133000E+03  0.65595E-03
 0.12138000E+03  0.11102E-02
 0.12143000E+03  0.10642E-02
 0.12148000E+03  0.12253E-02
 0.12153000E+03  0.20883E-02
 0.12158000E+03  0.32575E-02
 0.12163000E+03  0.39191E-02
 0.12168000E+03  0.44371E-02
 0.12173000E+03  0.54948E-02
 0.12178000E+03  0.61496E-02
 0.12183000E+03  0.56932E-02
 0.12188000E+03  0.47117E-02
 0.12193000E+03  0.34855E-02
 0.12198000E+03  0.26915E-02
 0.12203000E+03  0.20462E-02
 0.12208000E+03  0.84863E-03
 0.12213000E+03 -0.96691E-03
 0.12218000E+03 -0.31841E-02
 0.12223000E+03 -0.47961E-02
 0.12228000E+03 -0.53178E-02
 0.12233000E+03 -0.46656E-02
 0.12238000E+03 -0.41579E-02
 0.12243000E+03 -0.32950E-02
 0.12248000E+03 -0.17418E-02
 0.12253000E+03  0.54138E-03
 0.12258000E+03  0.28632E-02
 0.12263000E+03  0.32661E-02
 0.12268000E+03  0.32528E-02
 0.12273000E+03  0.32049E-02
 0.12278000E+03  0.33402E-02
 0.12283000E+03  0.32183E-02
 0.12288000E+03  0.24619E-02
 0.12293000E+03  0.21185E-02
 0.12298000E+03  0.57342E-03
 0.12303000E+03 -0.18720E-02
 0.12308000E+03 -0.28143E-02
 0.12313000E+03 -0.36328E-02
 0.12318000E+03 -0.50970E-02
 0.12323000E+03 -0.59904E-02
 0.12328000E+03 -0.62407E-02
 0.12333000E+03 -0.51165E-02
 0.12338000E+03 -0.37288E-02
 0.12343000E+03 -0.33004E-02
 0.12348000E+03 -0.24844E-02
 0.12353000E+03 -0.84746E-03
 0.12358000E+03  0.35069E-03
 0.12363000E+03  0.87644E-03
 0.12368000E+03  0.11283E-02
 0.12373000E+03  0.14212E-02
 0.12378000E+03  0.25189E-02
 0.12383000E+03  0.37630E-02
 0.12388000E+03  0.39658E-02
 0.12393000E+03  0.34676E-02
 0.12398000E+03  0.28620E-02
 0.12403000E+03  0.16468E-02
 0.12408000E+03  0.28374E-03
 0.12413000E+03 -0.38742E-04
 0.12418000E+03  0.89586E-04
 0.12423000E+03  0.52769E-04
 0.12428000E+03  0.63303E-03
 0.12433000E+03  0.16669E-02
 0.12438000E+03  0.24871E-02
 0.12443000E+03  0.26585E-02
 0.12448000E+03  0.19616E-02
 0.12453000E+03  0.11650E-02
 0.12458000E+03  0.10268E-02
 0.12463000E+03  0.13314E-02
 0.12468000E+03  0.10430E-02
 0.12473000E+03  0.63058E-03
 0.12478000E+03  0.33221E-03
 0.12483000E+03 -0.93418E-03
 0.12488000E+03 -0.23130E-02
 0.12493000E+03 -0.30694E-02
 0.12498000E+03 -0.37350E-02
 0.12503000E+03 -0.37519E-02
 0.12508000E+03 -0.28494E-02
 0.12513000E+03 -0.14746E-02
 0.12518000E+03  0.46568E-03
 0.12523000E+03  0.25159E-02
 0.12528000E+03  0.36454E-02
 0.12533000E+03  0.32954E-02
 0.12538000E+03  0.19463E-02
 0.12543000E+03 -0.58079E-06
 0.12548000E+03 -0.20531E-02
 0.12553000E+03 -0.32027E-02
 0.12558000E+03 -0.28788E-02
 0.12563000E+03 -0.17290E-02
 0.12568000E+03 -0.84341E-03
 0.12573000E+03 -0.23005E-03
 0.12578000E+03  0.75635E-03
 0.12583000E+03  0.24493E-02
 0.12588000E+03  0.26817E-02
 0.12593000E+03  0.13525E-02
 0.12598000E+03  0.24582E-03
 0.12603000E+03 -0.17372E-02
 0.12608000E+03 -0.35504E-02
 0.12613000E+03 -0.40008E-02
 0.12618000E+03 -0.36288E-02
 0.12623000E+03 -0.20523E-02
 0.12628000E+03  0.24297E-03
 0.12633000E+03  0.25275E-02
 0.12638000E+03  0.33120E-02
 0.12643000E+03  0.27788E-02
 0.12648000E+03  0.19729E-02
 0.12653000E+03  0.19884E-03
 0.12658000E+03 -0.16433E-02
 0.12663000E+03 -0.31254E-02
 0.12668000E+03 -0.40843E-02
 0.12673000E+03 -0.35708E-02
 0.12678000E+03 -0.18970E-02
 0.12683000E+03 -0.69912E-03
 0.12688000E+03  0.50027E-03
 0.12693000E+03  0.23989E-02
 0.12698000E+03  0.29538E-02
 0.12703000E+03  0.26210E-02
 0.12708000E+03  0.23201E-02
 0.12713000E+03  0.12188E-02
 0.12718000E+03 -0.61507E-03
 0.12723000E+03 -0.16019E-02
 0.12728000E+03 -0.10000E-02
 0.12733000E+03 -0.21650E-03
 0.12738000E+03  0.48807E-03
 0.12743000E+03  0.11600E-02
 0.12748000E+03  0.17123E-02
 0.12753000E+03  0.28038E-02
 0.12758000E+03  0.40043E-02
 0.12763000E+03  0.43331E-02
 0.12768000E+03  0.41288E-02
 0.12773000E+03  0.37183E-02
 0.12778000E+03  0.24381E-02
 0.12783000E+03  0.76461E-03
 0.12788000E+03 -0.11405E-02
 0.12793000E+03 -0.27893E-02
 0.12798000E+03 -0.34082E-02
 0.12803000E+03 -0.40480E-02
 0.12808000E+03 -0.43664E-02
 0.12813000E+03 -0.37143E-02
 0.12818001E+03 -0.25276E-02
 0.12823000E+03 -0.16418E-02
 0.12828000E+03 -0.13895E-02
 0.12833000E+03 -0.58627E-03
 0.12838000E+03  0.26328E-04
 0.12843001E+03 -0.80954E-04
 0.12848000E+03  0.35107E-03
 0.12853000E+03  0.92452E-03
 0.12858000E+03  0.12162E-02
 0.12863000E+03  0.13093E-02
 0.12868001E+03  0.11668E-02
 0.12873000E+03  0.12130E-02
 0.12878000E+03  0.89520E-03
 0.12883000E+03  0.10463E-03
 0.12888000E+03 -0.45744E-03
 0.12893001E+03 -0.76998E-03
 0.12898000E+03 -0.81344E-03
 0.12903000E+03 -0.96624E-03
 0.12908000E+03 -0.16320E-02
 0.12913000E+03 -0.27991E-02
 0.12918001E+03 -0.36846E-02
 0.12923000E+03 -0.34305E-02
 0.12928000E+03 -0.24845E-02
 0.12933000E+03 -0.18293E-02
 0.12938000E+03 -0.98798E-03
 0.12943001E+03  0.11326E-02
 0.12948000E+03  0.38101E-02
 0.12953000E+03  0.54693E-02
 0.12958000E+03  0.56277E-02
 0.12963000E+03  0.56409E-02
 0.12968001E+03  0.54686E-02
 0.12973000E+03  0.41652E-02
 0.12978000E+03  0.26197E-02
 0.12983000E+03  0.90877E-03
 0.12988000E+03 -0.69057E-03
 0.12993001E+03 -0.16963E-02
 0.12998000E+03 -0.27348E-02
 0.13003000E+03 -0.36456E-02
 0.13008000E+03 -0.41421E-02
 0.13013000E+03 -0.39487E-02
 0.13018001E+03 -0.33246E-02
 0.13023000E+03 -0.29651E-02
 0.13028000E+03 -0.25374E-02
 0.13033000E+03 -0.12813E-02
 0.13038000E+03  0.10430E-02
 0.13043001E+03  0.27167E-02
 0.13048000E+03  0.33816E-02
 0.13053000E+03  0.40680E-02
 0.13058000E+03  0.36125E-02
 0.13063000E+03  0.29275E-02
 0.13068001E+03  0.24564E-02
 0.13073000E+03  0.18431E-02
 0.13078000E+03  0.15312E-02
 0.13083000E+03  0.36120E-03
 0.13088000E+03 -0.29878E-03
 0.13093001E+03 -0.70179E-03
 0.13098000E+03 -0.15512E-02
 0.13103000E+03 -0.19583E-02
 0.13108000E+03 -0.23959E-02
 0.13113000E+03 -0.19507E-02
 0.13118001E+03 -0.98235E-03
 0.13123000E+03 -0.90357E-03
 0.13128000E+03 -0.15490E-02
 0.13133000E+03 -0.20903E-02
 0.13138000E+03 -0.24226E-02
 0.13143001E+03 -0.26835E-02
 0.13148000E+03 -0.28312E-02
 0.13153000E+03 -0.25156E-02
 0.13158000E+03 -0.16224E-02
 0.13163000E+03 -0.48274E-03
 0.13168001E+03  0.78503E-03
 0.13173000E+03  0.16321E-02
 0.13178000E+03  0.20572E-02
 0.13183000E+03  0.26348E-02
 0.13188000E+03  0.30696E-02
 0.13193001E+03  0.24620E-02
 0.13198000E+03  0.10836E-02
 0.13203000E+03 -0.25458E-04
 0.13208000E+03 -0.68810E-03
 0.13213000E+03 -0.12742E-02
 0.13218001E+03 -0.19805E-02
 0.13223000E+03 -0.23863E-02
 0.13228000E+03 -0.18505E-02
 0.13233000E+03 -0.11922E-02
 0.13238000E+03 -0.17986E-03
 0.13243001E+03  0.15956E-02
 0.13248000E+03  0.26173E-02
 0.13253000E+03  0.30418E-02
 0.13258000E+03  0.35454E-02
 0.13263000E+03  0.38633E-02
 0.13268001E+03  0.34454E-02
 0.13273000E+03  0.22943E-02
 0.13278000E+03  0.79907E-03
 0.13283000E+03 -0.30803E-03
 0.13288000E+03 -0.85902E-03
 0.13293001E+03 -0.19847E-02
 0.13298000E+03 -0.29035E-02
 0.13303000E+03 -0.34031E-02
 0.13308000E+03 -0.36330E-02
 0.13313000E+03 -0.21325E-02
 0.13318001E+03  0.17867E-04
 0.13323000E+03  0.12985E-02
 0.13328000E+03  0.21163E-02
 0.13333000E+03  0.25193E-02
 0.13338000E+03  0.23664E-02
 0.13343001E+03  0.19384E-02
 0.13348000E+03  0.95413E-03
 0.13353000E+03 -0.41413E-03
 0.13358000E+03 -0.12304E-02
 0.13363000E+03 -0.18398E-02
 0.13368001E+03 -0.25211E-02
 0.13373000E+03 -0.27687E-02
 0.13378000E+03 -0.26901E-02
 0.13383000E+03 -0.23657E-02
 0.13388000E+03 -0.18726E-02
 0.13393001E+03 -0.15271E-02
 0.13398000E+03 -0.13302E-02
 0.13403000E+03 -0.12220E-02
 0.13408000E+03 -0.89407E-03
 0.13413000E+03 -0.65668E-03
 0.13418001E+03 -0.15135E-03
 0.13423000E+03  0.90494E-03
 0.13428000E+03  0.15190E-02
 0.13433000E+03  0.24512E-02
 0.13438000E+03  0.36691E-02
 0.13443001E+03  0.40138E-02
 0.13448000E+03  0.35747E-02
 0.13453000E+03  0.25228E-02
 0.13458000E+03  0.11419E-02
 0.13463000E+03 -0.46043E-03
 0.13468001E+03 -0.22775E-02
 0.13473000E+03 -0.30658E-02
 0.13478000E+03 -0.24186E-02
 0.13483000E+03 -0.83735E-03
 0.13488000E+03  0.15909E-02
 0.13493001E+03  0.36304E-02
 0.13498000E+03  0.47214E-02
 0.13503000E+03  0.42360E-02
 0.13508000E+03  0.19764E-02
 0.13513000E+03  0.68162E-04
 0.13518001E+03 -0.11631E-02
 0.13523000E+03 -0.22305E-02
 0.13528000E+03 -0.24412E-02
 0.13533000E+03 -0.23242E-02
 0.13538000E+03 -0.23684E-02
 0.13543001E+03 -0.20666E-02
 0.13548000E+03 -0.17089E-02
 0.13553000E+03 -0.10810E-02
 0.13558000E+03 -0.31356E-03
 0.13563000E+03 -0.44904E-03
 0.13568001E+03 -0.52784E-03
 0.13573000E+03 -0.44643E-03
 0.13578000E+03 -0.10728E-02
 0.13583000E+03 -0.16234E-02
 0.13588000E+03 -0.18088E-02
 0.13593001E+03 -0.16499E-02
 0.13598000E+03 -0.79807E-03
 0.13603000E+03  0.50630E-03
 0.13608000E+03  0.15839E-02
 0.13613000E+03  0.20339E-02
 0.13618001E+03  0.19242E-02
 0.13623000E+03  0.18764E-02
 0.13628000E+03  0.17808E-02
 0.13633000E+03  0.12761E-02
 0.13638000E+03  0.82011E-03
 0.13643001E+03  0.38340E-03
 0.13648000E+03  0.19563E-03
 0.13653000E+03  0.12851E-03
 0.13658000E+03  0.80729E-04
 0.13663000E+03  0.36818E-03
 0.13668001E+03  0.97998E-03
 0.13673000E+03  0.26292E-02
 0.13678000E+03  0.41921E-02
 0.13683000E+03  0.45424E-02
 0.13688000E+03  0.40552E-02
 0.13693001E+03  0.25589E-02
 0.13698000E+03  0.74827E-03
 0.13703000E+03 -0.88162E-03
 0.13708000E+03 -0.23747E-02
 0.13713000E+03 -0.34754E-02
 0.13718001E+03 -0.39955E-02
 0.13723000E+03 -0.40938E-02
 0.13728000E+03 -0.41657E-02
 0.13733000E+03 -0.42464E-02
 0.13738000E+03 -0.48245E-02
 0.13743001E+03 -0.55818E-02
 0.13748000E+03 -0.52125E-02
 0.13753000E+03 -0.39320E-02
 0.13758000E+03 -0.27799E-02
 0.13763000E+03 -0.16461E-02
 0.13768001E+03 -0.20841E-03
 0.13773000E+03  0.88521E-03
 0.13778000E+03  0.19930E-02
 0.13783000E+03  0.26740E-02
 0.13788000E+03  0.23102E-02
 0.13793001E+03  0.24136E-02
 0.13798000E+03  0.29352E-02
 0.13803000E+03  0.38136E-02
 0.13808000E+03  0.48243E-02
 0.13813000E+03  0.46726E-02
 0.13818001E+03  0.43381E-02
 0.13823000E+03  0.40063E-02
 0.13828000E+03  0.32087E-02
 0.13833000E+03  0.22248E-02
 0.13838000E+03  0.74916E-03
 0.13843001E+03 -0.11211E-04
 0.13848000E+03 -0.11557E-03
 0.13853000E+03 -0.59106E-03
 0.13858000E+03 -0.10817E-02
 0.13863000E+03 -0.14401E-02
 0.13868001E+03 -0.15915E-02
 0.13873000E+03 -0.20346E-02
 0.13878000E+03 -0.23046E-02
 0.13883000E+03 -0.18878E-02
 0.13888000E+03 -0.17300E-02
 0.13893001E+03 -0.18647E-02
 0.13898000E+03 -0.15645E-02
 0.13903000E+03 -0.11436E-02
 0.13908000E+03 -0.11008E-02
 0.13913000E+03 -0.10707E-02
 0.13918001E+03 -0.93930E-03
 0.13923000E+03 -0.68629E-03
 0.13928000E+03 -0.13871E-03
 0.13933000E+03  0.74779E-03
 0.13938000E+03  0.14988E-02
 0.13943001E+03  0.17257E-02
 0.13948000E+03  0.14939E-02
 0.13953000E+03  0.92483E-03
 0.13958000E+03  0.25800E-03
 0.13963000E+03 -0.67166E-03
 0.13968001E+03 -0.15161E-02
 0.13973000E+03 -0.17792E-02
 0.13978000E+03 -0.10794E-02
 0.13983000E+03  0.22465E-03
 0.13988000E+03  0.11661E-02
 0.13993001E+03  0.15083E-02
 0.13998000E+03  0.97988E-03
 0.14003000E+03  0.34026E-03
 0.14008000E+03  0.15267E-03
 0.14013000E+03 -0.17577E-03
 0.14018001E+03 -0.90766E-03
 0.14023000E+03 -0.17164E-02
 0.14028000E+03 -0.17969E-02
 0.14033000E+03 -0.10139E-02
 0.14038000E+03 -0.31097E-03
 0.14043001E+03 -0.62792E-03
 0.14048000E+03 -0.86470E-03
 0.14053000E+03 -0.19908E-03
 0.14058000E+03  0.48445E-03
 0.14063000E+03  0.11880E-02
 0.14068001E+03  0.18254E-02
 0.14073000E+03  0.22891E-02
 0.14078000E+03  0.24230E-02
 0.14083000E+03  0.20476E-02
 0.14088000E+03  0.13140E-02
 0.14093001E+03  0.41894E-03
 0.14098000E+03  0.74275E-04
 0.14103000E+03 -0.70668E-04
 0.14108000E+03 -0.21578E-03
 0.14113000E+03 -0.25793E-03
 0.14118001E+03 -0.40975E-03
 0.14123000E+03 -0.43689E-03
 0.14128000E+03 -0.47143E-03
 0.14133000E+03 -0.59562E-03
 0.14138000E+03 -0.71322E-03
 0.14143001E+03 -0.62689E-03
 0.14148000E+03 -0.45401E-03
 0.14153000E+03 -0.53983E-03
 0.14158000E+03 -0.97868E-03
 0.14163000E+03 -0.14669E-02
 0.14168001E+03 -0.18096E-02
 0.14173000E+03 -0.20145E-02
 0.14178000E+03 -0.16988E-02
 0.14183000E+03 -0.11844E-02
 0.14188000E+03 -0.28559E-03
 0.14193001E+03  0.10544E-02
 0.14198000E+03  0.14840E-02
 0.14203000E+03  0.14369E-02
 0.14208000E+03  0.20487E-02
 0.14213000E+03  0.31607E-02
 0.14218001E+03  0.38120E-02
 0.14223000E+03  0.38098E-02
 0.14228000E+03  0.38082E-02
 0.14233000E+03  0.37624E-02
 0.14238000E+03  0.37293E-02
 0.14243001E+03  0.27126E-02
 0.14248000E+03  0.74026E-03
 0.14253000E+03 -0.88452E-03
 0.14258000E+03 -0.22547E-02
 0.14263000E+03 -0.32378E-02
 0.14268001E+03 -0.42181E-02
 0.14273000E+03 -0.51348E-02
 0.14278000E+03 -0.55807E-02
 0.14283000E+03 -0.55116E-02
 0.14288000E+03 -0.48529E-02
 0.14293001E+03 -0.39250E-02
 0.14298000E+03 -0.29324E-02
 0.14303000E+03 -0.21965E-02
 0.14308000E+03 -0.70300E-03
 0.14313000E+03  0.12086E-02
 0.14318001E+03  0.27329E-02
 0.14323000E+03  0.41234E-02
 0.14328000E+03  0.52081E-02
 0.14333000E+03  0.61718E-02
 0.14338000E+03  0.60031E-02
 0.14343001E+03  0.48904E-02
 0.14348000E+03  0.36085E-02
 0.14353000E+03  0.18623E-02
 0.14358000E+03 -0.12174E-03
 0.14363000E+03 -0.22667E-02
 0.14368001E+03 -0.41785E-02
 0.14373000E+03 -0.50372E-02
 0.14378000E+03 -0.47748E-02
 0.14383000E+03 -0.39338E-02
 0.14388000E+03 -0.30504E-02
 0.14393001E+03 -0.22407E-02
 0.14398000E+03 -0.12951E-02
 0.14403000E+03 -0.61073E-03
 0.14408000E+03 -0.19737E-03
 0.14413000E+03  0.35097E-04
 0.14418001E+03  0.41466E-04
 0.14423000E+03  0.94451E-04
 0.14428000E+03 -0.82481E-04
 0.14433000E+03 -0.71812E-04
 0.14438000E+03 -0.33085E-04
 0.14443001E+03  0.19401E-03
 0.14448000E+03  0.99001E-03
 0.14453000E+03  0.15572E-02
 0.14458000E+03  0.24785E-02
 0.14463000E+03  0.36203E-02
 0.14468001E+03  0.42314E-02
 0.14473000E+03  0.42573E-02
 0.14478000E+03  0.34656E-02
 0.14483000E+03  0.20452E-02
 0.14488000E+03  0.97739E-03
 0.14493001E+03  0.25320E-03
 0.14498000E+03 -0.73712E-03
 0.14503000E+03 -0.19380E-02
 0.14508000E+03 -0.33900E-02
 0.14513000E+03 -0.42224E-02
 0.14518001E+03 -0.43331E-02
 0.14523000E+03 -0.37538E-02
 0.14528000E+03 -0.26573E-02
 0.14533000E+03 -0.10635E-02
 0.14538000E+03  0.33892E-03
 0.14543001E+03  0.75783E-03
 0.14548000E+03  0.15924E-02
 0.14553000E+03  0.18635E-02
 0.14558000E+03  0.18411E-02
 0.14563000E+03  0.22608E-02
 0.14568001E+03  0.25256E-02
 0.14573000E+03  0.28861E-02
 0.14578000E+03  0.23874E-02
 0.14583000E+03  0.14803E-02
 0.14588000E+03  0.74420E-03
 0.14593001E+03 -0.27083E-03
 0.14598000E+03 -0.13496E-02
 0.14603000E+03 -0.23080E-02
 0.14608000E+03 -0.28119E-02
 0.14613000E+03 -0.26350E-02
 0.14618001E+03 -0.19237E-02
 0.14623000E+03 -0.98838E-03
 0.14628000E+03 -0.18601E-03
 0.14633000E+03  0.98336E-03
 0.14638000E+03  0.22345E-02
 0.14643001E+03  0.27305E-02
 0.14648000E+03  0.23611E-02
 0.14653000E+03  0.14327E-02
 0.14658000E+03  0.49835E-03
 0.14663000E+03 -0.38344E-03
 0.14668001E+03 -0.10823E-02
 0.14673000E+03 -0.14287E-02
 0.14678000E+03 -0.10511E-02
 0.14683000E+03 -0.71324E-03
 0.14688000E+03 -0.78064E-03
 0.14693001E+03 -0.84883E-03
 0.14698000E+03 -0.98853E-03
 0.14703000E+03 -0.93716E-03
 0.14708000E+03 -0.10267E-02
 0.14713000E+03 -0.94002E-03
 0.14718001E+03 -0.40043E-03
 0.14723000E+03 -0.87475E-04
 0.14728000E+03 -0.47852E-03
 0.14733000E+03 -0.72259E-03
 0.14738000E+03 -0.17752E-03
 0.14743001E+03  0.19751E-03
 0.14748000E+03  0.30465E-03
 0.14753000E+03  0.42165E-03
 0.14758000E+03  0.39939E-03
 0.14763000E+03  0.60485E-03
 0.14768001E+03  0.72348E-03
 0.14773000E+03  0.88507E-03
 0.14778000E+03  0.12646E-02
 0.14783000E+03  0.13541E-02
 0.14788000E+03  0.13569E-02
 0.14793001E+03  0.94562E-03
 0.14798000E+03  0.19549E-03
 0.14803000E+03 -0.47293E-03
 0.14808000E+03 -0.11173E-02
 0.14813000E+03 -0.16684E-02
 0.14818001E+03 -0.19886E-02
 0.14823000E+03 -0.19745E-02
 0.14828000E+03 -0.15158E-02
 0.14833000E+03 -0.85362E-03
 0.14838000E+03 -0.44245E-03
 0.14843001E+03 -0.20662E-03
 0.14848000E+03 -0.22904E-03
 0.14853000E+03  0.71579E-04
 0.14858000E+03  0.58507E-03
 0.14863000E+03  0.86367E-03
 0.14868001E+03  0.13964E-02
 0.14873000E+03  0.14991E-02
 0.14878000E+03  0.14613E-02
 0.14883000E+03  0.18438E-02
 0.14888000E+03  0.20865E-02
 0.14893001E+03  0.20373E-02
 0.14898000E+03  0.15809E-02
 0.14903000E+03  0.87015E-03
 0.14908000E+03  0.25490E-03
 0.14913000E+03 -0.17510E-03
 0.14918001E+03 -0.10356E-02
 0.14923000E+03 -0.18568E-02
 0.14928000E+03 -0.19919E-02
 0.14933000E+03 -0.17469E-02
 0.14938000E+03 -0.13188E-02
 0.14943001E+03 -0.13953E-02
 0.14948000E+03 -0.14144E-02
 0.14953000E+03 -0.14082E-02
 0.14958000E+03 -0.11511E-02
 0.14963000E+03 -0.28260E-04
 0.14968001E+03  0.53374E-03
 0.14973000E+03  0.10192E-02
 0.14978000E+03  0.14576E-02
 0.14983000E+03  0.18865E-02
 0.14988000E+03  0.27488E-02
 0.14993001E+03  0.27750E-02
 0.14998000E+03  0.21791E-02
 