-0.19996643E-01 -0.17785E-05
 0.30003358E-01 -0.83215E-06
 0.80003358E-01 -0.15771E-06
 0.13000336E+00  0.25987E-06
 0.18000336E+00  0.55924E-06
 0.23000336E+00  0.77370E-06
 0.28000337E+00  0.86403E-06
 0.33000335E+00  0.80329E-06
 0.38000336E+00  0.69376E-06
 0.43000337E+00  0.53791E-06
 0.48000336E+00  0.36613E-06
 0.53000337E+00  0.24626E-06
 0.58000338E+00  0.76173E-07
 0.63000339E+00 -0.75263E-07
 0.68000335E+00 -0.18287E-06
 0.73000336E+00 -0.29885E-06
 0.78000337E+00 -0.38260E-06
 0.83000338E+00 -0.44594E-06
 0.88000339E+00 -0.52416E-06
 0.93000335E+00 -0.61232E-06
 0.98000336E+00 -0.61585E-06
 0.10300034E+01 -0.56610E-06
 0.10800034E+01 -0.50588E-06
 0.11300033E+01 -0.39642E-06
 0.11800034E+01 -0.26768E-06
 0.12300034E+01 -0.10703E-06
 0.12800034E+01  0.31933E-07
 0.13300034E+01  0.13534E-06
 0.13800033E+01  0.24863E-06
 0.14300034E+01  0.30736E-06
 0.14800034E+01  0.33241E-06
 0.15300034E+01  0.39074E-06
 0.15800034E+01  0.44348E-06
 0.16300033E+01  0.41721E-06
 0.16800034E+01  0.34174E-06
 0.17300034E+01  0.32277E-06
 0.17800034E+01  0.35174E-06
 0.18300034E+01  0.32744E-06
 0.18800033E+01  0.22294E-06
 0.19300034E+01  0.87157E-07
 0.19800034E+01  0.61462E-10
 0.20300033E+01 -0.87627E-08
 0.20800035E+01 -0.48362E-07
 0.21300035E+01 -0.12391E-06
 0.21800034E+01 -0.15636E-06
 0.22300034E+01 -0.16812E-06
 0.22800033E+01 -0.17518E-06
 0.23300035E+01 -0.18566E-06
 0.23800035E+01 -0.21815E-06
 0.24300034E+01 -0.27835E-06
 0.24800034E+01 -0.28602E-06
 0.25300033E+01 -0.22601E-06
 0.25800035E+01 -0.15379E-06
 0.26300035E+01 -0.11324E-06
 0.26800034E+01 -0.12072E-06
 0.27300034E+01 -0.46214E-07
 0.27800033E+01  0.80291E-07
 0.28300035E+01  0.12510E-06
 0.28800035E+01  0.10469E-06
 0.29300034E+01  0.10004E-06
 0.29800034E+01  0.97284E-07
 0.30300033E+01  0.49243E-07
 0.30800035E+01  0.10026E-07
 0.31300035E+01 -0.31505E-07
 0.31800034E+01 -0.61967E-07
 0.32300034E+01 -0.77479E-07
 0.32800033E+01 -0.10695E-06
 0.33300035E+01 -0.76892E-07
 0.33800035E+01 -0.59879E-08
 0.34300034E+01 -0.38936E-08
 0.34800034E+01 -0.66122E-07
 0.35300033E+01 -0.70845E-07
 0.35800035E+01  0.65091E-08
 0.36300035E+01  0.12775E-06
 0.36800034E+01  0.23497E-06
 0.37300034E+01  0.25371E-06
 0.37800033E+01  0.27491E-06
 0.38300035E+01  0.36431E-06
 0.38800035E+01  0.41432E-06
 0.39300034E+01  0.35335E-06
 0.39800034E+01  0.21880E-06
 0.40300035E+01  0.14131E-06
 0.40800033E+01  0.11141E-06
 0.41300035E+01  0.32426E-07
 0.41800036E+01 -0.19881E-07
 0.42300034E+01 -0.37528E-07
 0.42800035E+01 -0.58862E-07
 0.43300033E+01 -0.83391E-07
 0.43800035E+01 -0.10418E-06
 0.44300036E+01 -0.13521E-06
 0.44800034E+01 -0.17095E-06
 0.45300035E+01 -0.15757E-06
 0.45800033E+01 -0.16557E-06
 0.46300035E+01 -0.16884E-06
 0.46800036E+01 -0.18503E-06
 0.47300034E+01 -0.24761E-06
 0.47800035E+01 -0.28120E-06
 0.48300033E+01 -0.33006E-06
 0.48800035E+01 -0.34886E-06
 0.49300036E+01 -0.33735E-06
 0.49800034E+01 -0.34068E-06
 0.50300035E+01 -0.31164E-06
 0.50800033E+01 -0.24796E-06
 0.51300035E+01 -0.14810E-06
 0.51800036E+01 -0.18125E-07
 0.52300034E+01  0.87031E-07
 0.52800035E+01  0.14939E-06
 0.53300033E+01  0.20408E-06
 0.53800035E+01  0.27933E-06
 0.54300036E+01  0.35887E-06
 0.54800034E+01  0.35881E-06
 0.55300035E+01  0.29784E-06
 0.55800033E+01  0.27613E-06
 0.56300035E+01  0.34269E-06
 0.56800036E+01  0.40965E-06
 0.57300034E+01  0.38695E-06
 0.57800035E+01  0.32224E-06
 0.58300033E+01  0.26279E-06
 0.58800035E+01  0.21786E-06
 0.59300036E+01  0.17090E-06
 0.59800034E+01  0.11625E-06
 0.60300035E+01  0.16243E-07
 0.60800033E+01 -0.89886E-07
 0.61300035E+01 -0.14310E-06
 0.61800036E+01 -0.15906E-06
 0.62300034E+01 -0.12728E-06
 0.62800035E+01 -0.13354E-06
 0.63300033E+01 -0.16942E-06
 0.63800035E+01 -0.12002E-06
 0.64300036E+01 -0.69477E-07
 0.64800034E+01 -0.60722E-07
 0.65300035E+01 -0.35291E-07
 0.65800033E+01 -0.55557E-07
 0.66300035E+01 -0.81572E-07
 0.66800036E+01 -0.84712E-07
 0.67300034E+01 -0.13967E-06
 0.67800035E+01 -0.19390E-06
 0.68300033E+01 -0.24838E-06
 0.68800035E+01 -0.29547E-06
 0.69300036E+01 -0.30702E-06
 0.69800034E+01 -0.33902E-06
 0.70300035E+01 -0.41686E-06
 0.70800033E+01 -0.52737E-06
 0.71300035E+01 -0.55303E-06
 0.71800036E+01 -0.48278E-06
 0.72300034E+01 -0.41197E-06
 0.72800035E+01 -0.38686E-06
 0.73300033E+01 -0.38958E-06
 0.73800035E+01 -0.26563E-06
 0.74300036E+01 -0.51646E-07
 0.74800034E+01  0.85610E-07
 0.75300035E+01  0.13307E-06
 0.75800033E+01  0.13470E-06
 0.76300035E+01  0.20534E-06
 0.76800036E+01  0.37177E-06
 0.77300034E+01  0.53224E-06
 0.77800035E+01  0.66010E-06
 0.78300033E+01  0.76503E-06
 0.78800035E+01  0.83984E-06
 0.79300036E+01  0.91698E-06
 0.79800034E+01  0.10034E-05
 0.80300035E+01  0.98711E-06
 0.80800037E+01  0.84047E-06
 0.81300039E+01  0.67382E-06
 0.81800032E+01  0.55350E-06
 0.82300034E+01  0.40898E-06
 0.82800035E+01  0.23576E-06
 0.83300037E+01  0.14100E-06
 0.83800039E+01  0.30766E-07
 0.84300032E+01 -0.69105E-07
 0.84800034E+01 -0.70395E-07
 0.85300035E+01 -0.87817E-07
 0.85800037E+01 -0.13580E-06
 0.86300039E+01 -0.22431E-06
 0.86800032E+01 -0.35269E-06
 0.87300034E+01 -0.47503E-06
 0.87800035E+01 -0.60528E-06
 0.88300037E+01 -0.71297E-06
 0.88800039E+01 -0.81217E-06
 0.89300032E+01 -0.91639E-06
 0.89800034E+01 -0.96396E-06
 0.90300035E+01 -0.95104E-06
 0.90800037E+01 -0.91657E-06
 0.91300039E+01 -0.85294E-06
 0.91800032E+01 -0.72422E-06
 0.92300034E+01 -0.50307E-06
 0.92800035E+01 -0.27855E-06
 0.93300037E+01 -0.18210E-06
 0.93800039E+01 -0.14280E-06
 0.94300032E+01 -0.55909E-07
 0.94800034E+01  0.67562E-07
 0.95300035E+01  0.18105E-06
 0.95800037E+01  0.24184E-06
 0.96300039E+01  0.28523E-06
 0.96800032E+01  0.37533E-06
 0.97300034E+01  0.44396E-06
 0.97800035E+01  0.45676E-06
 0.98300037E+01  0.47055E-06
 0.98800039E+01  0.49499E-06
 0.99300032E+01  0.57325E-06
 0.99800034E+01  0.68354E-06
 0.10030004E+02  0.77692E-06
 0.10080004E+02  0.79187E-06
 0.10130004E+02  0.72577E-06
 0.10180003E+02  0.65495E-06
 0.10230003E+02  0.54516E-06
 0.10280004E+02  0.41696E-06
 0.10330004E+02  0.30156E-06
 0.10380004E+02  0.13881E-06
 0.10430003E+02 -0.40612E-07
 0.10480003E+02 -0.15910E-06
 0.10530004E+02 -0.25059E-06
 0.10580004E+02 -0.33650E-06
 0.10630004E+02 -0.40493E-06
 0.10680003E+02 -0.48240E-06
 0.10730003E+02 -0.50286E-06
 0.10780004E+02 -0.46097E-06
 0.10830004E+02 -0.43712E-06
 0.10880004E+02 -0.47920E-06
 0.10930003E+02 -0.51346E-06
 0.10980003E+02 -0.45572E-06
 0.11030004E+02 -0.36556E-06
 0.11080004E+02 -0.27646E-06
 0.11130004E+02 -0.24955E-06
 0.11180003E+02 -0.23640E-06
 0.11230003E+02 -0.17592E-06
 0.11280004E+02 -0.10806E-06
 0.11330004E+02  0.21379E-07
 0.11380004E+02  0.11444E-06
 0.11430003E+02  0.11439E-06
 0.11480003E+02  0.16015E-06
 0.11530004E+02  0.20493E-06
 0.11580004E+02  0.22513E-06
 0.11630004E+02  0.27498E-06
 0.11680003E+02  0.29726E-06
 0.11730003E+02  0.29562E-06
 0.11780004E+02  0.30927E-06
 0.11830004E+02  0.36565E-06
 0.11880004E+02  0.39373E-06
 0.11930003E+02  0.34038E-06
 0.11980003E+02  0.30425E-06
 0.12030004E+02  0.25441E-06
 0.12080004E+02  0.16831E-06
 0.12130004E+02  0.72561E-07
 0.12180003E+02 -0.90348E-07
 0.12230003E+02 -0.24033E-06
 0.12280004E+02 -0.34392E-06
 0.12330004E+02 -0.38304E-06
 0.12380004E+02 -0.32142E-06
 0.12430003E+02 -0.30026E-06
 0.12480003E+02 -0.30579E-06
 0.12530004E+02 -0.22502E-06
 0.12580004E+02 -0.59795E-07
 0.12630004E+02  0.15650E-06
 0.12680003E+02  0.33922E-06
 0.12730003E+02  0.45332E-06
 0.12780004E+02  0.51550E-06
 0.12830004E+02  0.45994E-06
 0.12880004E+02  0.32697E-06
 0.12930003E+02  0.14264E-06
 0.12980003E+02 -0.48068E-07
 0.13030004E+02 -0.16493E-06
 0.13080004E+02 -0.32865E-06
 0.13130004E+02 -0.45080E-06
 0.13180003E+02 -0.52852E-06
 0.13230003E+02 -0.62585E-06
 0.13280004E+02 -0.60431E-06
 0.13330004E+02 -0.53083E-06
 0.13380004E+02 -0.45440E-06
 0.13430003E+02 -0.31771E-06
 0.13480003E+02 -0.18736E-06
 0.13530004E+02 -0.12272E-06
 0.13580004E+02 -0.66630E-07
 0.13630004E+02 -0.12911E-07
 0.13680003E+02  0.42602E-07
 0.13730003E+02  0.93218E-07
 0.13780004E+02  0.12868E-06
 0.13830004E+02  0.16334E-06
 0.13880004E+02  0.14384E-06
 0.13930003E+02  0.10706E-06
 0.13980003E+02  0.93626E-07
 0.14030004E+02  0.73358E-07
 0.14080004E+02  0.12057E-06
 0.14130004E+02  0.25210E-06
 0.14180003E+02  0.35402E-06
 0.14230003E+02  0.40398E-06
 0.14280004E+02  0.41755E-06
 0.14330004E+02  0.43816E-06
 0.14380004E+02  0.50836E-06
 0.14430003E+02  0.57451E-06
 0.14480003E+02  0.62482E-06
 0.14530004E+02  0.60467E-06
 0.14580004E+02  0.47897E-06
 0.14630004E+02  0.36718E-06
 0.14680003E+02  0.28125E-06
 0.14730003E+02  0.18606E-06
 0.14780004E+02  0.63338E-07
 0.14830004E+02 -0.10532E-06
 0.14880004E+02 -0.25238E-06
 0.14930003E+02 -0.36171E-06
 0.14980003E+02 -0.47364E-06
 0.15030004E+02 -0.59924E-06
 0.15080004E+02 -0.68473E-06
 0.15130004E+02 -0.70140E-06
 0.15180003E+02 -0.67958E-06
 0.15230003E+02 -0.66248E-06
 0.15280004E+02 -0.67045E-06
 0.15330004E+02 -0.67986E-06
 0.15380004E+02 -0.61062E-06
 0.15430003E+02 -0.42308E-06
 0.15480003E+02 -0.27517E-06
 0.15530004E+02 -0.17950E-06
 0.15580004E+02 -0.71302E-07
 0.15630004E+02  0.50859E-07
 0.15680003E+02  0.21412E-06
 0.15730003E+02  0.34802E-06
 0.15780004E+02  0.43868E-06
 0.15830004E+02  0.46381E-06
 0.15880004E+02  0.48018E-06
 0.15930003E+02  0.56652E-06
 0.15980003E+02  0.57034E-06
 0.16030005E+02  0.42972E-06
 0.16080004E+02  0.24716E-06
 0.16130003E+02  0.96242E-07
 0.16180004E+02 -0.18136E-07
 0.16230003E+02 -0.79230E-07
 0.16280005E+02 -0.96474E-07
 0.16330004E+02 -0.11504E-06
 0.16380003E+02 -0.57316E-07
 0.16430004E+02  0.75211E-07
 0.16480003E+02  0.20279E-06
 0.16530005E+02  0.30996E-06
 0.16580004E+02  0.36429E-06
 0.16630003E+02  0.37431E-06
 0.16680004E+02  0.36402E-06
 0.16730003E+02  0.34566E-06
 0.16780005E+02  0.27751E-06
 0.16830004E+02  0.17718E-06
 0.16880003E+02  0.92563E-07
 0.16930004E+02  0.23229E-07
 0.16980003E+02 -0.24057E-07
 0.17030005E+02 -0.11983E-06
 0.17080004E+02 -0.25713E-06
 0.17130003E+02 -0.41766E-06
 0.17180004E+02 -0.54268E-06
 0.17230003E+02 -0.56814E-06
 0.17280005E+02 -0.60367E-06
 0.17330004E+02 -0.67586E-06
 0.17380003E+02 -0.72443E-06
 0.17430004E+02 -0.63923E-06
 0.17480003E+02 -0.44106E-06
 0.17530005E+02 -0.27757E-06
 0.17580004E+02 -0.14757E-06
 0.17630003E+02 -0.74579E-07
 0.17680004E+02 -0.35445E-07
 0.17730003E+02  0.45580E-07
 0.17780005E+02  0.11264E-06
 0.17830004E+02  0.13928E-06
 0.17880003E+02  0.13215E-06
 0.17930004E+02  0.16210E-06
 0.17980003E+02  0.27412E-06
 0.18030005E+02  0.32077E-06
 0.18080004E+02  0.31188E-06
 0.18130003E+02  0.35519E-06
 0.18180004E+02  0.43706E-06
 0.18230003E+02  0.54091E-06
 0.18280005E+02  0.59680E-06
 0.18330004E+02  0.53862E-06
 0.18380003E+02  0.44151E-06
 0.18430004E+02  0.37744E-06
 0.18480003E+02  0.32288E-06
 0.18530005E+02  0.25718E-06
 0.18580004E+02  0.10762E-06
 0.18630003E+02 -0.55434E-07
 0.18680004E+02 -0.17812E-06
 0.18730003E+02 -0.34833E-06
 0.18780005E+02 -0.45908E-06
 0.18830004E+02 -0.53518E-06
 0.18880003E+02 -0.57278E-06
 0.18930004E+02 -0.50288E-06
 0.18980003E+02 -0.44563E-06
 0.19030005E+02 -0.38106E-06
 0.19080004E+02 -0.29028E-06
 0.19130003E+02 -0.19221E-06
 0.19180004E+02 -0.44904E-07
 0.19230003E+02  0.14885E-06
 0.19280005E+02  0.34188E-06
 0.19330004E+02  0.44871E-06
 0.19380003E+02  0.43700E-06
 0.19430004E+02  0.41663E-06
 0.19480003E+02  0.44765E-06
 0.19530005E+02  0.45796E-06
 0.19580004E+02  0.38011E-06
 0.19630003E+02  0.22241E-06
 0.19680004E+02  0.63357E-07
 0.19730003E+02 -0.16102E-06
 0.19780005E+02 -0.21127E-06
 0.19830004E+02 -0.39274E-06
 0.19880003E+02 -0.48776E-06
 0.19930004E+02 -0.64967E-06
 0.19980003E+02 -0.13993E-05
 0.20030005E+02 -0.21923E-05
 0.20080004E+02 -0.45417E-05
 0.20130003E+02 -0.94971E-05
 0.20180004E+02 -0.16382E-04
 0.20230003E+02 -0.16788E-04
 0.20280005E+02 -0.15470E-04
 0.20330004E+02 -0.14302E-04
 0.20380003E+02 -0.78375E-05
 0.20430004E+02 -0.15297E-05
 0.20480003E+02  0.10528E-04
 0.20530005E+02  0.42809E-05
 0.20580004E+02  0.63063E-06
 0.20630003E+02 -0.29092E-05
 0.20680004E+02 -0.40644E-04
 0.20730003E+02 -0.48203E-04
 0.20780005E+02 -0.32125E-04
 0.20830004E+02 -0.16049E-04
 0.20880003E+02  0.92871E-05
 0.20930004E+02  0.43633E-04
 0.20980003E+02  0.53951E-04
 0.21030005E+02  0.28771E-04
 0.21080004E+02  0.46383E-04
 0.21130003E+02  0.61697E-04
 0.21180004E+02  0.18308E-04
 0.21230003E+02 -0.21027E-04
 0.21280005E+02 -0.34868E-05
 0.21330004E+02  0.15242E-04
 0.21380003E+02 -0.87947E-05
 0.21430004E+02 -0.13961E-04
 0.21480003E+02  0.19161E-04
 0.21530005E+02  0.47275E-04
 0.21580004E+02  0.76817E-04
 0.21630003E+02  0.77551E-04
 0.21680004E+02 -0.44073E-04
 0.21730003E+02 -0.12658E-03
 0.21780005E+02 -0.10681E-03
 0.21830004E+02 -0.85671E-04
 0.21880003E+02 -0.66937E-04
 0.21930004E+02 -0.84680E-04
 0.21980003E+02 -0.73462E-04
 0.22030005E+02 -0.22099E-04
 0.22080004E+02  0.65136E-04
 0.22130003E+02  0.57824E-04
 0.22180004E+02 -0.64981E-04
 0.22230003E+02 -0.51254E-04
 0.22280005E+02  0.37713E-04
 0.22330004E+02  0.24117E-04
 0.22380003E+02 -0.44000E-04
 0.22430004E+02  0.24333E-04
 0.22480003E+02  0.12479E-03
 0.22530005E+02  0.11879E-03
 0.22580004E+02  0.15108E-03
 0.22630003E+02  0.16654E-03
 0.22680004E+02  0.14661E-03
 0.22730003E+02  0.15603E-03
 0.22780005E+02  0.14061E-03
 0.22830004E+02  0.13374E-03
 0.22880003E+02  0.13371E-03
 0.22930004E+02  0.14964E-03
 0.22980003E+02  0.76173E-04
 0.23030005E+02 -0.92549E-04
 0.23080004E+02 -0.13722E-03
 0.23130003E+02 -0.11306E-03
 0.23180004E+02 -0.67016E-04
 0.23230003E+02 -0.97815E-04
 0.23280005E+02 -0.24870E-03
 0.23330004E+02 -0.29245E-03
 0.23380003E+02 -0.13177E-03
 0.23430004E+02  0.32017E-04
 0.23480003E+02 -0.71885E-04
 0.23530005E+02 -0.25484E-03
 0.23580004E+02 -0.17287E-03
 0.23630003E+02 -0.54611E-04
 0.23680004E+02 -0.74676E-04
 0.23730003E+02 -0.20644E-04
 0.23780005E+02  0.21165E-04
 0.23830004E+02  0.41910E-04
 0.23880003E+02  0.94605E-04
 0.23930004E+02  0.13080E-03
 0.23980003E+02  0.16186E-03
 0.24030005E+02  0.79411E-04
 0.24080004E+02  0.28679E-04
 0.24130003E+02  0.20563E-04
 0.24180004E+02 -0.66413E-04
 0.24230003E+02 -0.22557E-04
 0.24280005E+02  0.17436E-04
 0.24330004E+02 -0.11634E-03
 0.24380003E+02 -0.16472E-03
 0.24430004E+02 -0.13886E-04
 0.24480003E+02  0.13222E-03
 0.24530005E+02  0.13388E-03
 0.24580004E+02  0.48100E-05
 0.24630003E+02 -0.12631E-03
 0.24680004E+02 -0.45455E-04
 0.24730003E+02  0.99951E-04
 0.24780005E+02  0.10521E-03
 0.24830004E+02  0.14513E-04
 0.24880003E+02 -0.15467E-04
 0.24930004E+02  0.47780E-04
 0.24980003E+02  0.12415E-03
 0.25030005E+02  0.21826E-03
 0.25080004E+02  0.21045E-03
 0.25130003E+02  0.13118E-03
 0.25180004E+02  0.67509E-04
 0.25230003E+02  0.81499E-04
 0.25280005E+02  0.88092E-04
 0.25330004E+02 -0.66426E-04
 0.25380003E+02 -0.12928E-03
 0.25430004E+02 -0.56484E-04
 0.25480003E+02 -0.81700E-04
 0.25530005E+02 -0.13069E-03
 0.25580004E+02 -0.80222E-04
 0.25630003E+02 -0.46235E-04
 0.25680004E+02 -0.11491E-03
 0.25730003E+02 -0.53538E-04
 0.25780005E+02  0.11749E-03
 0.25830004E+02  0.23174E-04
 0.25880003E+02 -0.19395E-03
 0.25930004E+02 -0.35126E-03
 0.25980003E+02 -0.38170E-03
 0.26030005E+02 -0.27658E-03
 0.26080004E+02 -0.20445E-03
 0.26130003E+02 -0.11922E-03
 0.26180004E+02  0.69922E-05
 0.26230003E+02  0.14342E-03
 0.26280005E+02  0.15354E-03
 0.26330004E+02  0.10594E-03
 0.26380003E+02  0.76600E-04
 0.26430004E+02  0.59313E-04
 0.26480003E+02  0.40633E-04
 0.26530005E+02  0.23705E-04
 0.26580004E+02  0.12802E-03
 0.26630003E+02  0.92125E-04
 0.26680004E+02  0.57347E-04
 0.26730003E+02  0.20572E-03
 0.26780005E+02  0.28050E-03
 0.26830004E+02  0.31136E-03
 0.26880003E+02  0.26179E-03
 0.26930004E+02  0.31301E-04
 0.26980003E+02 -0.17999E-03
 0.27030005E+02 -0.23338E-03
 0.27080004E+02 -0.23026E-03
 0.27130003E+02 -0.14422E-03
 0.27180004E+02 -0.43500E-04
 0.27230003E+02  0.29284E-05
 0.27280005E+02  0.27625E-04
 0.27330004E+02  0.87344E-04
 0.27380003E+02  0.22055E-03
 0.27430004E+02  0.25420E-03
 0.27480003E+02  0.23458E-03
 0.27530005E+02  0.11524E-03
 0.27580004E+02 -0.15406E-04
 0.27630003E+02 -0.26821E-04
 0.27680004E+02 -0.45512E-04
 0.27730003E+02  0.67313E-04
 0.27780005E+02  0.18006E-03
 0.27830004E+02  0.27021E-03
 0.27880003E+02  0.34685E-03
 0.27930004E+02  0.12047E-03
 0.27980003E+02 -0.10219E-03
 0.28030005E+02 -0.20429E-03
 0.28080004E+02 -0.39181E-03
 0.28130003E+02 -0.43132E-03
 0.28180004E+02 -0.38993E-03
 0.28230003E+02 -0.40302E-03
 0.28280005E+02 -0.29917E-03
 0.28330004E+02 -0.71392E-04
 0.28380003E+02  0.70649E-04
 0.28430004E+02  0.12611E-03
 0.28480003E+02  0.17889E-03
 0.28530005E+02  0.14935E-03
 0.28580004E+02  0.29563E-04
 0.28630003E+02 -0.24334E-03
 0.28680004E+02 -0.43649E-03
 0.28730003E+02 -0.35062E-03
 0.28780005E+02 -0.23862E-03
 0.28830004E+02 -0.19684E-03
 0.28880003E+02 -0.12815E-03
 0.28930004E+02  0.10977E-03
 0.28980003E+02  0.29488E-03
 0.29030005E+02  0.26334E-03
 0.29080004E+02  0.31480E-03
 0.29130003E+02  0.40275E-03
 0.29180004E+02  0.42059E-03
 0.29230003E+02  0.36946E-03
 0.29280005E+02  0.23818E-03
 0.29330004E+02  0.71690E-04
 0.29380003E+02 -0.46048E-04
 0.29430004E+02 -0.16199E-03
 0.29480003E+02 -0.31364E-03
 0.29530005E+02 -0.34517E-03
 0.29580004E+02 -0.18659E-03
 0.29630003E+02  0.94961E-04
 0.29680004E+02  0.16380E-03
 0.29730003E+02  0.73658E-04
 0.29780005E+02 -0.29593E-04
 0.29830004E+02 -0.11943E-03
 0.29880003E+02 -0.11258E-03
 0.29930004E+02 -0.11873E-03
 0.29980003E+02 -0.11270E-04
 0.30030005E+02  0.11135E-03
 0.30080004E+02  0.41041E-04
 0.30130003E+02 -0.84765E-04
 0.30180004E+02 -0.76686E-04
 0.30230003E+02  0.84336E-04
 0.30280005E+02  0.21382E-03
 0.30330004E+02  0.22628E-03
 0.30380003E+02  0.17441E-03
 0.30430004E+02  0.19088E-03
 0.30480003E+02  0.31100E-03
 0.30530005E+02  0.28001E-03
 0.30580004E+02  0.61229E-04
 0.30630003E+02 -0.16557E-04
 0.30680004E+02  0.12574E-03
 0.30730003E+02  0.61197E-04
 0.30780005E+02 -0.26189E-03
 0.30830004E+02 -0.39312E-03
 0.30880003E+02 -0.48616E-03
 0.30930004E+02 -0.49975E-03
 0.30980003E+02 -0.37278E-03
 0.31030005E+02 -0.36866E-03
 0.31080004E+02 -0.35494E-03
 0.31130003E+02 -0.37360E-03
 0.31180004E+02 -0.27868E-03
 0.31230003E+02 -0.12485E-03
 0.31280005E+02 -0.19636E-04
 0.31330004E+02  0.18177E-03
 0.31380003E+02  0.31498E-03
 0.31430004E+02  0.37238E-03
 0.31480003E+02  0.31870E-03
 0.31530005E+02  0.15678E-03
 0.31580004E+02 -0.37399E-04
 0.31630003E+02 -0.75058E-04
 0.31680004E+02  0.17984E-03
 0.31730003E+02  0.38163E-03
 0.31780005E+02  0.37068E-03
 0.31830004E+02  0.21025E-03
 0.31880003E+02  0.20501E-03
 0.31930004E+02  0.32595E-03
 0.31980003E+02  0.29434E-03
 0.32030003E+02  0.26494E-03
 0.32080006E+02  0.14628E-03
 0.32130005E+02  0.14306E-04
 0.32180004E+02 -0.38792E-05
 0.32230003E+02 -0.20159E-04
 0.32280003E+02 -0.17909E-03
 0.32330006E+02 -0.36976E-03
 0.32380005E+02 -0.45955E-03
 0.32430004E+02 -0.37456E-03
 0.32480003E+02 -0.13174E-03
 0.32530003E+02 -0.13685E-03
 0.32580006E+02 -0.18191E-03
 0.32630005E+02 -0.16417E-03
 0.32680004E+02 -0.54649E-04
 0.32730003E+02  0.15849E-03
 0.32780003E+02  0.10811E-03
 0.32830006E+02  0.10384E-03
 0.32880005E+02  0.11811E-03
 0.32930004E+02  0.50508E-04
 0.32980003E+02  0.10938E-03
 0.33030003E+02  0.80951E-04
 0.33080006E+02  0.10054E-03
 0.33130005E+02  0.12607E-03
 0.33180004E+02 -0.59989E-04
 0.33230003E+02 -0.22494E-03
 0.33280003E+02 -0.27143E-03
 0.33330006E+02 -0.17379E-03
 0.33380005E+02 -0.12662E-04
 0.33430004E+02  0.73174E-04
 0.33480003E+02  0.11210E-03
 0.33530003E+02 -0.66653E-05
 0.33580006E+02 -0.19719E-03
 0.33630005E+02 -0.23425E-03
 0.33680004E+02 -0.16931E-03
 0.33730003E+02 -0.83470E-04
 0.33780003E+02 -0.13565E-03
 0.33830006E+02 -0.19260E-03
 0.33880005E+02 -0.61278E-05
 0.33930004E+02  0.19885E-03
 0.33980003E+02  0.42221E-03
 0.34030003E+02  0.68854E-03
 0.34080006E+02  0.64285E-03
 0.34130005E+02  0.47225E-03
 0.34180004E+02  0.37135E-03
 0.34230003E+02  0.13771E-03
 0.34280003E+02 -0.83875E-04
 0.34330006E+02 -0.35815E-03
 0.34380005E+02 -0.59900E-03
 0.34430004E+02 -0.60136E-03
 0.34480003E+02 -0.50077E-03
 0.34530003E+02 -0.29680E-03
 0.34580006E+02 -0.66808E-04
 0.34630005E+02  0.24197E-03
 0.34680004E+02  0.57415E-03
 0.34730003E+02  0.66104E-03
 0.34780003E+02  0.54301E-03
 0.34830006E+02  0.46169E-03
 0.34880005E+02  0.46527E-03
 0.34930004E+02  0.37720E-03
 0.34980003E+02  0.21466E-03
 0.35030003E+02  0.13713E-03
 0.35080006E+02 -0.20188E-03
 0.35130005E+02 -0.11491E-02
 0.35180004E+02 -0.22410E-02
 0.35230003E+02 -0.25641E-02
 0.35280003E+02 -0.17391E-02
 0.35330006E+02 -0.28485E-03
 0.35380005E+02  0.13565E-02
 0.35430004E+02  0.25708E-02
 0.35480003E+02  0.29650E-02
 0.35530003E+02  0.27984E-02
 0.35580006E+02  0.27009E-02
 0.35630005E+02  0.29211E-02
 0.35680004E+02  0.25994E-02
 0.35730003E+02  0.13529E-02
 0.35780003E+02 -0.57888E-03
 0.35830006E+02 -0.20623E-02
 0.35880005E+02 -0.24024E-02
 0.35930004E+02 -0.21807E-02
 0.35980003E+02 -0.18622E-02
 0.36030003E+02 -0.17025E-02
 0.36080006E+02 -0.14199E-02
 0.36130005E+02 -0.13508E-02
 0.36180004E+02 -0.21721E-02
 0.36230003E+02 -0.38419E-02
 0.36280003E+02 -0.57849E-02
 0.36330006E+02 -0.68670E-02
 0.36380005E+02 -0.57104E-02
 0.36430004E+02 -0.28823E-02
 0.36480003E+02  0.70234E-03
 0.36530003E+02  0.43337E-02
 0.36580006E+02  0.64652E-02
 0.36630005E+02  0.64499E-02
 0.36680004E+02  0.42378E-02
 0.36730003E+02  0.10516E-02
 0.36780003E+02 -0.20103E-02
 0.36830006E+02 -0.26445E-02
 0.36880005E+02 -0.18643E-02
 0.36930004E+02 -0.12223E-02
 0.36980003E+02 -0.50629E-03
 0.37030003E+02  0.99018E-03
 0.37080006E+02  0.61437E-02
 0.37130005E+02  0.86693E-02
 0.37180004E+02  0.69461E-02
 0.37230003E+02  0.49368E-02
 0.37280003E+02  0.23243E-02
 0.37330006E+02  0.23865E-03
 0.37380005E+02 -0.17262E-02
 0.37430004E+02 -0.14859E-02
 0.37480003E+02  0.48629E-03
 0.37530003E+02  0.89608E-03
 0.37580006E+02 -0.19225E-03
 0.37630005E+02 -0.12175E-02
 0.37680004E+02 -0.20865E-02
 0.37730003E+02 -0.39538E-02
 0.37780003E+02 -0.39273E-02
 0.37830006E+02 -0.16337E-02
 0.37880005E+02 -0.70653E-03
 0.37930004E+02 -0.11950E-02
 0.37980003E+02 -0.23024E-02
 0.38030003E+02 -0.32150E-02
 0.38080006E+02 -0.33591E-02
 0.38130005E+02 -0.34403E-02
 0.38180004E+02 -0.30942E-02
 0.38230003E+02 -0.27514E-02
 0.38280003E+02 -0.17684E-02
 0.38330006E+02  0.60111E-03
 0.38380005E+02  0.26970E-02
 0.38430004E+02  0.42521E-02
 0.38480003E+02  0.48218E-02
 0.38530003E+02  0.40096E-02
 0.38580006E+02  0.31536E-02
 0.38630005E+02  0.17131E-02
 0.38680004E+02 -0.26469E-03
 0.38730003E+02 -0.16767E-03
 0.38780003E+02  0.47390E-03
 0.38830006E+02 -0.45972E-03
 0.38880005E+02 -0.10070E-02
 0.38930004E+02 -0.51388E-03
 0.38980003E+02 -0.14953E-05
 0.39030003E+02  0.21447E-03
 0.39080006E+02  0.64627E-03
 0.39130005E+02  0.13946E-02
 0.39180004E+02  0.20492E-02
 0.39230003E+02  0.26498E-02
 0.39280003E+02  0.32535E-02
 0.39330006E+02  0.25321E-02
 0.39380005E+02  0.25925E-03
 0.39430004E+02 -0.20826E-02
 0.39480003E+02 -0.34938E-02
 0.39530003E+02 -0.31870E-02
 0.39580006E+02 -0.21543E-02
 0.39630005E+02 -0.85086E-03
 0.39680004E+02 -0.50213E-03
 0.39730003E+02 -0.21975E-02
 0.39780003E+02 -0.30343E-02
 0.39830006E+02 -0.20596E-02
 0.39880005E+02 -0.14163E-02
 0.39930004E+02 -0.21805E-02
 0.39980003E+02 -0.30850E-02
 0.40030003E+02 -0.25273E-02
 0.40080006E+02 -0.74212E-03
 0.40130005E+02  0.10673E-02
 0.40180004E+02  0.27875E-02
 0.40230003E+02  0.37371E-02
 0.40280003E+02  0.41979E-02
 0.40330006E+02  0.51088E-02
 0.40380005E+02  0.46904E-02
 0.40430004E+02  0.30937E-02
 0.40480003E+02  0.86802E-03
 0.40530003E+02 -0.12130E-02
 0.40580006E+02 -0.10852E-02
 0.40630005E+02 -0.91960E-04
 0.40680004E+02  0.25780E-04
 0.40730003E+02 -0.46580E-03
 0.40780003E+02 -0.19608E-02
 0.40830006E+02 -0.36806E-02
 0.40880005E+02 -0.37082E-02
 0.40930004E+02 -0.23911E-02
 0.40980003E+02 -0.76220E-03
 0.41030003E+02 -0.21965E-03
 0.41080006E+02 -0.51497E-03
 0.41130005E+02 -0.26267E-03
 0.41180004E+02 -0.12796E-03
 0.41230003E+02 -0.45097E-03
 0.41280003E+02 -0.13641E-02
 0.41330006E+02 -0.17000E-02
 0.41380005E+02 -0.17407E-03
 0.41430004E+02  0.15260E-02
 0.41480003E+02  0.23069E-02
 0.41530003E+02  0.25188E-02
 0.41580006E+02  0.21701E-02
 0.41630005E+02  0.16827E-02
 0.41680004E+02  0.14084E-02
 0.41730003E+02  0.16484E-02
 0.41780003E+02  0.23778E-02
 0.41830006E+02  0.29475E-02
 0.41880005E+02  0.26886E-02
 0.41930004E+02  0.10075E-02
 0.41980003E+02 -0.93737E-03
 0.42030003E+02 -0.16745E-02
 0.42080006E+02 -0.13882E-02
 0.42130005E+02 -0.11802E-02
 0.42180004E+02 -0.17341E-02
 0.42230003E+02 -0.20493E-02
 0.42280003E+02 -0.17166E-02
 0.42330006E+02 -0.12671E-02
 0.42380005E+02 -0.66912E-03
 0.42430004E+02 -0.28635E-03
 0.42480003E+02 -0.77779E-04
 0.42530003E+02  0.24205E-03
 0.42580006E+02  0.22810E-03
 0.42630005E+02  0.25014E-03
 0.42680004E+02  0.80271E-03
 0.42730003E+02  0.11574E-02
 0.42780003E+02  0.64028E-03
 0.42830006E+02 -0.23763E-03
 0.42880005E+02 -0.84980E-03
 0.42930004E+02 -0.13614E-02
 0.42980003E+02 -0.17092E-02
 0.43030003E+02 -0.15307E-02
 0.43080006E+02 -0.69089E-03
 0.43130005E+02  0.36246E-03
 0.43180004E+02  0.70714E-03
 0.43230003E+02  0.12011E-03
 0.43280003E+02 -0.71530E-03
 0.43330006E+02 -0.11302E-02
 0.43380005E+02 -0.89037E-03
 0.43430004E+02 -0.13300E-03
 0.43480003E+02  0.78009E-03
 0.43530003E+02  0.10367E-02
 0.43580006E+02  0.77902E-03
 0.43630005E+02  0.99725E-03
 0.43680004E+02  0.13230E-02
 0.43730003E+02  0.11855E-02
 0.43780003E+02  0.29029E-03
 0.43830006E+02 -0.51715E-03
 0.43880005E+02 -0.55654E-03
 0.43930004E+02 -0.54520E-03
 0.43980003E+02  0.41026E-04
 0.44030003E+02  0.84886E-03
 0.44080006E+02  0.10528E-02
 0.44130005E+02  0.12066E-02
 0.44180004E+02  0.10791E-02
 0.44230003E+02  0.30533E-03
 0.44280003E+02 -0.89831E-03
 0.44330006E+02 -0.19343E-02
 0.44380005E+02 -0.22412E-02
 0.44430004E+02 -0.18979E-02
 0.44480003E+02 -0.86002E-03
 0.44530003E+02  0.35568E-03
 0.44580006E+02  0.93882E-03
 0.44630005E+02  0.78085E-03
 0.44680004E+02  0.45086E-03
 0.44730003E+02  0.81820E-03
 0.44780003E+02  0.15785E-02
 0.44830006E+02  0.18554E-02
 0.44880005E+02  0.15012E-02
 0.44930004E+02  0.96686E-03
 0.44980003E+02  0.72144E-03
 0.45030003E+02  0.68169E-03
 0.45080006E+02  0.47769E-03
 0.45130005E+02 -0.14923E-03
 0.45180004E+02 -0.12028E-02
 0.45230003E+02 -0.19844E-02
 0.45280003E+02 -0.17762E-02
 0.45330006E+02 -0.96013E-03
 0.45380005E+02 -0.75394E-03
 0.45430004E+02 -0.13750E-02
 0.45480003E+02 -0.18182E-02
 0.45530003E+02 -0.20015E-02
 0.45580006E+02 -0.22373E-02
 0.45630005E+02 -0.24297E-02
 0.45680004E+02 -0.21706E-02
 0.45730003E+02 -0.13180E-02
 0.45780003E+02  0.13428E-03
 0.45830006E+02  0.23847E-02
 0.45880005E+02  0.43259E-02
 0.45930004E+02  0.49729E-02
 0.45980003E+02  0.44336E-02
 0.46030003E+02  0.32638E-02
 0.46080006E+02  0.19591E-02
 0.46130005E+02  0.31113E-03
 0.46180004E+02 -0.15610E-02
 0.46230003E+02 -0.35622E-02
 0.46280003E+02 -0.53587E-02
 0.46330006E+02 -0.58336E-02
 0.46380005E+02 -0.48523E-02
 0.46430004E+02 -0.28489E-02
 0.46480003E+02 -0.11919E-03
 0.46530003E+02  0.23604E-02
 0.46580006E+02  0.40433E-02
 0.46630005E+02  0.54861E-02
 0.46680004E+02  0.65864E-02
 0.46730003E+02  0.65668E-02
 0.46780003E+02  0.55775E-02
 0.46830006E+02  0.39263E-02
 0.46880005E+02  0.17808E-02
 0.46930004E+02 -0.35025E-03
 0.46980003E+02 -0.22924E-02
 0.47030003E+02 -0.39222E-02
 0.47080006E+02 -0.51107E-02
 0.47130005E+02 -0.55927E-02
 0.47180004E+02 -0.51836E-02
 0.47230003E+02 -0.42854E-02
 0.47280003E+02 -0.30798E-02
 0.47330006E+02 -0.15745E-02
 0.47380005E+02 -0.36968E-03
 0.47430004E+02  0.56728E-03
 0.47480003E+02  0.17466E-02
 0.47530003E+02  0.24185E-02
 0.47580006E+02  0.24083E-02
 0.47630005E+02  0.21873E-02
 0.47680004E+02  0.15100E-02
 0.47730003E+02  0.35069E-03
 0.47780003E+02 -0.62986E-03
 0.47830006E+02 -0.72962E-03
 0.47880005E+02 -0.30016E-03
 0.47930004E+02 -0.10943E-03
 0.47980003E+02 -0.13501E-03
 0.48030003E+02 -0.51465E-04
 0.48080006E+02 -0.95241E-04
 0.48130005E+02 -0.22926E-03
 0.48180004E+02 -0.25912E-03
 0.48230003E+02 -0.21922E-03
 0.48280003E+02  0.28892E-03
 0.48330006E+02  0.11631E-02
 0.48380005E+02  0.20203E-02
 0.48430004E+02  0.27498E-02
 0.48480003E+02  0.28341E-02
 0.48530003E+02  0.19375E-02
 0.48580006E+02  0.39295E-03
 0.48630005E+02 -0.12708E-02
 0.48680004E+02 -0.20731E-02
 0.48730003E+02 -0.16704E-02
 0.48780003E+02 -0.80171E-03
 0.48830006E+02  0.23547E-03
 0.48880005E+02  0.10258E-02
 0.48930004E+02  0.15084E-02
 0.48980003E+02  0.16393E-02
 0.49030003E+02  0.72187E-03
 0.49080006E+02 -0.11241E-02
 0.49130005E+02 -0.30729E-02
 0.49180004E+02 -0.39871E-02
 0.49230003E+02 -0.33871E-02
 0.49280003E+02 -0.20916E-02
 0.49330006E+02 -0.12786E-02
 0.49380005E+02 -0.95396E-03
 0.49430004E+02 -0.85056E-03
 0.49480003E+02 -0.11623E-02
 0.49530003E+02 -0.13148E-02
 0.49580006E+02 -0.73747E-03
 0.49630005E+02  0.48882E-03
 0.49680004E+02  0.16526E-02
 0.49730003E+02  0.27674E-02
 0.49780003E+02  0.39516E-02
 0.49830006E+02  0.44105E-02
 0.49880005E+02  0.41395E-02
 0.49930004E+02  0.32385E-02
 0.49980003E+02  0.18053E-02
 0.50030003E+02  0.44982E-03
 0.50080006E+02 -0.62683E-03
 0.50130005E+02 -0.16159E-02
 0.50180004E+02 -0.25199E-02
 0.50230003E+02 -0.28010E-02
 0.50280003E+02 -0.22234E-02
 0.50330006E+02 -0.13580E-02
 0.50380005E+02 -0.72468E-03
 0.50430004E+02 -0.39085E-03
 0.50480003E+02  0.69767E-04
 0.50530003E+02  0.80385E-03
 0.50580006E+02  0.15957E-02
 0.50630005E+02  0.20970E-02
 0.50680004E+02  0.18258E-02
 0.50730003E+02  0.93004E-03
 0.50780003E+02 -0.36113E-03
 0.50830006E+02 -0.16393E-02
 0.50880005E+02 -0.25446E-02
 0.50930004E+02 -0.33123E-02
 0.50980003E+02 -0.36218E-02
 0.51030003E+02 -0.29890E-02
 0.51080006E+02 -0.19089E-02
 0.51130005E+02 -0.89079E-03
 0.51180004E+02 -0.63972E-04
 0.51230003E+02  0.35452E-03
 0.51280003E+02  0.44671E-03
 0.51330006E+02  0.44765E-03
 0.51380005E+02  0.77347E-03
 0.51430004E+02  0.15280E-02
 0.51480003E+02  0.24019E-02
 0.51530003E+02  0.32876E-02
 0.51580006E+02  0.38926E-02
 0.51630005E+02  0.37641E-02
 0.51680004E+02  0.28126E-02
 0.51730003E+02  0.14338E-02
 0.51780003E+02  0.22940E-03
 0.51830006E+02 -0.85611E-03
 0.51880005E+02 -0.20408E-02
 0.51930004E+02 -0.27517E-02
 0.51980003E+02 -0.28681E-02
 0.52030003E+02 -0.24794E-02
 0.52080006E+02 -0.15179E-02
 0.52130005E+02 -0.58225E-03
 0.52180004E+02 -0.54200E-04
 0.52230003E+02  0.85990E-04
 0.52280003E+02 -0.11726E-03
 0.52330006E+02 -0.53487E-03
 0.52380005E+02 -0.83146E-03
 0.52430004E+02 -0.14102E-03
 0.52480003E+02  0.14684E-02
 0.52530003E+02  0.26752E-02
 0.52580006E+02  0.29141E-02
 0.52630005E+02  0.24839E-02
 0.52680004E+02  0.17770E-02
 0.52730003E+02  0.91354E-03
 0.52780003E+02 -0.90550E-04
 0.52830006E+02 -0.90392E-03
 0.52880005E+02 -0.13743E-02
 0.52930004E+02 -0.16650E-02
 0.52980003E+02 -0.18933E-02
 0.53030003E+02 -0.20394E-02
 0.53080006E+02 -0.22104E-02
 0.53130005E+02 -0.23638E-02
 0.53180004E+02 -0.20989E-02
 0.53230003E+02 -0.13784E-02
 0.53280003E+02 -0.21418E-03
 0.53330006E+02  0.14499E-02
 0.53380005E+02  0.31226E-02
 0.53430004E+02  0.43114E-02
 0.53480003E+02  0.46288E-02
 0.53530003E+02  0.36523E-02
 0.53580006E+02  0.18529E-02
 0.53630005E+02 -0.11548E-03
 0.53680004E+02 -0.21135E-02
 0.53730003E+02 -0.36080E-02
 0.53780003E+02 -0.42545E-02
 0.53830006E+02 -0.41148E-02
 0.53880005E+02 -0.34643E-02
 0.53930004E+02 -0.26092E-02
 0.53980003E+02 -0.14128E-02
 0.54030003E+02 -0.76271E-04
 0.54080006E+02  0.89894E-03
 0.54130005E+02  0.14471E-02
 0.54180004E+02  0.18705E-02
 0.54230003E+02  0.22376E-02
 0.54280003E+02  0.25397E-02
 0.54330006E+02  0.27392E-02
 0.54380005E+02  0.24420E-02
 0.54430004E+02  0.15163E-02
 0.54480003E+02  0.10034E-03
 0.54530003E+02 -0.14123E-02
 0.54580006E+02 -0.24094E-02
 0.54630005E+02 -0.27221E-02
 0.54680004E+02 -0.23591E-02
 0.54730003E+02 -0.13282E-02
 0.54780003E+02 -0.67748E-04
 0.54830006E+02  0.10446E-02
 0.54880005E+02  0.18466E-02
 0.54930004E+02  0.20909E-02
 0.54980003E+02  0.18551E-02
 0.55030003E+02  0.14786E-02
 0.55080006E+02  0.11640E-02
 0.55130005E+02  0.10433E-02
 0.55180004E+02  0.10769E-02
 0.55230003E+02  0.10877E-02
 0.55280003E+02  0.11299E-02
 0.55330006E+02  0.12224E-02
 0.55380005E+02  0.11443E-02
 0.55430004E+02  0.62770E-03
 0.55480003E+02 -0.35995E-03
 0.55530003E+02 -0.15232E-02
 0.55580006E+02 -0.24983E-02
 0.55630005E+02 -0.30176E-02
 0.55680004E+02 -0.31189E-02
 0.55730003E+02 -0.28457E-02
 0.55780003E+02 -0.20606E-02
 0.55830006E+02 -0.93714E-03
 0.55880005E+02 -0.70515E-04
 0.55930004E+02  0.27264E-03
 0.55980003E+02  0.41814E-03
 0.56030003E+02  0.47212E-03
 0.56080006E+02  0.36293E-03
 0.56130005E+02  0.16540E-03
 0.56180004E+02 -0.69261E-04
 0.56230003E+02 -0.26573E-03
 0.56280003E+02 -0.27699E-03
 0.56330006E+02 -0.29525E-04
 0.56380005E+02  0.48629E-03
 0.56430004E+02  0.10910E-02
 0.56480003E+02  0.14006E-02
 0.56530003E+02  0.13782E-02
 0.56580006E+02  0.12564E-02
 0.56630005E+02  0.12261E-02
 0.56680004E+02  0.12281E-02
 0.56730003E+02  0.10217E-02
 0.56780003E+02  0.48697E-03
 0.56830006E+02 -0.37992E-03
 0.56880005E+02 -0.13520E-02
 0.56930004E+02 -0.22220E-02
 0.56980003E+02 -0.28215E-02
 0.57030003E+02 -0.27688E-02
 0.57080006E+02 -0.20614E-02
 0.57130005E+02 -0.12096E-02
 0.57180004E+02 -0.52955E-03
 0.57230003E+02 -0.20436E-03
 0.57280003E+02 -0.15469E-03
 0.57330006E+02 -0.28201E-04
 0.57380005E+02  0.25788E-03
 0.57430004E+02  0.79917E-03
 0.57480003E+02  0.13944E-02
 0.57530003E+02  0.17387E-02
 0.57580006E+02  0.19818E-02
 0.57630005E+02  0.20818E-02
 0.57680004E+02  0.19867E-02
 0.57730003E+02  0.17102E-02
 0.57780003E+02  0.11550E-02
 0.57830006E+02  0.70945E-03
 0.57880005E+02  0.61014E-03
 0.57930004E+02  0.59652E-03
 0.57980003E+02  0.75580E-03
 0.58030003E+02  0.11560E-02
 0.58080006E+02  0.13295E-02
 0.58130005E+02  0.83684E-03
 0.58180004E+02 -0.91422E-04
 0.58230003E+02 -0.96077E-03
 0.58280003E+02 -0.16168E-02
 0.58330006E+02 -0.20116E-02
 0.58380005E+02 -0.22115E-02
 0.58430004E+02 -0.23395E-02
 0.58480003E+02 -0.21075E-02
 0.58530003E+02 -0.15431E-02
 0.58580006E+02 -0.10655E-02
 0.58630005E+02 -0.62399E-03
 0.58680004E+02 -0.31459E-03
 0.58730003E+02 -0.23114E-03
 0.58780003E+02 -0.10346E-03
 0.58830006E+02  0.84908E-04
 0.58880005E+02  0.10364E-03
 0.58930004E+02 -0.17933E-03
 0.58980003E+02 -0.55839E-03
 0.59030003E+02 -0.81343E-03
 0.59080006E+02 -0.90796E-03
 0.59130005E+02 -0.84085E-03
 0.59180004E+02 -0.71727E-03
 0.59230003E+02 -0.61456E-03
 0.59280003E+02 -0.51911E-03
 0.59330006E+02 -0.28908E-03
 0.59380005E+02  0.30464E-03
 0.59430004E+02  0.11098E-02
 0.59480003E+02  0.17283E-02
 0.59530003E+02  0.20107E-02
 0.59580006E+02  0.21110E-02
 0.59630005E+02  0.23312E-02
 0.59680004E+02  0.26233E-02
 0.59730003E+02  0.27000E-02
 0.59780003E+02  0.26012E-02
 0.59830006E+02  0.23360E-02
 0.59880005E+02  0.17989E-02
 0.59930004E+02  0.11119E-02
 0.59980003E+02  0.45175E-03
 0.60030003E+02 -0.62819E-04
 0.60080006E+02 -0.45769E-03
 0.60130005E+02 -0.83953E-03
 0.60180004E+02 -0.12696E-02
 0.60230003E+02 -0.16053E-02
 0.60280003E+02 -0.16266E-02
 0.60330006E+02 -0.14870E-02
 0.60380005E+02 -0.14987E-02
 0.60430004E+02 -0.17164E-02
 0.60480003E+02 -0.20882E-02
 0.60530003E+02 -0.23429E-02
 0.60580006E+02 -0.21705E-02
 0.60630005E+02 -0.19212E-02
 0.60680004E+02 -0.17871E-02
 0.60730003E+02 -0.16385E-02
 0.60780003E+02 -0.14188E-02
 0.60830006E+02 -0.89310E-03
 0.60880005E+02 -0.22891E-03
 0.60930004E+02  0.53856E-03
 0.60980003E+02  0.13842E-02
 0.61030003E+02  0.17439E-02
 0.61080006E+02  0.16263E-02
 0.61130005E+02  0.12924E-02
 0.61180004E+02  0.80993E-03
 0.61230003E+02  0.42353E-03
 0.61280003E+02  0.10192E-03
 0.61330006E+02 -0.26491E-03
 0.61380005E+02 -0.44121E-03
 0.61430004E+02 -0.34595E-03
 0.61480003E+02 -0.23670E-04
 0.61530003E+02  0.41500E-03
 0.61580006E+02  0.82303E-03
 0.61630005E+02  0.13708E-02
 0.61680004E+02  0.19560E-02
 0.61730003E+02  0.22446E-02
 0.61780003E+02  0.22607E-02
 0.61830006E+02  0.23422E-02
 0.61880005E+02  0.25478E-02
 0.61930004E+02  0.24338E-02
 0.61980003E+02  0.18707E-02
 0.62030003E+02  0.10259E-02
 0.62080006E+02  0.83321E-04
 0.62130005E+02 -0.87432E-03
 0.62180004E+02 -0.19330E-02
 0.62230003E+02 -0.28025E-02
 0.62280003E+02 -0.30833E-02
 0.62330006E+02 -0.28171E-02
 0.62380005E+02 -0.23616E-02
 0.62430004E+02 -0.18289E-02
 0.62480003E+02 -0.12666E-02
 0.62530003E+02 -0.85489E-03
 0.62580006E+02 -0.53056E-03
 0.62630005E+02 -0.37370E-03
 0.62680004E+02 -0.36634E-03
 0.62730003E+02 -0.38240E-03
 0.62780003E+02 -0.30228E-03
 0.62830006E+02 -0.96718E-05
 0.62880005E+02  0.39848E-03
 0.62930004E+02  0.79569E-03
 0.62980003E+02  0.98379E-03
 0.63030003E+02  0.88654E-03
 0.63080006E+02  0.52920E-03
 0.63130005E+02  0.11218E-03
 0.63180004E+02 -0.28447E-03
 0.63230003E+02 -0.51921E-03
 0.63280003E+02 -0.44096E-03
 0.63330006E+02 -0.33353E-03
 0.63380005E+02 -0.14284E-03
 0.63430004E+02  0.18455E-03
 0.63480003E+02  0.40899E-03
 0.63530003E+02  0.49099E-03
 0.63580006E+02  0.49124E-03
 0.63630005E+02  0.34121E-03
 0.63680004E+02  0.12781E-03
 0.63730003E+02  0.22043E-03
 0.63780003E+02  0.59393E-03
 0.63830006E+02  0.86996E-03
 0.63880005E+02  0.10510E-02
 0.63930004E+02  0.11060E-02
 0.63980003E+02  0.98512E-03
 0.64030006E+02  0.96728E-03
 0.64080002E+02  0.93048E-03
 0.64130005E+02  0.67711E-03
 0.64180008E+02  0.11988E-03
 0.64230003E+02 -0.66591E-03
 0.64280006E+02 -0.13935E-02
 0.64330002E+02 -0.18868E-02
 0.64380005E+02 -0.20782E-02
 0.64430008E+02 -0.21138E-02
 0.64480003E+02 -0.19055E-02
 0.64530006E+02 -0.14028E-02
 0.64580002E+02 -0.73522E-03
 0.64630005E+02  0.73759E-04
 0.64680008E+02  0.92541E-03
 0.64730003E+02  0.15144E-02
 0.64780006E+02  0.17798E-02
 0.64830002E+02  0.19534E-02
 0.64880005E+02  0.18585E-02
 0.64930008E+02  0.14498E-02
 0.64980003E+02  0.81188E-03
 0.65030006E+02 -0.74348E-04
 0.65080002E+02 -0.10580E-02
 0.65130005E+02 -0.18179E-02
 0.65180008E+02 -0.20079E-02
 0.65230003E+02 -0.17043E-02
 0.65280006E+02 -0.11476E-02
 0.65330002E+02 -0.52299E-03
 0.65380005E+02  0.41793E-04
 0.65430008E+02  0.56485E-03
 0.65480003E+02  0.11387E-02
 0.65530006E+02  0.15973E-02
 0.65580002E+02  0.16536E-02
 0.65630005E+02  0.14349E-02
 0.65680008E+02  0.10356E-02
 0.65730003E+02  0.47668E-03
 0.65780006E+02 -0.65926E-04
 0.65830002E+02 -0.48473E-03
 0.65880005E+02 -0.69827E-03
 0.65930008E+02 -0.71560E-03
 0.65980003E+02 -0.64923E-03
 0.66030006E+02 -0.65358E-03
 0.66080002E+02 -0.69235E-03
 0.66130005E+02 -0.74899E-03
 0.66180008E+02 -0.82767E-03
 0.66230003E+02 -0.70253E-03
 0.66280006E+02 -0.44498E-03
 0.66330002E+02 -0.23551E-03
 0.66380005E+02 -0.19558E-03
 0.66430008E+02 -0.32181E-03
 0.66480003E+02 -0.41821E-03
 0.66530006E+02 -0.39708E-03
 0.66580002E+02 -0.22649E-03
 0.66630005E+02 -0.99947E-04
 0.66680008E+02 -0.40368E-04
 0.66730003E+02  0.89595E-04
 0.66780006E+02  0.17990E-03
 0.66830002E+02  0.41028E-03
 0.66880005E+02  0.80041E-03
 0.66930008E+02  0.10737E-02
 0.66980003E+02  0.12250E-02
 0.67030006E+02  0.12217E-02
 0.67080002E+02  0.11282E-02
 0.67130005E+02  0.95308E-03
 0.67180008E+02  0.72188E-03
 0.67230003E+02  0.62336E-03
 0.67280006E+02  0.51495E-03
 0.67330002E+02  0.26099E-03
 0.67380005E+02 -0.69902E-04
 0.67430008E+02 -0.25345E-03
 0.67480003E+02 -0.22720E-03
 0.67530006E+02 -0.25190E-03
 0.67580002E+02 -0.33986E-03
 0.67630005E+02 -0.36017E-03
 0.67680008E+02 -0.38327E-03
 0.67730003E+02 -0.54808E-03
 0.67780006E+02 -0.83207E-03
 0.67830002E+02 -0.95925E-03
 0.67880005E+02 -0.72154E-03
 0.67930008E+02 -0.25833E-03
 0.67980003E+02  0.12794E-03
 0.68030006E+02  0.85315E-04
 0.68080002E+02 -0.25766E-03
 0.68130005E+02 -0.43973E-03
 0.68180008E+02 -0.43841E-03
 0.68230003E+02 -0.26829E-03
 0.68280006E+02  0.21499E-04
 0.68330002E+02  0.32445E-03
 0.68380005E+02  0.56747E-03
 0.68430008E+02  0.57619E-03
 0.68480003E+02  0.47587E-03
 0.68530006E+02  0.40284E-03
 0.68580002E+02  0.23618E-03
 0.68630005E+02 -0.15929E-03
 0.68680008E+02 -0.70182E-03
 0.68730003E+02 -0.11130E-02
 0.68780006E+02 -0.12038E-02
 0.68830002E+02 -0.10070E-02
 0.68880005E+02 -0.83203E-03
 0.68930008E+02 -0.72570E-03
 0.68980003E+02 -0.48893E-03
 0.69030006E+02 -0.28925E-03
 0.69080002E+02 -0.26762E-03
 0.69130005E+02 -0.32629E-03
 0.69180008E+02 -0.34126E-03
 0.69230003E+02 -0.17141E-03
 0.69280006E+02  0.23452E-03
 0.69330002E+02  0.87394E-03
 0.69380005E+02  0.15819E-02
 0.69430008E+02  0.20528E-02
 0.69480003E+02  0.21572E-02
 0.69530006E+02  0.19484E-02
 0.69580002E+02  0.15446E-02
 0.69630005E+02  0.11336E-02
 0.69680008E+02  0.81617E-03
 0.69730003E+02  0.46692E-03
 0.69780006E+02 -0.18616E-04
 0.69830002E+02 -0.57179E-03
 0.69880005E+02 -0.89354E-03
 0.69930008E+02 -0.84063E-03
 0.69980003E+02 -0.62483E-03
 0.70030006E+02 -0.49476E-03
 0.70080002E+02 -0.57794E-03
 0.70130005E+02 -0.70092E-03
 0.70180008E+02 -0.74737E-03
 0.70230003E+02 -0.65723E-03
 0.70280006E+02 -0.28868E-03
 0.70330002E+02  0.30964E-03
 0.70380005E+02  0.83901E-03
 0.70430008E+02  0.10725E-02
 0.70480003E+02  0.10982E-02
 0.70530006E+02  0.93413E-03
 0.70580002E+02  0.59181E-03
 0.70630005E+02  0.11404E-03
 0.70680008E+02 -0.44217E-03
 0.70730003E+02 -0.92280E-03
 0.70780006E+02 -0.12586E-02
 0.70830002E+02 -0.14075E-02
 0.70880005E+02 -0.13681E-02
 0.70930008E+02 -0.12658E-02
 0.70980003E+02 -0.10927E-02
 0.71030006E+02 -0.71762E-03
 0.71080002E+02 -0.34411E-03
 0.71130005E+02 -0.13705E-03
 0.71180008E+02 -0.28449E-04
 0.71230003E+02 -0.17732E-04
 0.71280006E+02  0.53515E-04
 0.71330002E+02  0.22253E-03
 0.71380005E+02  0.33478E-03
 0.71430008E+02  0.39062E-03
 0.71480003E+02  0.38943E-03
 0.71530006E+02  0.39565E-03
 0.71580002E+02  0.51331E-03
 0.71630005E+02  0.75922E-03
 0.71680008E+02  0.94463E-03
 0.71730003E+02  0.85922E-03
 0.71780006E+02  0.62305E-03
 0.71830002E+02  0.21995E-03
 0.71880005E+02 -0.29008E-03
 0.71930008E+02 -0.56730E-03
 0.71980003E+02 -0.61994E-03
 0.72030006E+02 -0.49855E-03
 0.72080002E+02 -0.18301E-03
 0.72130005E+02  0.10118E-03
 0.72180008E+02  0.21799E-03
 0.72230003E+02  0.19885E-03
 0.72280006E+02  0.80682E-04
 0.72330002E+02  0.10471E-04
 0.72380005E+02  0.28880E-04
 0.72430008E+02  0.44032E-04
 0.72480003E+02  0.88727E-04
 0.72530006E+02  0.13261E-03
 0.72580002E+02  0.23214E-03
 0.72630005E+02  0.38820E-03
 0.72680008E+02  0.47756E-03
 0.72730003E+02  0.55873E-03
 0.72780006E+02  0.50634E-03
 0.72830002E+02  0.34327E-03
 0.72880005E+02  0.35935E-03
 0.72930008E+02  0.46793E-03
 0.72980003E+02  0.44844E-03
 0.73030006E+02  0.30608E-03
 0.73080002E+02  0.67615E-04
 0.73130005E+02 -0.28977E-03
 0.73180008E+02 -0.71062E-03
 0.73230003E+02 -0.10817E-02
 0.73280006E+02 -0.12535E-02
 0.73330002E+02 -0.12304E-02
 0.73380005E+02 -0.11128E-02
 0.73430008E+02 -0.90678E-03
 0.73480003E+02 -0.71216E-03
 0.73530006E+02 -0.60120E-03
 0.73580002E+02 -0.48418E-03
 0.73630005E+02 -0.25645E-03
 0.73680008E+02 -0.29249E-04
 0.73730003E+02  0.75663E-04
 0.73780006E+02  0.12765E-03
 0.73830002E+02  0.23355E-03
 0.73880005E+02  0.46420E-03
 0.73930008E+02  0.68941E-03
 0.73980003E+02  0.91638E-03
 0.74030006E+02  0.12068E-02
 0.74080002E+02  0.13481E-02
 0.74130005E+02  0.12517E-02
 0.74180008E+02  0.97508E-03
 0.74230003E+02  0.60905E-03
 0.74280006E+02  0.32335E-03
 0.74330002E+02  0.23951E-03
 0.74380005E+02  0.29001E-03
 0.74430008E+02  0.22548E-03
 0.74480003E+02 -0.43374E-04
 0.74530006E+02 -0.32179E-03
 0.74580002E+02 -0.52125E-03
 0.74630005E+02 -0.70284E-03
 0.74680008E+02 -0.86869E-03
 0.74730003E+02 -0.10329E-02
 0.74780006E+02 -0.11859E-02
 0.74830002E+02 -0.12452E-02
 0.74880005E+02 -0.11411E-02
 0.74930008E+02 -0.91675E-03
 0.74980003E+02 -0.66746E-03
 0.75030006E+02 -0.41235E-03
 0.75080002E+02 -0.19063E-03
 0.75130005E+02 -0.78735E-05
 0.75180008E+02  0.21307E-03
 0.75230003E+02  0.41581E-03
 0.75280006E+02  0.51621E-03
 0.75330002E+02  0.61754E-03
 0.75380005E+02  0.56675E-03
 0.75430008E+02  0.28535E-03
 0.75480003E+02  0.96829E-04
 0.75530006E+02  0.38165E-04
 0.75580002E+02  0.76577E-04
 0.75630005E+02  0.15482E-03
 0.75680008E+02  0.20648E-03
 0.75730003E+02  0.30883E-03
 0.75780006E+02  0.45236E-03
 0.75830002E+02  0.60413E-03
 0.75880005E+02  0.64667E-03
 0.75930008E+02  0.62462E-03
 0.75980003E+02  0.59926E-03
 0.76030006E+02  0.44093E-03
 0.76080002E+02  0.22480E-03
 0.76130005E+02  0.91462E-04
 0.76180008E+02 -0.15823E-04
 0.76230003E+02 -0.10564E-03
 0.76280006E+02 -0.13664E-03
 0.76330002E+02 -0.85576E-04
 0.76380005E+02  0.40538E-04
 0.76430008E+02  0.43475E-04
 0.76480003E+02 -0.74270E-04
 0.76530006E+02 -0.17103E-03
 0.76580002E+02 -0.17890E-03
 0.76630005E+02 -0.50400E-04
 0.76680008E+02  0.28510E-04
 0.76730003E+02 -0.61378E-04
 0.76780006E+02 -0.21979E-03
 0.76830002E+02 -0.34185E-03
 0.76880005E+02 -0.41356E-03
 0.76930008E+02 -0.43782E-03
 0.76980003E+02 -0.38938E-03
 0.77030006E+02 -0.26859E-03
 0.77080002E+02 -0.10042E-03
 0.77130005E+02  0.34569E-04
 0.77180008E+02  0.11080E-03
 0.77230003E+02  0.15636E-03
 0.77280006E+02  0.91836E-04
 0.77330002E+02 -0.10813E-03
 0.77380005E+02 -0.27283E-03
 0.77430008E+02 -0.35802E-03
 0.77480003E+02 -0.45915E-03
 0.77530006E+02 -0.59037E-03
 0.77580002E+02 -0.73496E-03
 0.77630005E+02 -0.79005E-03
 0.77680008E+02 -0.67027E-03
 0.77730003E+02 -0.42205E-03
 0.77780006E+02 -0.92708E-04
 0.77830002E+02  0.26293E-03
 0.77880005E+02  0.45835E-03
 0.77930008E+02  0.42440E-03
 0.77980003E+02  0.33305E-03
 0.78030006E+02  0.21570E-03
 0.78080002E+02  0.10170E-03
 0.78130005E+02  0.63697E-04
 0.78180008E+02  0.37015E-04
 0.78230003E+02  0.40689E-04
 0.78280006E+02  0.16535E-03
 0.78330002E+02  0.44508E-03
 0.78380005E+02  0.77440E-03
 0.78430008E+02  0.10980E-02
 0.78480003E+02  0.14760E-02
 0.78530006E+02  0.17137E-02
 0.78580002E+02  0.16185E-02
 0.78630005E+02  0.12950E-02
 0.78680008E+02  0.82344E-03
 0.78730003E+02  0.27774E-03
 0.78780006E+02 -0.23568E-03
 0.78830002E+02 -0.71561E-03
 0.78880005E+02 -0.11061E-02
 0.78930008E+02 -0.13362E-02
 0.78980003E+02 -0.13639E-02
 0.79030006E+02 -0.12019E-02
 0.79080002E+02 -0.10027E-02
 0.79130005E+02 -0.82663E-03
 0.79180008E+02 -0.63944E-03
 0.79230003E+02 -0.47868E-03
 0.79280006E+02 -0.38003E-03
 0.79330002E+02 -0.27037E-03
 0.79380005E+02 -0.12303E-04
 0.79430008E+02  0.40124E-03
 0.79480003E+02  0.81885E-03
 0.79530006E+02  0.10797E-02
 0.79580002E+02  0.12008E-02
 0.79630005E+02  0.12345E-02
 0.79680008E+02  0.10466E-02
 0.79730003E+02  0.66267E-03
 0.79780006E+02  0.17154E-03
 0.79830002E+02 -0.35791E-03
 0.79880005E+02 -0.70406E-03
 0.79930008E+02 -0.85252E-03
 0.79980003E+02 -0.92247E-03
 0.80030006E+02 -0.10129E-02
 0.80080002E+02 -0.11109E-02
 0.80130005E+02 -0.10500E-02
 0.80180008E+02 -0.86426E-03
 0.80230003E+02 -0.65529E-03
 0.80280006E+02 -0.43200E-03
 0.80330002E+02 -0.26726E-03
 0.80380005E+02 -0.17313E-03
 0.80430008E+02 -0.94536E-04
 0.80480003E+02  0.57057E-05
 0.80530006E+02  0.13687E-03
 0.80580002E+02  0.20847E-03
 0.80630005E+02  0.18651E-03
 0.80680008E+02  0.10651E-03
 0.80730003E+02  0.17847E-04
 0.80780006E+02  0.24460E-04
 0.80830002E+02  0.10385E-03
 0.80880005E+02  0.21138E-03
 0.80930008E+02  0.35687E-03
 0.80980003E+02  0.52933E-03
 0.81030006E+02  0.75554E-03
 0.81080002E+02  0.98701E-03
 0.81130005E+02  0.11277E-02
 0.81180008E+02  0.11067E-02
 0.81230003E+02  0.93812E-03
 0.81280006E+02  0.72949E-03
 0.81330002E+02  0.49210E-03
 0.81380005E+02  0.19809E-03
 0.81430008E+02 -0.73954E-04
 0.81480003E+02 -0.29966E-03
 0.81530006E+02 -0.47042E-03
 0.81580002E+02 -0.50239E-03
 0.81630005E+02 -0.41748E-03
 0.81680008E+02 -0.25165E-03
 0.81730003E+02 -0.14125E-03
 0.81780006E+02 -0.14075E-03
 0.81830002E+02 -0.89804E-04
 0.81880005E+02 -0.20740E-04
 0.81930008E+02  0.61244E-04
 0.81980003E+02  0.20207E-03
 0.82030006E+02  0.33423E-03
 0.82080002E+02  0.35590E-03
 0.82130005E+02  0.30667E-03
 0.82180008E+02  0.29801E-03
 0.82230003E+02  0.22964E-03
 0.82280006E+02  0.71426E-04
 0.82330002E+02 -0.19659E-03
 0.82380005E+02 -0.57864E-03
 0.82430008E+02 -0.94447E-03
 0.82480003E+02 -0.12349E-02
 0.82530006E+02 -0.14240E-02
 0.82580002E+02 -0.14985E-02
 0.82630005E+02 -0.14731E-02
 0.82680008E+02 -0.13621E-02
 0.82730003E+02 -0.11378E-02
 0.82780006E+02 -0.84471E-03
 0.82830002E+02 -0.57560E-03
 0.82880005E+02 -0.34851E-03
 0.82930008E+02 -0.91289E-04
 0.82980003E+02  0.28272E-03
 0.83030006E+02  0.67575E-03
 0.83080002E+02  0.98331E-03
 0.83130005E+02  0.12033E-02
 0.83180008E+02  0.12853E-02
 0.83230003E+02  0.13286E-02
 0.83280006E+02  0.14922E-02
 0.83330002E+02  0.16986E-02
 0.83380005E+02  0.17717E-02
 0.83430008E+02  0.16537E-02
 0.83480003E+02  0.14347E-02
 0.83530006E+02  0.11843E-02
 0.83580002E+02  0.88850E-03
 0.83630005E+02  0.50819E-03
 0.83680008E+02  0.14128E-03
 0.83730003E+02 -0.73031E-04
 0.83780006E+02 -0.21414E-03
 0.83830002E+02 -0.36703E-03
 0.83880005E+02 -0.49179E-03
 0.83930008E+02 -0.58510E-03
 0.83980003E+02 -0.72354E-03
 0.84030006E+02 -0.92064E-03
 0.84080002E+02 -0.10306E-02
 0.84130005E+02 -0.99708E-03
 0.84180008E+02 -0.93622E-03
 0.84230003E+02 -0.89571E-03
 0.84280006E+02 -0.91345E-03
 0.84330002E+02 -0.91024E-03
 0.84380005E+02 -0.77037E-03
 0.84430008E+02 -0.58927E-03
 0.84480003E+02 -0.43197E-03
 0.84530006E+02 -0.39254E-03
 0.84580002E+02 -0.46810E-03
 0.84630005E+02 -0.45325E-03
 0.84680008E+02 -0.29799E-03
 0.84730003E+02 -0.75040E-04
 0.84780006E+02  0.10372E-03
 0.84830002E+02  0.20917E-03
 0.84880005E+02  0.33745E-03
 0.84930008E+02  0.42693E-03
 0.84980003E+02  0.43924E-03
 0.85030006E+02  0.45702E-03
 0.85080002E+02  0.46817E-03
 0.85130005E+02  0.48430E-03
 0.85180008E+02  0.49459E-03
 0.85230003E+02  0.47491E-03
 0.85280006E+02  0.44731E-03
 0.85330002E+02  0.33321E-03
 0.85380005E+02  0.11327E-03
 0.85430008E+02 -0.10342E-03
 0.85480003E+02 -0.24088E-03
 0.85530006E+02 -0.34608E-03
 0.85580002E+02 -0.45676E-03
 0.85630005E+02 -0.51173E-03
 0.85680008E+02 -0.48519E-03
 0.85730003E+02 -0.38105E-03
 0.85780006E+02 -0.21570E-03
 0.85830002E+02 -0.21430E-04
 0.85880005E+02  0.20243E-03
 0.85930008E+02  0.43646E-03
 0.85980003E+02  0.56873E-03
 0.86030006E+02  0.57362E-03
 0.86080002E+02  0.52153E-03
 0.86130005E+02  0.46192E-03
 0.86180008E+02  0.41232E-03
 0.86230003E+02  0.32698E-03
 0.86280006E+02  0.25697E-03
 0.86330002E+02  0.23795E-03
 0.86380005E+02  0.22219E-03
 0.86430008E+02  0.24256E-03
 0.86480003E+02  0.31400E-03
 0.86530006E+02  0.39899E-03
 0.86580002E+02  0.44638E-03
 0.86630005E+02  0.40912E-03
 0.86680008E+02  0.25827E-03
 0.86730003E+02 -0.23036E-04
 0.86780006E+02 -0.37244E-03
 0.86830002E+02 -0.74594E-03
 0.86880005E+02 -0.11029E-02
 0.86930008E+02 -0.12869E-02
 0.86980003E+02 -0.12740E-02
 0.87030006E+02 -0.10968E-02
 0.87080002E+02 -0.79271E-03
 0.87130005E+02 -0.48104E-03
 0.87180008E+02 -0.18490E-03
 0.87230003E+02  0.79398E-04
 0.87280006E+02  0.28854E-03
 0.87330002E+02  0.38264E-03
 0.87380005E+02  0.37668E-03
 0.87430008E+02  0.36740E-03
 0.87480003E+02  0.31262E-03
 0.87530006E+02  0.21701E-03
 0.87580002E+02  0.15253E-03
 0.87630005E+02  0.94155E-04
 0.87680008E+02  0.22021E-04
 0.87730003E+02 -0.11902E-04
 0.87780006E+02 -0.24467E-04
 0.87830002E+02 -0.15654E-04
 0.87880005E+02  0.31730E-04
 0.87930008E+02  0.59429E-04
 0.87980003E+02  0.83386E-04
 0.88030006E+02  0.15670E-03
 0.88080002E+02  0.27708E-03
 0.88130005E+02  0.38222E-03
 0.88180008E+02  0.43741E-03
 0.88230003E+02  0.45068E-03
 0.88280006E+02  0.47503E-03
 0.88330002E+02  0.56938E-03
 0.88380005E+02  0.61633E-03
 0.88430008E+02  0.53115E-03
 0.88480003E+02  0.37204E-03
 0.88530006E+02  0.17432E-03
 0.88580002E+02 -0.71490E-05
 0.88630005E+02 -0.14738E-03
 0.88680008E+02 -0.28719E-03
 0.88730003E+02 -0.38145E-03
 0.88780006E+02 -0.38840E-03
 0.88830002E+02 -0.32513E-03
 0.88880005E+02 -0.15495E-03
 0.88930008E+02  0.64391E-04
 0.88980003E+02  0.21765E-03
 0.89030006E+02  0.26174E-03
 0.89080002E+02  0.18517E-03
 0.89130005E+02  0.59293E-04
 0.89180008E+02 -0.63431E-04
 0.89230003E+02 -0.23185E-03
 0.89280006E+02 -0.43696E-03
 0.89330002E+02 -0.61407E-03
 0.89380005E+02 -0.72885E-03
 0.89430008E+02 -0.78866E-03
 0.89480003E+02 -0.87673E-03
 0.89530006E+02 -0.10003E-02
 0.89580002E+02 -0.10851E-02
 0.89630005E+02 -0.10867E-02
 0.89680008E+02 -0.99673E-03
 0.89730003E+02 -0.86336E-03
 0.89780006E+02 -0.64351E-03
 0.89830002E+02 -0.30568E-03
 0.89880005E+02  0.56573E-04
 0.89930008E+02  0.40102E-03
 0.89980003E+02  0.70336E-03
 0.90030006E+02  0.87698E-03
 0.90080002E+02  0.90198E-03
 0.90130005E+02  0.86387E-03
 0.90180008E+02  0.84194E-03
 0.90230003E+02  0.88166E-03
 0.90280006E+02  0.95788E-03
 0.90330002E+02  0.99011E-03
 0.90380005E+02  0.91433E-03
 0.90430008E+02  0.75338E-03
 0.90480003E+02  0.60153E-03
 0.90530006E+02  0.47968E-03
 0.90580002E+02  0.33321E-03
 0.90630005E+02  0.16843E-03
 0.90680008E+02  0.44696E-04
 0.90730003E+02 -0.37294E-04
 0.90780006E+02 -0.69780E-04
 0.90830002E+02 -0.22934E-04
 0.90880005E+02  0.47939E-04
 0.90930008E+02  0.17539E-04
 0.90980003E+02 -0.17069E-03
 0.91030006E+02 -0.37291E-03
 0.91080002E+02 -0.50626E-03
 0.91130005E+02 -0.65278E-03
 0.91180008E+02 -0.79567E-03
 0.91230003E+02 -0.86998E-03
 0.91280006E+02 -0.80878E-03
 0.91330002E+02 -0.63380E-03
 0.91380005E+02 -0.45157E-03
 0.91430008E+02 -0.29252E-03
 0.91480003E+02 -0.18946E-03
 0.91530006E+02 -0.11230E-03
 0.91580002E+02 -0.28860E-04
 0.91630005E+02  0.42856E-04
 0.91680008E+02  0.17880E-03
 0.91730003E+02  0.37434E-03
 0.91780006E+02  0.51961E-03
 0.91830002E+02  0.55687E-03
 0.91880005E+02  0.49370E-03
 0.91930008E+02  0.38831E-03
 0.91980003E+02  0.25782E-03
 0.92030006E+02  0.73022E-04
 0.92080002E+02 -0.16982E-03
 0.92130005E+02 -0.41170E-03
 0.92180008E+02 -0.51387E-03
 0.92230003E+02 -0.45336E-03
 0.92280006E+02 -0.35967E-03
 0.92330002E+02 -0.22568E-03
 0.92380005E+02 -0.58766E-04
 0.92430008E+02  0.87718E-04
 0.92480003E+02  0.26704E-03
 0.92530006E+02  0.46270E-03
 0.92580002E+02  0.64854E-03
 0.92630005E+02  0.74183E-03
 0.92680008E+02  0.65868E-03
 0.92730003E+02  0.47727E-03
 0.92780006E+02  0.28343E-03
 0.92830002E+02  0.97059E-04
 0.92880005E+02 -0.10223E-03
 0.92930008E+02 -0.29976E-03
 0.92980003E+02 -0.44932E-03
 0.93030006E+02 -0.49491E-03
 0.93080002E+02 -0.38958E-03
 0.93130005E+02 -0.19410E-03
 0.93180008E+02 -0.96455E-05
 0.93230003E+02  0.95739E-04
 0.93280006E+02  0.11088E-03
 0.93330002E+02  0.77815E-04
 0.93380005E+02  0.15603E-04
 0.93430008E+02 -0.22887E-04
 0.93480003E+02 -0.22821E-04
 0.93530006E+02 -0.15297E-04
 0.93580002E+02  0.31947E-04
 0.93630005E+02  0.86099E-04
 0.93680008E+02  0.10399E-03
 0.93730003E+02  0.89254E-04
 0.93780006E+02  0.38014E-04
 0.93830002E+02 -0.37960E-05
 0.93880005E+02 -0.44471E-04
 0.93930008E+02 -0.11494E-03
 0.93980003E+02 -0.17570E-03
 0.94030006E+02 -0.22244E-03
 0.94080002E+02 -0.26573E-03
 0.94130005E+02 -0.30132E-03
 0.94180008E+02 -0.31796E-03
 0.94230003E+02 -0.27200E-03
 0.94280006E+02 -0.14382E-03
 0.94330002E+02  0.97954E-05
 0.94380005E+02  0.13549E-03
 0.94430008E+02  0.23604E-03
 0.94480003E+02  0.29972E-03
 0.94530006E+02  0.28402E-03
 0.94580002E+02  0.19093E-03
 0.94630005E+02  0.59697E-04
 0.94680008E+02 -0.91350E-04
 0.94730003E+02 -0.22195E-03
 0.94780006E+02 -0.31148E-03
 0.94830002E+02 -0.35362E-03
 0.94880005E+02 -0.34757E-03
 0.94930008E+02 -0.30748E-03
 0.94980003E+02 -0.17383E-03
 0.95030006E+02  0.32275E-04
 0.95080002E+02  0.24719E-03
 0.95130005E+02  0.44478E-03
 0.95180008E+02  0.52679E-03
 0.95230003E+02  0.52166E-03
 0.95280006E+02  0.51227E-03
 0.95330002E+02  0.44538E-03
 0.95380005E+02  0.29517E-03
 0.95430008E+02  0.87746E-04
 0.95480003E+02 -0.15163E-03
 0.95530006E+02 -0.37571E-03
 0.95580002E+02 -0.52491E-03
 0.95630005E+02 -0.63866E-03
 0.95680008E+02 -0.76285E-03
 0.95730003E+02 -0.77687E-03
 0.95780006E+02 -0.58275E-03
 0.95830002E+02 -0.18434E-03
 0.95880005E+02  0.32950E-03
 0.95930008E+02  0.78759E-03
 0.95980003E+02  0.10758E-02
 0.96030006E+02  0.11754E-02
 0.96080002E+02  0.11479E-02
 0.96130005E+02  0.10544E-02
 0.96180008E+02  0.85994E-03
 0.96230003E+02  0.56482E-03
 0.96280006E+02  0.20747E-03
 0.96330002E+02 -0.15573E-03
 0.96380005E+02 -0.43020E-03
 0.96430008E+02 -0.63311E-03
 0.96480003E+02 -0.77353E-03
 0.96530006E+02 -0.83147E-03
 0.96580002E+02 -0.85765E-03
 0.96630005E+02 -0.86726E-03
 0.96680008E+02 -0.81379E-03
 0.96730003E+02 -0.66766E-03
 0.96780006E+02 -0.44484E-03
 0.96830002E+02 -0.17588E-03
 0.96880005E+02  0.10792E-03
 0.96930008E+02  0.37030E-03
 0.96980003E+02  0.55036E-03
 0.97030006E+02  0.60098E-03
 0.97080002E+02  0.51467E-03
 0.97130005E+02  0.33772E-03
 0.97180008E+02  0.13441E-03
 0.97230003E+02 -0.35760E-04
 0.97280006E+02 -0.13206E-03
 0.97330002E+02 -0.17812E-03
 0.97380005E+02 -0.20309E-03
 0.97430008E+02 -0.20117E-03
 0.97480003E+02 -0.18003E-03
 0.97530006E+02 -0.20033E-03
 0.97580002E+02 -0.27349E-03
 0.97630005E+02 -0.34910E-03
 0.97680008E+02 -0.41409E-03
 0.97730003E+02 -0.48513E-03
 0.97780006E+02 -0.54862E-03
 0.97830002E+02 -0.53324E-03
 0.97880005E+02 -0.39777E-03
 0.97930008E+02 -0.17968E-03
 0.97980003E+02  0.58043E-04
 0.98030006E+02  0.28176E-03
 0.98080002E+02  0.48321E-03
 0.98130005E+02  0.62613E-03
 0.98180008E+02  0.67302E-03
 0.98230003E+02  0.66716E-03
 0.98280006E+02  0.64604E-03
 0.98330002E+02  0.57097E-03
 0.98380005E+02  0.45789E-03
 0.98430008E+02  0.35711E-03
 0.98480003E+02  0.30866E-03
 0.98530006E+02  0.31394E-03
 0.98580002E+02  0.29597E-03
 0.98630005E+02  0.23783E-03
 0.98680008E+02  0.15451E-03
 0.98730003E+02  0.26383E-04
 0.98780006E+02 -0.11425E-03
 0.98830002E+02 -0.22973E-03
 0.98880005E+02 -0.34052E-03
 0.98930008E+02 -0.42373E-03
 0.98980003E+02 -0.42659E-03
 0.99030006E+02 -0.35998E-03
 0.99080002E+02 -0.26625E-03
 0.99130005E+02 -0.20960E-03
 0.99180008E+02 -0.21463E-03
 0.99230003E+02 -0.23959E-03
 0.99280006E+02 -0.25006E-03
 0.99330002E+02 -0.23704E-03
 0.99380005E+02 -0.21408E-03
 0.99430008E+02 -0.19459E-03
 0.99480003E+02 -0.17202E-03
 0.99530006E+02 -0.13483E-03
 0.99580002E+02 -0.44694E-04
 0.99630005E+02  0.11569E-03
 0.99680008E+02  0.25558E-03
 0.99730003E+02  0.29334E-03
 0.99780006E+02  0.22619E-03
 0.99830002E+02  0.11029E-03
 0.99880005E+02  0.62727E-04
 0.99930008E+02  0.10590E-03
 0.99980003E+02  0.17789E-03
 0.10003001E+03  0.27029E-03
 0.10008000E+03  0.37849E-03
 0.10013000E+03  0.47821E-03
 0.10018001E+03  0.55657E-03
 0.10023000E+03  0.59248E-03
 0.10028001E+03  0.52328E-03
 0.10033000E+03  0.33377E-03
 0.10038000E+03  0.11314E-03
 0.10043001E+03 -0.61149E-04
 0.10048000E+03 -0.18058E-03
 0.10053001E+03 -0.27752E-03
 0.10058000E+03 -0.38662E-03
 0.10063000E+03 -0.46187E-03
 0.10068001E+03 -0.41091E-03
 0.10073000E+03 -0.26302E-03
 0.10078001E+03 -0.91300E-04
 0.10083000E+03  0.59954E-04
 0.10088000E+03  0.13233E-03
 0.10093001E+03  0.11224E-03
 0.10098000E+03  0.31013E-04
 0.10103001E+03 -0.34569E-04
 0.10108000E+03 -0.48632E-04
 0.10113000E+03 -0.56271E-04
 0.10118001E+03 -0.10149E-03
 0.10123000E+03 -0.21566E-03
 0.10128001E+03 -0.37521E-03
 0.10133000E+03 -0.53044E-03
 0.10138000E+03 -0.65773E-03
 0.10143001E+03 -0.73591E-03
 0.10148000E+03 -0.75741E-03
 0.10153001E+03 -0.71383E-03
 0.10158000E+03 -0.56978E-03
 0.10163000E+03 -0.30844E-03
 0.10168001E+03  0.65163E-05
 0.10173000E+03  0.28457E-03
 0.10178001E+03  0.45846E-03
 0.10183000E+03  0.50318E-03
 0.10188000E+03  0.46989E-03
 0.10193001E+03  0.39442E-03
 0.10198000E+03  0.31941E-03
 0.10203001E+03  0.29623E-03
 0.10208000E+03  0.27614E-03
 0.10213000E+03  0.20317E-03
 0.10218001E+03  0.95342E-04
 0.10223000E+03 -0.12969E-04
 0.10228001E+03 -0.11570E-03
 0.10233000E+03 -0.21293E-03
 0.10238000E+03 -0.30404E-03
 0.10243001E+03 -0.34825E-03
 0.10248000E+03 -0.29632E-03
 0.10253001E+03 -0.16544E-03
 0.10258000E+03  0.79710E-05
 0.10263000E+03  0.20322E-03
 0.10268001E+03  0.38618E-03
 0.10273000E+03  0.49949E-03
 0.10278001E+03  0.54430E-03
 0.10283000E+03  0.54059E-03
 0.10288000E+03  0.49376E-03
 0.10293001E+03  0.43000E-03
 0.10298000E+03  0.39613E-03
 0.10303001E+03  0.43485E-03
 0.10308000E+03  0.51482E-03
 0.10313000E+03  0.59032E-03
 0.10318001E+03  0.59587E-03
 0.10323000E+03  0.48602E-03
 0.10328001E+03  0.28328E-03
 0.10333000E+03  0.38696E-04
 0.10338000E+03 -0.17391E-03
 0.10343001E+03 -0.35016E-03
 0.10348000E+03 -0.47500E-03
 0.10353001E+03 -0.51971E-03
 0.10358000E+03 -0.49929E-03
 0.10363000E+03 -0.41915E-03
 0.10368001E+03 -0.34433E-03
 0.10373000E+03 -0.31324E-03
 0.10378001E+03 -0.29734E-03
 0.10383000E+03 -0.29276E-03
 0.10388000E+03 -0.30507E-03
 0.10393001E+03 -0.36993E-03
 0.10398000E+03 -0.46521E-03
 0.10403001E+03 -0.52883E-03
 0.10408000E+03 -0.58512E-03
 0.10413000E+03 -0.60601E-03
 0.10418001E+03 -0.53786E-03
 0.10423000E+03 -0.39212E-03
 0.10428001E+03 -0.18264E-03
 0.10433000E+03  0.41749E-04
 0.10438000E+03  0.23298E-03
 0.10443001E+03  0.38377E-03
 0.10448000E+03  0.52025E-03
 0.10453001E+03  0.65597E-03
 0.10458000E+03  0.76323E-03
 0.10463000E+03  0.81314E-03
 0.10468001E+03  0.79354E-03
 0.10473000E+03  0.70814E-03
 0.10478001E+03  0.55290E-03
 0.10483000E+03  0.35347E-03
 0.10488000E+03  0.14388E-03
 0.10493001E+03 -0.61515E-04
 0.10498000E+03 -0.24532E-03
 0.10503001E+03 -0.39033E-03
 0.10508000E+03 -0.46038E-03
 0.10513000E+03 -0.43136E-03
 0.10518001E+03 -0.34554E-03
 0.10523000E+03 -0.24955E-03
 0.10528001E+03 -0.14832E-03
 0.10533000E+03 -0.39770E-04
 0.10538000E+03  0.70713E-04
 0.10543001E+03  0.13251E-03
 0.10548000E+03  0.14044E-03
 0.10553001E+03  0.14093E-03
 0.10558000E+03  0.11424E-03
 0.10563000E+03  0.22125E-04
 0.10568001E+03 -0.12488E-03
 0.10573000E+03 -0.28627E-03
 0.10578001E+03 -0.43380E-03
 0.10583000E+03 -0.52555E-03
 0.10588000E+03 -0.53558E-03
 0.10593001E+03 -0.48580E-03
 0.10598000E+03 -0.40450E-03
 0.10603001E+03 -0.32342E-03
 0.10608000E+03 -0.25104E-03
 0.10613000E+03 -0.17325E-03
 0.10618001E+03 -0.81089E-04
 0.10623000E+03 -0.93388E-06
 0.10628001E+03  0.28045E-04
 0.10633000E+03  0.32059E-04
 0.10638000E+03  0.54371E-04
 0.10643001E+03  0.10300E-03
 0.10648000E+03  0.16865E-03
 0.10653001E+03  0.22523E-03
 0.10658000E+03  0.25628E-03
 0.10663000E+03  0.28050E-03
 0.10668001E+03  0.31652E-03
 0.10673000E+03  0.33923E-03
 0.10678001E+03  0.31415E-03
 0.10683000E+03  0.23847E-03
 0.10688000E+03  0.14018E-03
 0.10693001E+03  0.71410E-04
 0.10698000E+03  0.44819E-04
 0.10703001E+03  0.43040E-04
 0.10708000E+03  0.73262E-04
 0.10713000E+03  0.10015E-03
 0.10718001E+03  0.10572E-03
 0.10723000E+03  0.13574E-03
 0.10728001E+03  0.20371E-03
 0.10733000E+03  0.28866E-03
 0.10738000E+03  0.36489E-03
 0.10743001E+03  0.40332E-03
 0.10748000E+03  0.38031E-03
 0.10753001E+03  0.31245E-03
 0.10758000E+03  0.20867E-03
 0.10763000E+03  0.63141E-04
 0.10768001E+03 -0.93975E-04
 0.10773000E+03 -0.23774E-03
 0.10778001E+03 -0.35762E-03
 0.10783000E+03 -0.41726E-03
 0.10788000E+03 -0.38921E-03
 0.10793001E+03 -0.33254E-03
 0.10798000E+03 -0.31517E-03
 0.10803001E+03 -0.33365E-03
 0.10808000E+03 -0.35270E-03
 0.10813000E+03 -0.34710E-03
 0.10818001E+03 -0.29313E-03
 0.10823000E+03 -0.18665E-03
 0.10828001E+03 -0.60509E-04
 0.10833000E+03  0.72269E-04
 0.10838000E+03  0.19042E-03
 0.10843001E+03  0.26813E-03
 0.10848000E+03  0.32090E-03
 0.10853001E+03  0.36619E-03
 0.10858000E+03  0.39075E-03
 0.10863000E+03  0.39677E-03
 0.10868001E+03  0.41561E-03
 0.10873000E+03  0.45822E-03
 0.10878001E+03  0.50631E-03
 0.10883000E+03  0.53627E-03
 0.10888000E+03  0.52215E-03
 0.10893001E+03  0.40523E-03
 0.10898000E+03  0.17938E-03
 0.10903001E+03 -0.99182E-04
 0.10908000E+03 -0.39970E-03
 0.10913000E+03 -0.69032E-03
 0.10918001E+03 -0.92559E-03
 0.10923000E+03 -0.10715E-02
 0.10928001E+03 -0.11216E-02
 0.10933000E+03 -0.10862E-02
 0.10938000E+03 -0.97269E-03
 0.10943001E+03 -0.79298E-03
 0.10948000E+03 -0.57991E-03
 0.10953001E+03 -0.35732E-03
 0.10958000E+03 -0.13629E-03
 0.10963000E+03  0.68440E-04
 0.10968001E+03  0.23138E-03
 0.10973000E+03  0.33266E-03
 0.10978001E+03  0.38271E-03
 0.10983000E+03  0.37637E-03
 0.10988000E+03  0.32665E-03
 0.10993001E+03  0.26933E-03
 0.10998000E+03  0.20125E-03
 0.11003001E+03  0.13450E-03
 0.11008000E+03  0.10434E-03
 0.11013000E+03  0.11848E-03
 0.11018001E+03  0.17729E-03
 0.11023000E+03  0.26193E-03
 0.11028001E+03  0.36063E-03
 0.11033000E+03  0.45959E-03
 0.11038000E+03  0.51363E-03
 0.11043001E+03  0.51666E-03
 0.11048000E+03  0.49428E-03
 0.11053001E+03  0.48245E-03
 0.11058000E+03  0.46745E-03
 0.11063000E+03  0.42506E-03
 0.11068001E+03  0.38109E-03
 0.11073000E+03  0.34265E-03
 0.11078001E+03  0.28960E-03
 0.11083000E+03  0.19808E-03
 0.11088000E+03  0.75579E-04
 0.11093001E+03 -0.81463E-04
 0.11098000E+03 -0.26958E-03
 0.11103001E+03 -0.45834E-03
 0.11108000E+03 -0.62094E-03
 0.11113000E+03 -0.70241E-03
 0.11118001E+03 -0.66879E-03
 0.11123000E+03 -0.55510E-03
 0.11128001E+03 -0.41373E-03
 0.11133000E+03 -0.26136E-03
 0.11138000E+03 -0.11474E-03
 0.11143001E+03  0.96756E-06
 0.11148000E+03  0.71884E-04
 0.11153001E+03  0.86968E-04
 0.11158000E+03  0.58579E-04
 0.11163000E+03  0.17676E-04
 0.11168001E+03 -0.28232E-04
 0.11173000E+03 -0.88050E-04
 0.11178001E+03 -0.14081E-03
 0.11183000E+03 -0.17910E-03
 0.11188000E+03 -0.22628E-03
 0.11193001E+03 -0.27897E-03
 0.11198000E+03 -0.32197E-03
 0.11203001E+03 -0.32337E-03
 0.11208000E+03 -0.25781E-03
 0.11213000E+03 -0.14941E-03
 0.11218001E+03 -0.10733E-04
 0.11223000E+03  0.14622E-03
 0.11228001E+03  0.27593E-03
 0.11233000E+03  0.34239E-03
 0.11238000E+03  0.34707E-03
 0.11243001E+03  0.34096E-03
 0.11248000E+03  0.35120E-03
 0.11253001E+03  0.36049E-03
 0.11258000E+03  0.37618E-03
 0.11263000E+03  0.40140E-03
 0.11268001E+03  0.41299E-03
 0.11273000E+03  0.38154E-03
 0.11278001E+03  0.32191E-03
 0.11283000E+03  0.26031E-03
 0.11288000E+03  0.16721E-03
 0.11293001E+03  0.41496E-04
 0.11298000E+03 -0.82284E-04
 0.11303001E+03 -0.19337E-03
 0.11308000E+03 -0.27466E-03
 0.11313000E+03 -0.29813E-03
 0.11318001E+03 -0.26546E-03
 0.11323000E+03 -0.19542E-03
 0.11328001E+03 -0.11261E-03
 0.11333000E+03 -0.50376E-04
 0.11338000E+03 -0.17090E-04
 0.11343001E+03 -0.12705E-04
 0.11348000E+03 -0.32423E-04
 0.11353001E+03 -0.65025E-04
 0.11358000E+03 -0.11401E-03
 0.11363000E+03 -0.17778E-03
 0.11368001E+03 -0.24458E-03
 0.11373000E+03 -0.29947E-03
 0.11378001E+03 -0.34780E-03
 0.11383000E+03 -0.40225E-03
 0.11388000E+03 -0.45426E-03
 0.11393001E+03 -0.48763E-03
 0.11398000E+03 -0.48073E-03
 0.11403001E+03 -0.40796E-03
 0.11408000E+03 -0.25954E-03
 0.11413000E+03 -0.69138E-04
 0.11418001E+03  0.11745E-03
 0.11423000E+03  0.28751E-03
 0.11428001E+03  0.41839E-03
 0.11433000E+03  0.48615E-03
 0.11438000E+03  0.48331E-03
 0.11443001E+03  0.39879E-03
 0.11448000E+03  0.27143E-03
 0.11453001E+03  0.14826E-03
 0.11458000E+03  0.57818E-04
 0.11463000E+03  0.23766E-04
 0.11468001E+03  0.33698E-04
 0.11473000E+03  0.81374E-04
 0.11478001E+03  0.14895E-03
 0.11483000E+03  0.21050E-03
 0.11488000E+03  0.25435E-03
 0.11493001E+03  0.26320E-03
 0.11498000E+03  0.23907E-03
 0.11503001E+03  0.19092E-03
 0.11508000E+03  0.12468E-03
 0.11513000E+03  0.53493E-04
 0.11518001E+03 -0.15765E-05
 0.11523000E+03 -0.32911E-04
 0.11528001E+03 -0.54499E-04
 0.11533000E+03 -0.76379E-04
 0.11538000E+03 -0.10818E-03
 0.11543001E+03 -0.15281E-03
 0.11548000E+03 -0.18837E-03
 0.11553001E+03 -0.19492E-03
 0.11558000E+03 -0.18013E-03
 0.11563000E+03 -0.15166E-03
 0.11568001E+03 -0.95806E-04
 0.11573000E+03  0.47317E-05
 0.11578001E+03  0.13429E-03
 0.11583000E+03  0.25381E-03
 0.11588000E+03  0.33360E-03
 0.11593001E+03  0.35803E-03
 0.11598000E+03  0.32525E-03
 0.11603001E+03  0.23933E-03
 0.11608000E+03  0.12691E-03
 0.11613000E+03  0.30977E-04
 0.11618001E+03 -0.40335E-04
 0.11623000E+03 -0.10405E-03
 0.11628001E+03 -0.15827E-03
 0.11633000E+03 -0.19870E-03
 0.11638000E+03 -0.22291E-03
 0.11643001E+03 -0.24040E-03
 0.11648000E+03 -0.27495E-03
 0.11653001E+03 -0.31300E-03
 0.11658000E+03 -0.32726E-03
 0.11663000E+03 -0.31193E-03
 0.11668001E+03 -0.26405E-03
 0.11673000E+03 -0.18129E-03
 0.11678001E+03 -0.82898E-04
 0.11683000E+03  0.90029E-05
 0.11688000E+03  0.80863E-04
 0.11693001E+03  0.10555E-03
 0.11698000E+03  0.93020E-04
 0.11703001E+03  0.79422E-04
 0.11708000E+03  0.69870E-04
 0.11713000E+03  0.68454E-04
 0.11718001E+03  0.67481E-04
 0.11723000E+03  0.54618E-04
 0.11728001E+03  0.45368E-04
 0.11733000E+03  0.44290E-04
 0.11738000E+03  0.37590E-04
 0.11743001E+03  0.84204E-05
 0.11748000E+03 -0.49851E-04
 0.11753001E+03 -0.12813E-03
 0.11758000E+03 -0.21185E-03
 0.11763000E+03 -0.26066E-03
 0.11768001E+03 -0.24146E-03
 0.11773000E+03 -0.17601E-03
 0.11778001E+03 -0.99484E-04
 0.11783000E+03 -0.28880E-04
 0.11788000E+03  0.31249E-04
 0.11793001E+03  0.92893E-04
 0.11798000E+03  0.16756E-03
 0.11803001E+03  0.23759E-03
 0.11808000E+03  0.27353E-03
 0.11813000E+03  0.27473E-03
 0.11818001E+03  0.24040E-03
 0.11823000E+03  0.17176E-03
 0.11828001E+03  0.10655E-03
 0.11833000E+03  0.71010E-04
 0.11838000E+03  0.70298E-04
 0.11843001E+03  0.90844E-04
 0.11848000E+03  0.10760E-03
 0.11853001E+03  0.97558E-04
 0.11858000E+03  0.48848E-04
 0.11863000E+03 -0.12017E-04
 0.11868001E+03 -0.62189E-04
 0.11873000E+03 -0.92109E-04
 0.11878001E+03 -0.96871E-04
 0.11883000E+03 -0.91262E-04
 0.11888000E+03 -0.89677E-04
 0.11893001E+03 -0.79905E-04
 0.11898000E+03 -0.36203E-04
 0.11903001E+03  0.30303E-04
 0.11908000E+03  0.84413E-04
 0.11913000E+03  0.97185E-04
 0.11918001E+03  0.66792E-04
 0.11923000E+03  0.36327E-04
 0.11928001E+03  0.14815E-04
 0.11933000E+03 -0.27183E-04
 0.11938000E+03 -0.89277E-04
 0.11943001E+03 -0.16716E-03
 0.11948000E+03 -0.25673E-03
 0.11953001E+03 -0.34518E-03
 0.11958000E+03 -0.41121E-03
 0.11963000E+03 -0.44563E-03
 0.11968001E+03 -0.44918E-03
 0.11973000E+03 -0.39420E-03
 0.11978001E+03 -0.28516E-03
 0.11983000E+03 -0.16737E-03
 0.11988000E+03 -0.61158E-04
 0.11993001E+03  0.38916E-04
 0.11998000E+03  0.15268E-03
 0.12003001E+03  0.26779E-03
 0.12008000E+03  0.36055E-03
 0.12013000E+03  0.45283E-03
 0.12018001E+03  0.55087E-03
 0.12023000E+03  0.64775E-03
 0.12028001E+03  0.73803E-03
 0.12033000E+03  0.80439E-03
 0.12038000E+03  0.83423E-03
 0.12043001E+03  0.80775E-03
 0.12048000E+03  0.70983E-03
 0.12053001E+03  0.55178E-03
 0.12058000E+03  0.36471E-03
 0.12063000E+03  0.18149E-03
 0.12068001E+03  0.18624E-04
 0.12073000E+03 -0.14902E-03
 0.12078001E+03 -0.33326E-03
 0.12083000E+03 -0.50393E-03
 0.12088000E+03 -0.64195E-03
 0.12093001E+03 -0.74659E-03
 0.12098000E+03 -0.81827E-03
 0.12103001E+03 -0.85091E-03
 0.12108000E+03 -0.84655E-03
 0.12113000E+03 -0.80732E-03
 0.12118001E+03 -0.73647E-03
 0.12123000E+03 -0.64633E-03
 0.12128001E+03 -0.55606E-03
 0.12133000E+03 -0.48770E-03
 0.12138000E+03 -0.43365E-03
 0.12143001E+03 -0.37306E-03
 0.12148000E+03 -0.29416E-03
 0.12153001E+03 -0.18519E-03
 0.12158000E+03 -0.54276E-04
 0.12163000E+03  0.86128E-04
 0.12168001E+03  0.23046E-03
 0.12173000E+03  0.36296E-03
 0.12178001E+03  0.48461E-03
 0.12183000E+03  0.61252E-03
 0.12188000E+03  0.74172E-03
 0.12193001E+03  0.84286E-03
 0.12198000E+03  0.90417E-03
 0.12203001E+03  0.92847E-03
 0.12208000E+03  0.90189E-03
 0.12213000E+03  0.81780E-03
 0.12218001E+03  0.68627E-03
 0.12223000E+03  0.52602E-03
 0.12228001E+03  0.36674E-03
 0.12233000E+03  0.22079E-03
 0.12238000E+03  0.83642E-04
 0.12243001E+03 -0.35677E-04
 0.12248000E+03 -0.13517E-03
 0.12253001E+03 -0.22748E-03
 0.12258000E+03 -0.32203E-03
 0.12263000E+03 -0.41609E-03
 0.12268001E+03 -0.48728E-03
 0.12273000E+03 -0.53305E-03
 0.12278001E+03 -0.58222E-03
 0.12283000E+03 -0.65157E-03
 0.12288000E+03 -0.72422E-03
 0.12293001E+03 -0.76444E-03
 0.12298000E+03 -0.75176E-03
 0.12303001E+03 -0.69641E-03
 0.12308000E+03 -0.61775E-03
 0.12313000E+03 -0.51278E-03
 0.12318001E+03 -0.38031E-03
 0.12323000E+03 -0.22127E-03
 0.12328001E+03 -0.27648E-04
 0.12333000E+03  0.17598E-03
 0.12338000E+03  0.35142E-03
 0.12343001E+03  0.48062E-03
 0.12348000E+03  0.56081E-03
 0.12353001E+03  0.59316E-03
 0.12358000E+03  0.57874E-03
 0.12363000E+03  0.53160E-03
 0.12368001E+03  0.46343E-03
 0.12373000E+03  0.37480E-03
 0.12378001E+03  0.27929E-03
 0.12383000E+03  0.19141E-03
 0.12388000E+03  0.11303E-03
 0.12393001E+03  0.54783E-04
 0.12398000E+03  0.27201E-04
 0.12403001E+03  0.35240E-04
 0.12408000E+03  0.79047E-04
 0.12413000E+03  0.13030E-03
 0.12418001E+03  0.15878E-03
 0.12423000E+03  0.16526E-03
 0.12428001E+03  0.15610E-03
 0.12433000E+03  0.12618E-03
 0.12438000E+03  0.77446E-04
 0.12443001E+03  0.20502E-04
 0.12448000E+03 -0.32340E-04
 0.12453001E+03 -0.72387E-04
 0.12458000E+03 -0.10736E-03
 0.12463000E+03 -0.13837E-03
 0.12468001E+03 -0.16772E-03
 0.12473000E+03 -0.20178E-03
 0.12478001E+03 -0.22018E-03
 0.12483000E+03 -0.21797E-03
 0.12488000E+03 -0.21183E-03
 0.12493001E+03 -0.19996E-03
 0.12498000E+03 -0.17313E-03
 0.12503001E+03 -0.13216E-03
 0.12508000E+03 -0.83559E-04
 0.12513000E+03 -0.37198E-04
 0.12518001E+03 -0.18241E-05
 0.12523000E+03  0.15489E-04
 0.12528001E+03  0.79975E-05
 0.12533000E+03 -0.20184E-04
 0.12538000E+03 -0.64045E-04
 0.12543001E+03 -0.12823E-03
 0.12548000E+03 -0.20968E-03
 0.12553001E+03 -0.28221E-03
 0.12558000E+03 -0.32484E-03
 0.12563000E+03 -0.33119E-03
 0.12568001E+03 -0.29784E-03
 0.12573000E+03 -0.24307E-03
 0.12578001E+03 -0.18462E-03
 0.12583000E+03 -0.12128E-03
 0.12588000E+03 -0.52284E-04
 0.12593001E+03  0.18010E-04
 0.12598000E+03  0.77529E-04
 0.12603001E+03  0.11659E-03
 0.12608000E+03  0.14028E-03
 0.12613000E+03  0.15794E-03
 0.12618001E+03  0.17527E-03
 0.12623000E+03  0.19531E-03
 0.12628001E+03  0.21478E-03
 0.12633000E+03  0.23652E-03
 0.12638000E+03  0.26844E-03
 0.12643001E+03  0.30280E-03
 0.12648000E+03  0.33036E-03
 0.12653001E+03  0.34816E-03
 0.12658000E+03  0.35069E-03
 0.12663000E+03  0.33516E-03
 0.12668001E+03  0.30436E-03
 0.12673000E+03  0.26824E-03
 0.12678001E+03  0.23236E-03
 0.12683000E+03  0.19102E-03
 0.12688000E+03  0.13763E-03
 0.12693001E+03  0.74419E-04
 0.12698000E+03  0.23963E-04
 0.12703001E+03 -0.57584E-05
 0.12708000E+03 -0.33014E-04
 0.12713000E+03 -0.65672E-04
 0.12718001E+03 -0.10856E-03
 0.12723000E+03 -0.16350E-03
 0.12728001E+03 -0.22100E-03
 0.12733000E+03 -0.27414E-03
 0.12738000E+03 -0.31970E-03
 0.12743001E+03 -0.34880E-03
 0.12748000E+03 -0.34839E-03
 0.12753001E+03 -0.31170E-03
 0.12758000E+03 -0.25223E-03
 0.12763000E+03 -0.18770E-03
 0.12768001E+03 -0.12207E-03
 0.12773000E+03 -0.53265E-04
 0.12778001E+03  0.24600E-04
 0.12783000E+03  0.10931E-03
 0.12788000E+03  0.18299E-03
 0.12793001E+03  0.22092E-03
 0.12798000E+03  0.20967E-03
 0.12803000E+03  0.15929E-03
 0.12808000E+03  0.10456E-03
 0.12813000E+03  0.60789E-04
 0.12818001E+03  0.14724E-04
 0.12823001E+03 -0.30199E-04
 0.12828000E+03 -0.67353E-04
 0.12833000E+03 -0.85236E-04
 0.12838000E+03 -0.81619E-04
 0.12843001E+03 -0.80280E-04
 0.12848001E+03 -0.97021E-04
 0.12853000E+03 -0.13048E-03
 0.12858000E+03 -0.15707E-03
 0.12863000E+03 -0.14594E-03
 0.12868001E+03 -0.10298E-03
 0.12873001E+03 -0.51418E-04
 0.12878000E+03  0.20123E-05
 0.12883000E+03  0.39328E-04
 0.12888000E+03  0.57449E-04
 0.12893001E+03  0.73005E-04
 0.12898001E+03  0.81864E-04
 0.12903000E+03  0.73708E-04
 0.12908000E+03  0.41529E-04
 0.12913000E+03  0.11324E-05
 0.12918001E+03 -0.75565E-05
 0.12923001E+03  0.38395E-04
 0.12928000E+03  0.11873E-03
 0.12933000E+03  0.20323E-03
 0.12938000E+03  0.27756E-03
 0.12943001E+03  0.32451E-03
 0.12948001E+03  0.33226E-03
 0.12953000E+03  0.29475E-03
 0.12958000E+03  0.22311E-03
 0.12963000E+03  0.13479E-03
 0.12968001E+03  0.32731E-04
 0.12973001E+03 -0.60828E-04
 0.12978000E+03 -0.12669E-03
 0.12983000E+03 -0.16958E-03
 0.12988000E+03 -0.20257E-03
 0.12993001E+03 -0.24330E-03
 0.12998001E+03 -0.29528E-03
 0.13003000E+03 -0.35014E-03
 0.13008000E+03 -0.39763E-03
 0.13013000E+03 -0.42724E-03
 0.13018001E+03 -0.43048E-03
 0.13023001E+03 -0.40118E-03
 0.13028000E+03 -0.34254E-03
 0.13033000E+03 -0.25861E-03
 0.13038000E+03 -0.14821E-03
 0.13043001E+03 -0.32223E-04
 0.13048001E+03  0.66731E-04
 0.13053000E+03  0.14924E-03
 0.13058000E+03  0.20839E-03
 0.13063000E+03  0.24579E-03
 0.13068001E+03  0.26393E-03
 0.13073001E+03  0.26458E-03
 0.13078000E+03  0.26738E-03
 0.13083000E+03  0.26627E-03
 0.13088000E+03  0.25594E-03
 0.13093001E+03  0.24765E-03
 0.13098001E+03  0.24359E-03
 0.13103000E+03  0.24328E-03
 0.13108000E+03  0.23145E-03
 0.13113000E+03  0.19300E-03
 0.13118001E+03  0.12654E-03
 0.13123001E+03  0.45078E-04
 0.13128000E+03 -0.24914E-04
 0.13133000E+03 -0.65431E-04
 0.13138000E+03 -0.73080E-04
 0.13143001E+03 -0.60671E-04
 0.13148001E+03 -0.48009E-04
 0.13153000E+03 -0.42940E-04
 0.13158000E+03 -0.48188E-04
 0.13163000E+03 -0.69150E-04
 0.13168001E+03 -0.11214E-03
 0.13173001E+03 -0.17573E-03
 0.13178000E+03 -0.24643E-03
 0.13183000E+03 -0.30867E-03
 0.13188000E+03 -0.34525E-03
 0.13193001E+03 -0.34594E-03
 0.13198001E+03 -0.32027E-03
 0.13203000E+03 -0.28006E-03
 0.13208000E+03 -0.22523E-03
 0.13213000E+03 -0.15685E-03
 0.13218001E+03 -0.73035E-04
 0.13223001E+03  0.31719E-04
 0.13228000E+03  0.14197E-03
 0.13233000E+03  0.23444E-03
 0.13238000E+03  0.30384E-03
 0.13243001E+03  0.34835E-03
 0.13248001E+03  0.37100E-03
 0.13253000E+03  0.36973E-03
 0.13258000E+03  0.32677E-03
 0.13263000E+03  0.24796E-03
 0.13268001E+03  0.15333E-03
 0.13273001E+03  0.56609E-04
 0.13278000E+03 -0.28632E-04
 0.13283000E+03 -0.86350E-04
 0.13288000E+03 -0.10355E-03
 0.13293001E+03 -0.77855E-04
 0.13298001E+03 -0.13943E-04
 0.13303000E+03  0.64992E-04
 0.13308000E+03  0.13152E-03
 0.13313000E+03  0.17214E-03
 0.13318001E+03  0.18079E-03
 0.13323001E+03  0.16051E-03
 0.13328000E+03  0.13050E-03
 0.13333000E+03  0.10302E-03
 0.13338000E+03  0.79443E-04
 0.13343001E+03  0.63979E-04
 0.13348001E+03  0.47235E-04
 0.13353000E+03  0.29247E-04
 0.13358000E+03  0.15740E-04
 0.13363000E+03 -0.20246E-05
 0.13368001E+03 -0.22318E-04
 0.13373001E+03 -0.41594E-04
 0.13378000E+03 -0.62402E-04
 0.13383000E+03 -0.82168E-04
 0.13388000E+03 -0.96628E-04
 0.13393001E+03 -0.10875E-03
 0.13398001E+03 -0.13215E-03
 0.13403000E+03 -0.17124E-03
 0.13408000E+03 -0.21941E-03
 0.13413000E+03 -0.27910E-03
 0.13418001E+03 -0.34608E-03
 0.13423001E+03 -0.40620E-03
 0.13428000E+03 -0.44749E-03
 0.13433000E+03 -0.45149E-03
 0.13438000E+03 -0.40756E-03
 0.13443001E+03 -0.32990E-03
 0.13448001E+03 -0.23810E-03
 0.13453000E+03 -0.13595E-03
 0.13458000E+03 -0.32726E-04
 0.13463000E+03  0.59295E-04
 0.13468001E+03  0.14065E-03
 0.13473001E+03  0.20347E-03
 0.13478000E+03  0.24527E-03
 0.13483000E+03  0.27345E-03
 0.13488000E+03  0.28972E-03
 0.13493001E+03  0.29740E-03
 0.13498001E+03  0.30314E-03
 0.13503000E+03  0.30596E-03
 0.13508000E+03  0.30565E-03
 0.13513000E+03  0.31316E-03
 0.13518001E+03  0.32049E-03
 0.13523001E+03  0.31312E-03
 0.13528000E+03  0.28836E-03
 0.13533000E+03  0.24066E-03
 0.13538000E+03  0.17971E-03
 0.13543001E+03  0.12080E-03
 0.13548001E+03  0.66615E-04
 0.13553000E+03  0.18241E-04
 0.13558000E+03 -0.23920E-04
 0.13563000E+03 -0.64025E-04
 0.13568001E+03 -0.97982E-04
 0.13573001E+03 -0.11389E-03
 0.13578000E+03 -0.11796E-03
 0.13583000E+03 -0.12335E-03
 0.13588000E+03 -0.13317E-03
 0.13593001E+03 -0.14738E-03
 0.13598001E+03 -0.16556E-03
 0.13603000E+03 -0.19356E-03
 0.13608000E+03 -0.24365E-03
 0.13613000E+03 -0.31091E-03
 0.13618001E+03 -0.37458E-03
 0.13623001E+03 -0.42283E-03
 0.13628000E+03 -0.44865E-03
 0.13633000E+03 -0.44749E-03
 0.13638000E+03 -0.42217E-03
 0.13643001E+03 -0.37971E-03
 0.13648001E+03 -0.31563E-03
 0.13653000E+03 -0.21758E-03
 0.13658000E+03 -0.91931E-04
 0.13663000E+03  0.38320E-04
 0.13668001E+03  0.16012E-03
 0.13673001E+03  0.26412E-03
 0.13678000E+03  0.33569E-03
 0.13683000E+03  0.38083E-03
 0.13688000E+03  0.40992E-03
 0.13693001E+03  0.42032E-03
 0.13698001E+03  0.40680E-03
 0.13703000E+03  0.36316E-03
 0.13708000E+03  0.30034E-03
 0.13713000E+03  0.23812E-03
 0.13718001E+03  0.18163E-03
 0.13723001E+03  0.13767E-03
 0.13728000E+03  0.10912E-03
 0.13733000E+03  0.92320E-04
 0.13738000E+03  0.93051E-04
 0.13743001E+03  0.11901E-03
 0.13748001E+03  0.16500E-03
 0.13753000E+03  0.20749E-03
 0.13758000E+03  0.23424E-03
 0.13763000E+03  0.24335E-03
 0.13768001E+03  0.22701E-03
 0.13773001E+03  0.18282E-03
 0.13778000E+03  0.11395E-03
 0.13783000E+03  0.24909E-04
 0.13788000E+03 -0.74859E-04
 0.13793001E+03 -0.17048E-03
 0.13798001E+03 -0.25693E-03
 0.13803000E+03 -0.33494E-03
 0.13808000E+03 -0.40827E-03
 0.13813000E+03 -0.48377E-03
 0.13818001E+03 -0.54509E-03
 0.13823001E+03 -0.56974E-03
 0.13828000E+03 -0.55183E-03
 0.13833000E+03 -0.49242E-03
 0.13838000E+03 -0.40749E-03
 0.13843001E+03 -0.31832E-03
 0.13848001E+03 -0.23346E-03
 0.13853000E+03 -0.14507E-03
 0.13858000E+03 -0.44957E-04
 0.13863000E+03  0.62992E-04
 0.13868001E+03  0.16805E-03
 0.13873001E+03  0.25872E-03
 0.13878000E+03  0.33444E-03
 0.13883000E+03  0.40136E-03
 0.13888000E+03  0.46230E-03
 0.13893001E+03  0.50594E-03
 0.13898001E+03  0.51768E-03
 0.13903000E+03  0.49152E-03
 0.13908000E+03  0.42312E-03
 0.13913000E+03  0.31807E-03
 0.13918001E+03  0.19980E-03
 0.13923001E+03  0.97580E-04
 0.13928000E+03  0.26333E-04
 0.13933000E+03 -0.14451E-04
 0.13938000E+03 -0.35744E-04
 0.13943001E+03 -0.50759E-04
 0.13948001E+03 -0.68730E-04
 0.13953000E+03 -0.93729E-04
 0.13958000E+03 -0.12703E-03
 0.13963000E+03 -0.16581E-03
 0.13968001E+03 -0.19746E-03
 0.13973001E+03 -0.21206E-03
 0.13978000E+03 -0.20607E-03
 0.13983000E+03 -0.18580E-03
 0.13988000E+03 -0.16543E-03
 0.13993001E+03 -0.14838E-03
 0.13998001E+03 -0.12741E-03
 0.14003000E+03 -0.10525E-03
 0.14008000E+03 -0.91621E-04
 0.14013000E+03 -0.84810E-04
 0.14018001E+03 -0.74016E-04
 0.14023001E+03 -0.45565E-04
 0.14028000E+03  0.48237E-05
 0.14033000E+03  0.70389E-04
 0.14038000E+03  0.13534E-03
 0.14043001E+03  0.17717E-03
 0.14048001E+03  0.18486E-03
 0.14053000E+03  0.16393E-03
 0.14058000E+03  0.13019E-03
 0.14063000E+03  0.97934E-04
 0.14068001E+03  0.71010E-04
 0.14073001E+03  0.43539E-04
 0.14078000E+03  0.10832E-04
 0.14083000E+03 -0.14352E-04
 0.14088000E+03 -0.21064E-04
 0.14093001E+03 -0.19007E-04
 0.14098001E+03 -0.21462E-04
 0.14103000E+03 -0.37155E-04
 0.14108000E+03 -0.62699E-04
 0.14113000E+03 -0.77979E-04
 0.14118001E+03 -0.70941E-04
 0.14123001E+03 -0.49763E-04
 0.14128000E+03 -0.30015E-04
 0.14133000E+03 -0.21819E-04
 0.14138000E+03 -0.20343E-04
 0.14143001E+03 -0.22730E-04
 0.14148001E+03 -0.41481E-04
 0.14153000E+03 -0.78351E-04
 0.14158000E+03 -0.11730E-03
 0.14163000E+03 -0.14683E-03
 0.14168001E+03 -0.15698E-03
 0.14173001E+03 -0.14350E-03
 0.14178000E+03 -0.12208E-03
 0.14183000E+03 -0.10425E-03
 0.14188000E+03 -0.86847E-04
 0.14193001E+03 -0.71354E-04
 0.14198001E+03 -0.63861E-04
 0.14203000E+03 -0.67547E-04
 0.14208000E+03 -0.85491E-04
 0.14213000E+03 -0.11218E-03
 0.14218001E+03 -0.13451E-03
 0.14223001E+03 -0.13818E-03
 0.14228000E+03 -0.11210E-03
 0.14233000E+03 -0.56558E-04
 0.14238000E+03  0.22586E-04
 0.14243001E+03  0.11064E-03
 0.14248001E+03  0.19100E-03
 0.14253000E+03  0.25286E-03
 0.14258000E+03  0.28737E-03
 0.14263000E+03  0.29477E-03
 0.14268001E+03  0.28446E-03
 0.14273001E+03  0.26730E-03
 0.14278000E+03  0.24665E-03
 0.14283000E+03  0.21971E-03
 0.14288000E+03  0.19003E-03
 0.14293001E+03  0.16537E-03
 0.14298001E+03  0.15003E-03
 0.14303000E+03  0.14819E-03
 0.14308000E+03  0.15635E-03
 0.14313000E+03  0.15799E-03
 0.14318001E+03  0.14296E-03
 0.14323001E+03  0.11430E-03
 0.14328000E+03  0.70823E-04
 0.14333000E+03  0.18836E-04
 0.14338000E+03 -0.27443E-04
 0.14343001E+03 -0.61814E-04
 0.14348001E+03 -0.81449E-04
 0.14353000E+03 -0.10535E-03
 0.14358000E+03 -0.14775E-03
 0.14363000E+03 -0.19107E-03
 0.14368001E+03 -0.22321E-03
 0.14373001E+03 -0.23752E-03
 0.14378000E+03 -0.23334E-03
 0.14383000E+03 -0.22177E-03
 0.14388000E+03 -0.20370E-03
 0.14393001E+03 -0.17534E-03
 0.14398001E+03 -0.13570E-03
 0.14403000E+03 -0.92494E-04
 0.14408000E+03 -0.59568E-04
 0.14413000E+03 -0.42128E-04
 0.14418001E+03 -0.44392E-04
 0.14423001E+03 -0.63154E-04
 0.14428000E+03 -0.80214E-04
 0.14433000E+03 -0.85081E-04
 0.14438000E+03 -0.77583E-04
 0.14443001E+03 -0.52438E-04
 0.14448001E+03 -0.14415E-04
 0.14453000E+03  0.19835E-04
 0.14458000E+03  0.40721E-04
 0.14463000E+03  0.50816E-04
 0.14468001E+03  0.53962E-04
 0.14473001E+03  0.45095E-04
 0.14478000E+03  0.27117E-04
 0.14483000E+03  0.88979E-05
 0.14488000E+03  0.54668E-05
 0.14493001E+03  0.34879E-04
 0.14498001E+03  0.86855E-04
 0.14503000E+03  0.14250E-03
 0.14508000E+03  0.19620E-03
 0.14513000E+03  0.23883E-03
 0.14518001E+03  0.26527E-03
 0.14523001E+03  0.27362E-03
 0.14528000E+03  0.25894E-03
 0.14533000E+03  0.22294E-03
 0.14538000E+03  0.16331E-03
 0.14543001E+03  0.84564E-04
 0.14548001E+03  0.49818E-05
 0.14553000E+03 -0.63749E-04
 0.14558000E+03 -0.11778E-03
 0.14563000E+03 -0.15817E-03
 0.14568001E+03 -0.18402E-03
 0.14573001E+03 -0.19122E-03
 0.14578000E+03 -0.18499E-03
 0.14583000E+03 -0.18040E-03
 0.14588000E+03 -0.18474E-03
 0.14593001E+03 -0.18618E-03
 0.14598001E+03 -0.17407E-03
 0.14603000E+03 -0.15628E-03
 0.14608000E+03 -0.13936E-03
 0.14613000E+03 -0.12502E-03
 0.14618001E+03 -0.11324E-03
 0.14623001E+03 -0.95506E-04
 0.14628000E+03 -0.70767E-04
 0.14633000E+03 -0.40486E-04
 0.14638000E+03 -0.46438E-06
 0.14643001E+03  0.51625E-04
 0.14648001E+03  0.11486E-03
 0.14653000E+03  0.18559E-03
 0.14658000E+03  0.26490E-03
 0.14663000E+03  0.34283E-03
 0.14668001E+03  0.39372E-03
 0.14673001E+03  0.40685E-03
 0.14678000E+03  0.38309E-03
 0.14683000E+03  0.32513E-03
 0.14688000E+03  0.24568E-03
 0.14693001E+03  0.15836E-03
 0.14698001E+03  0.73503E-04
 0.14703000E+03 -0.43880E-05
 0.14708000E+03 -0.71488E-04
 0.14713000E+03 -0.12225E-03
 0.14718001E+03 -0.16091E-03
 0.14723001E+03 -0.19545E-03
 0.14728000E+03 -0.23180E-03
 0.14733000E+03 -0.26631E-03
 0.14738000E+03 -0.29358E-03
 0.14743001E+03 -0.31415E-03
 0.14748001E+03 -0.32306E-03
 0.14753000E+03 -0.31328E-03
 0.14758000E+03 -0.28247E-03
 0.14763000E+03 -0.23850E-03
 0.14768001E+03 -0.19081E-03
 0.14773001E+03 -0.14549E-03
 0.14778000E+03 -0.10975E-03
 0.14783000E+03 -0.82556E-04
 0.14788000E+03 -0.59869E-04
 0.14793001E+03 -0.36505E-04
 0.14798001E+03 -0.40195E-05
 0.14803000E+03  0.36029E-04
 0.14808000E+03  0.79977E-04
 0.14813000E+03  0.12518E-03
 0.14818001E+03  0.16898E-03
 0.14823001E+03  0.20970E-03
 0.14828000E+03  0.23653E-03
 0.14833000E+03  0.24323E-03
 0.14838000E+03  0.23198E-03
 0.14843001E+03  0.21070E-03
 0.14848001E+03  0.18660E-03
 0.14853000E+03  0.15776E-03
 0.14858000E+03  0.13064E-03
 0.14863000E+03  0.11021E-03
 0.14868001E+03  0.92193E-04
 0.14873001E+03  0.70596E-04
 0.14878000E+03  0.41277E-04
 0.14883000E+03  0.90946E-05
 0.14888000E+03 -0.17202E-04
 0.14893001E+03 -0.30435E-04
 0.14898001E+03 -0.35434E-04
 0.14903000E+03 -0.37602E-04
 0.14908000E+03 -0.34714E-04
 0.14913000E+03 -0.24481E-04
 0.14918001E+03 -0.82368E-05
 0.14923001E+03  0.16177E-05
 0.14928000E+03 -0.32063E-05
 0.14933000E+03 -0.22503E-04
 0.14938000E+03 -0.49234E-04
 0.14943001E+03 -0.73899E-04
 0.14948001E+03 -0.96088E-04
 0.14953000E+03 -0.11989E-03
 0.14958000E+03 -0.14581E-03
 0.14963000E+03 -0.16458E-03
 0.14968001E+03 -0.16841E-03
 0.14973001E+03 -0.15823E-03
 0.14978000E+03 -0.13656E-03
 0.14983000E+03 -0.10764E-03
 0.14988000E+03 -0.81447E-04
 0.14993001E+03 -0.63857E-04
 0.14998001E+03 -0.51381E-04
