-0.19992828E-01  0.59323E-06
 0.30007172E-01  0.32974E-06
 0.80007173E-01  0.13206E-06
 0.13000718E+00  0.80783E-08
 0.18000717E+00 -0.65681E-07
 0.23000717E+00 -0.11291E-06
 0.28000718E+00 -0.12993E-06
 0.33000717E+00 -0.13521E-06
 0.38000718E+00 -0.12974E-06
 0.43000719E+00 -0.11601E-06
 0.48000717E+00 -0.10489E-06
 0.53000718E+00 -0.85124E-07
 0.58000720E+00 -0.63009E-07
 0.63000721E+00 -0.39561E-07
 0.68000716E+00 -0.18342E-07
 0.73000717E+00 -0.12467E-07
 0.78000718E+00 -0.17905E-07
 0.83000720E+00 -0.25158E-07
 0.88000721E+00 -0.32992E-07
 0.93000716E+00 -0.31564E-07
 0.98000717E+00 -0.17104E-07
 0.10300072E+01 -0.51306E-10
 0.10800072E+01  0.17294E-07
 0.11300071E+01  0.13620E-07
 0.11800072E+01 -0.40417E-08
 0.12300072E+01 -0.15044E-07
 0.12800072E+01 -0.21893E-07
 0.13300072E+01 -0.85145E-08
 0.13800071E+01  0.87555E-08
 0.14300072E+01  0.14725E-07
 0.14800072E+01  0.17971E-07
 0.15300072E+01  0.79621E-09
 0.15800072E+01 -0.21892E-07
 0.16300071E+01 -0.25277E-07
 0.16800072E+01 -0.10606E-07
 0.17300072E+01  0.28569E-08
 0.17800072E+01 -0.47497E-08
 0.18300072E+01 -0.10247E-07
 0.18800071E+01 -0.25425E-08
 0.19300072E+01  0.96085E-08
 0.19800072E+01  0.18231E-07
 0.20300071E+01  0.16292E-07
 0.20800073E+01  0.12539E-07
 0.21300073E+01  0.10525E-07
 0.21800072E+01  0.57864E-08
 0.22300072E+01  0.48843E-08
 0.22800071E+01  0.16122E-07
 0.23300073E+01  0.28640E-07
 0.23800073E+01  0.30364E-07
 0.24300072E+01  0.21425E-07
 0.24800072E+01  0.24378E-07
 0.25300071E+01  0.27917E-07
 0.25800073E+01  0.21739E-07
 0.26300073E+01  0.14029E-07
 0.26800072E+01 -0.48522E-08
 0.27300072E+01 -0.49634E-08
 0.27800071E+01  0.39704E-08
 0.28300073E+01  0.41773E-08
 0.28800073E+01 -0.68336E-08
 0.29300072E+01 -0.23554E-07
 0.29800072E+01 -0.33386E-07
 0.30300071E+01 -0.42014E-07
 0.30800073E+01 -0.28961E-07
 0.31300073E+01 -0.12058E-07
 0.31800072E+01 -0.12495E-08
 0.32300072E+01  0.21802E-08
 0.32800071E+01 -0.19851E-09
 0.33300073E+01  0.38960E-08
 0.33800073E+01  0.44203E-11
 0.34300072E+01 -0.60944E-08
 0.34800072E+01 -0.11118E-07
 0.35300071E+01 -0.78419E-08
 0.35800073E+01  0.14938E-08
 0.36300073E+01  0.35612E-09
 0.36800072E+01 -0.14029E-08
 0.37300072E+01  0.15846E-08
 0.37800071E+01 -0.16304E-08
 0.38300073E+01 -0.51625E-08
 0.38800073E+01 -0.70131E-08
 0.39300072E+01 -0.24328E-08
 0.39800072E+01  0.16112E-07
 0.40300074E+01  0.14902E-07
 0.40800071E+01  0.31220E-08
 0.41300073E+01 -0.26825E-08
 0.41800075E+01 -0.89918E-08
 0.42300072E+01 -0.11077E-08
 0.42800074E+01  0.94418E-08
 0.43300071E+01  0.78436E-08
 0.43800073E+01  0.59883E-08
 0.44300075E+01  0.35168E-08
 0.44800072E+01 -0.37548E-08
 0.45300074E+01 -0.71135E-09
 0.45800071E+01  0.10976E-08
 0.46300073E+01 -0.52359E-08
 0.46800075E+01 -0.28729E-08
 0.47300072E+01  0.40773E-08
 0.47800074E+01  0.20027E-08
 0.48300071E+01 -0.48927E-08
 0.48800073E+01 -0.12725E-07
 0.49300075E+01 -0.16125E-07
 0.49800072E+01 -0.66032E-08
 0.50300074E+01  0.43463E-09
 0.50800071E+01  0.11106E-08
 0.51300073E+01 -0.19476E-08
 0.51800075E+01 -0.10958E-07
 0.52300072E+01 -0.15856E-07
 0.52800074E+01 -0.17324E-07
 0.53300071E+01 -0.18274E-07
 0.53800073E+01 -0.50068E-08
 0.54300075E+01  0.69068E-08
 0.54800072E+01  0.81885E-08
 0.55300074E+01  0.15958E-07
 0.55800071E+01  0.27465E-07
 0.56300073E+01  0.28836E-07
 0.56800075E+01  0.17792E-07
 0.57300072E+01  0.10680E-07
 0.57800074E+01 -0.13438E-08
 0.58300071E+01 -0.97479E-08
 0.58800073E+01  0.55723E-10
 0.59300075E+01  0.13344E-07
 0.59800072E+01  0.18993E-07
 0.60300074E+01  0.12284E-07
 0.60800071E+01  0.45926E-08
 0.61300073E+01  0.12921E-08
 0.61800075E+01  0.40752E-08
 0.62300072E+01  0.10336E-07
 0.62800074E+01  0.69167E-08
 0.63300071E+01 -0.34377E-08
 0.63800073E+01  0.16060E-08
 0.64300075E+01  0.77141E-08
 0.64800072E+01  0.20379E-09
 0.65300074E+01  0.47776E-08
 0.65800071E+01  0.69270E-08
 0.66300073E+01 -0.12578E-08
 0.66800075E+01 -0.88077E-08
 0.67300072E+01 -0.14143E-07
 0.67800074E+01 -0.82229E-08
 0.68300071E+01 -0.13636E-08
 0.68800073E+01 -0.25730E-09
 0.69300075E+01  0.14483E-07
 0.69800072E+01  0.39786E-07
 0.70300074E+01  0.39208E-07
 0.70800071E+01  0.49698E-07
 0.71300073E+01  0.28015E-07
 0.71800075E+01  0.30872E-07
 0.72300072E+01  0.42834E-07
 0.72800074E+01 -0.73755E-08
 0.73300071E+01  0.66693E-07
 0.73800073E+01 -0.21740E-06
 0.74300075E+01 -0.21702E-06
 0.74800072E+01 -0.27940E-06
 0.75300074E+01 -0.31698E-06
 0.75800071E+01  0.23099E-06
 0.76300073E+01 -0.21190E-06
 0.76800075E+01  0.66032E-06
 0.77300072E+01 -0.51297E-06
 0.77800074E+01  0.81065E-06
 0.78300071E+01  0.53495E-07
 0.78800073E+01  0.65160E-06
 0.79300075E+01  0.14244E-05
 0.79800072E+01 -0.33016E-05
 0.80300074E+01 -0.14326E-05
 0.80800076E+01 -0.39861E-04
 0.81300077E+01 -0.80808E-04
 0.81800070E+01 -0.11726E-03
 0.82300072E+01 -0.10807E-03
 0.82800074E+01 -0.90528E-04
 0.83300076E+01 -0.12877E-03
 0.83800077E+01 -0.11702E-03
 0.84300070E+01 -0.14097E-03
 0.84800072E+01  0.61745E-04
 0.85300074E+01  0.51702E-03
 0.85800076E+01  0.79964E-03
 0.86300077E+01  0.71601E-03
 0.86800070E+01  0.37276E-03
 0.87300072E+01 -0.16926E-03
 0.87800074E+01 -0.62155E-03
 0.88300076E+01 -0.37699E-03
 0.88800077E+01 -0.21562E-03
 0.89300070E+01 -0.37602E-03
 0.89800072E+01 -0.34638E-03
 0.90300074E+01 -0.11037E-03
 0.90800076E+01  0.35316E-03
 0.91300077E+01  0.27317E-03
 0.91800070E+01 -0.29985E-04
 0.92300072E+01  0.25311E-04
 0.92800074E+01 -0.37226E-04
 0.93300076E+01 -0.20358E-03
 0.93800077E+01 -0.58562E-04
 0.94300070E+01  0.17276E-03
 0.94800072E+01  0.14405E-03
 0.95300074E+01  0.17674E-03
 0.95800076E+01  0.99124E-04
 0.96300077E+01  0.70483E-04
 0.96800070E+01 -0.24061E-04
 0.97300072E+01 -0.26085E-03
 0.97800074E+01 -0.11936E-03
 0.98300076E+01 -0.12832E-03
 0.98800077E+01 -0.15555E-03
 0.99300070E+01 -0.58266E-04
 0.99800072E+01 -0.21800E-03
 0.10030007E+02 -0.23815E-03
 0.10080008E+02  0.92236E-04
 0.10130008E+02  0.27605E-03
 0.10180007E+02  0.24519E-03
 0.10230007E+02  0.45693E-03
 0.10280007E+02  0.46449E-03
 0.10330008E+02  0.23026E-03
 0.10380008E+02  0.13662E-03
 0.10430007E+02 -0.32751E-03
 0.10480007E+02 -0.73439E-03
 0.10530007E+02 -0.33957E-03
 0.10580008E+02  0.15746E-03
 0.10630008E+02 -0.79085E-04
 0.10680007E+02 -0.45380E-03
 0.10730007E+02 -0.17785E-03
 0.10780007E+02 -0.53088E-04
 0.10830008E+02 -0.16621E-03
 0.10880008E+02  0.10645E-03
 0.10930007E+02  0.26117E-03
 0.10980007E+02  0.25896E-03
 0.11030007E+02  0.32184E-03
 0.11080008E+02  0.10240E-03
 0.11130008E+02 -0.13570E-03
 0.11180007E+02 -0.12527E-03
 0.11230007E+02  0.13651E-03
 0.11280007E+02  0.53897E-03
 0.11330008E+02  0.11804E-03
 0.11380008E+02 -0.29566E-04
 0.11430007E+02  0.32697E-04
 0.11480007E+02 -0.33995E-03
 0.11530007E+02  0.15871E-03
 0.11580008E+02  0.25887E-03
 0.11630008E+02  0.21231E-03
 0.11680007E+02  0.38296E-04
 0.11730007E+02 -0.39084E-03
 0.11780007E+02 -0.13741E-03
 0.11830008E+02 -0.28210E-03
 0.11880008E+02 -0.57587E-05
 0.11930007E+02  0.20088E-03
 0.11980007E+02 -0.36153E-03
 0.12030007E+02 -0.10048E-03
 0.12080008E+02  0.15633E-04
 0.12130008E+02 -0.32864E-03
 0.12180007E+02  0.16035E-05
 0.12230007E+02  0.18636E-03
 0.12280007E+02 -0.14121E-03
 0.12330008E+02 -0.32616E-03
 0.12380008E+02  0.13903E-04
 0.12430007E+02  0.20688E-03
 0.12480007E+02  0.23389E-03
 0.12530007E+02  0.43817E-03
 0.12580008E+02  0.92761E-04
 0.12630008E+02  0.42593E-04
 0.12680007E+02  0.11407E-03
 0.12730007E+02 -0.99572E-04
 0.12780007E+02  0.61465E-04
 0.12830008E+02  0.19708E-03
 0.12880008E+02  0.19170E-03
 0.12930007E+02 -0.23220E-03
 0.12980007E+02 -0.13072E-03
 0.13030007E+02  0.30801E-03
 0.13080008E+02 -0.13947E-04
 0.13130008E+02 -0.33323E-05
 0.13180007E+02 -0.71133E-04
 0.13230007E+02 -0.61081E-03
 0.13280007E+02 -0.56445E-03
 0.13330008E+02 -0.46305E-03
 0.13380008E+02 -0.10031E-02
 0.13430007E+02 -0.10416E-02
 0.13480007E+02 -0.46399E-03
 0.13530007E+02 -0.44692E-04
 0.13580008E+02  0.58134E-03
 0.13630008E+02  0.12836E-02
 0.13680007E+02  0.12815E-02
 0.13730007E+02  0.81347E-03
 0.13780007E+02  0.19871E-03
 0.13830008E+02 -0.11405E-02
 0.13880008E+02 -0.21812E-02
 0.13930007E+02 -0.12858E-02
 0.13980007E+02  0.23628E-03
 0.14030007E+02  0.74609E-03
 0.14080008E+02  0.14588E-02
 0.14130008E+02  0.26947E-02
 0.14180007E+02  0.39174E-02
 0.14230007E+02  0.37206E-02
 0.14280007E+02  0.13230E-02
 0.14330008E+02 -0.45311E-04
 0.14380008E+02 -0.52337E-03
 0.14430007E+02 -0.98467E-03
 0.14480007E+02  0.15855E-03
 0.14530007E+02  0.12447E-02
 0.14580008E+02 -0.22874E-03
 0.14630008E+02 -0.28709E-02
 0.14680007E+02 -0.36836E-02
 0.14730007E+02 -0.31523E-02
 0.14780007E+02 -0.23479E-02
 0.14830008E+02 -0.27524E-02
 0.14880008E+02 -0.30921E-02
 0.14930007E+02 -0.16052E-02
 0.14980007E+02 -0.72871E-03
 0.15030007E+02  0.31448E-03
 0.15080008E+02  0.55068E-03
 0.15130008E+02 -0.68654E-04
 0.15180007E+02  0.74458E-03
 0.15230007E+02  0.14259E-02
 0.15280007E+02  0.20796E-02
 0.15330008E+02  0.21810E-02
 0.15380008E+02  0.19960E-02
 0.15430007E+02  0.18131E-02
 0.15480007E+02  0.86352E-03
 0.15530007E+02  0.95841E-03
 0.15580008E+02  0.13726E-02
 0.15630008E+02  0.18058E-02
 0.15680007E+02  0.18553E-02
 0.15730007E+02  0.55659E-03
 0.15780007E+02 -0.67044E-03
 0.15830008E+02 -0.13735E-02
 0.15880008E+02 -0.11642E-02
 0.15930007E+02 -0.10608E-02
 0.15980007E+02 -0.10407E-02
 0.16030008E+02 -0.60505E-03
 0.16080008E+02 -0.10488E-02
 0.16130007E+02 -0.10998E-02
 0.16180008E+02  0.81120E-04
 0.16230007E+02  0.90359E-03
 0.16280008E+02  0.47187E-04
 0.16330008E+02 -0.15813E-02
 0.16380007E+02 -0.19487E-02
 0.16430008E+02 -0.10425E-02
 0.16480007E+02  0.18616E-03
 0.16530008E+02  0.98147E-03
 0.16580008E+02  0.62754E-03
 0.16630007E+02 -0.33126E-03
 0.16680008E+02 -0.81390E-03
 0.16730007E+02 -0.45756E-03
 0.16780008E+02  0.35247E-03
 0.16830008E+02  0.58701E-03
 0.16880007E+02  0.67665E-03
 0.16930008E+02  0.10418E-02
 0.16980007E+02  0.10016E-02
 0.17030008E+02  0.88456E-03
 0.17080008E+02  0.56035E-03
 0.17130007E+02  0.94611E-03
 0.17180008E+02  0.14493E-02
 0.17230007E+02  0.57358E-03
 0.17280008E+02  0.20752E-03
 0.17330008E+02 -0.11467E-03
 0.17380007E+02 -0.93262E-03
 0.17430008E+02 -0.86267E-03
 0.17480007E+02 -0.66646E-03
 0.17530008E+02 -0.35220E-03
 0.17580008E+02 -0.23328E-03
 0.17630007E+02 -0.10459E-02
 0.17680008E+02 -0.10433E-02
 0.17730007E+02 -0.73768E-03
 0.17780008E+02 -0.88952E-03
 0.17830008E+02 -0.38326E-03
 0.17880007E+02 -0.21210E-03
 0.17930008E+02 -0.47948E-03
 0.17980007E+02 -0.82821E-03
 0.18030008E+02 -0.11341E-02
 0.18080008E+02 -0.68790E-03
 0.18130007E+02  0.13461E-03
 0.18180008E+02  0.77455E-03
 0.18230007E+02  0.72478E-03
 0.18280008E+02  0.68854E-03
 0.18330008E+02  0.10881E-02
 0.18380007E+02  0.14463E-02
 0.18430008E+02  0.16620E-02
 0.18480007E+02  0.18165E-02
 0.18530008E+02  0.17893E-02
 0.18580008E+02  0.12084E-02
 0.18630007E+02  0.11533E-02
 0.18680008E+02  0.13633E-02
 0.18730007E+02  0.61588E-03
 0.18780008E+02 -0.95017E-03
 0.18830008E+02 -0.19978E-02
 0.18880007E+02 -0.20320E-02
 0.18930008E+02 -0.19279E-02
 0.18980007E+02 -0.19101E-02
 0.19030008E+02 -0.20915E-02
 0.19080008E+02 -0.16361E-02
 0.19130007E+02 -0.91809E-03
 0.19180008E+02 -0.36951E-03
 0.19230007E+02  0.30682E-03
 0.19280008E+02  0.84048E-03
 0.19330008E+02  0.10728E-02
 0.19380007E+02  0.10650E-02
 0.19430008E+02  0.10901E-02
 0.19480007E+02  0.86111E-03
 0.19530008E+02  0.11526E-02
 0.19580008E+02  0.14836E-02
 0.19630007E+02  0.12863E-02
 0.19680008E+02  0.80917E-03
 0.19730007E+02 -0.90387E-05
 0.19780008E+02 -0.85253E-03
 0.19830008E+02 -0.16088E-02
 0.19880007E+02 -0.14347E-02
 0.19930008E+02 -0.12172E-02
 0.19980007E+02 -0.10169E-02
 0.20030008E+02 -0.61583E-03
 0.20080008E+02 -0.69209E-03
 0.20130007E+02 -0.47662E-03
 0.20180008E+02 -0.21510E-03
 0.20230007E+02  0.15110E-03
 0.20280008E+02  0.13943E-03
 0.20330008E+02 -0.17812E-03
 0.20380007E+02  0.21977E-03
 0.20430008E+02  0.26622E-03
 0.20480007E+02  0.13862E-03
 0.20530008E+02  0.38141E-03
 0.20580008E+02  0.60321E-03
 0.20630007E+02  0.10615E-02
 0.20680008E+02  0.10446E-02
 0.20730007E+02  0.91957E-03
 0.20780008E+02  0.12149E-02
 0.20830008E+02  0.12722E-02
 0.20880007E+02  0.14441E-02
 0.20930008E+02  0.12813E-02
 0.20980007E+02  0.40891E-03
 0.21030008E+02 -0.54632E-03
 0.21080008E+02 -0.12684E-02
 0.21130007E+02 -0.16295E-02
 0.21180008E+02 -0.18412E-02
 0.21230007E+02 -0.17165E-02
 0.21280008E+02 -0.16221E-02
 0.21330008E+02 -0.17202E-02
 0.21380007E+02 -0.12588E-02
 0.21430008E+02 -0.71710E-03
 0.21480007E+02 -0.27951E-03
 0.21530008E+02 -0.10383E-03
 0.21580008E+02  0.69650E-04
 0.21630007E+02  0.10147E-02
 0.21680008E+02  0.20702E-02
 0.21730007E+02  0.25030E-02
 0.21780008E+02  0.22604E-02
 0.21830008E+02  0.20275E-02
 0.21880007E+02  0.15865E-02
 0.21930008E+02  0.91944E-03
 0.21980007E+02  0.29383E-03
 0.22030008E+02 -0.46895E-03
 0.22080008E+02 -0.72546E-03
 0.22130007E+02 -0.10964E-02
 0.22180008E+02 -0.17763E-02
 0.22230007E+02 -0.22604E-02
 0.22280008E+02 -0.21476E-02
 0.22330008E+02 -0.14493E-02
 0.22380007E+02 -0.11370E-02
 0.22430008E+02 -0.90827E-03
 0.22480007E+02 -0.47019E-03
 0.22530008E+02 -0.63036E-04
 0.22580008E+02  0.61024E-04
 0.22630007E+02  0.10780E-03
 0.22680008E+02  0.43788E-03
 0.22730007E+02  0.10399E-02
 0.22780008E+02  0.15532E-02
 0.22830008E+02  0.14518E-02
 0.22880007E+02  0.13597E-02
 0.22930008E+02  0.10185E-02
 0.22980007E+02  0.43403E-03
 0.23030008E+02  0.18868E-03
 0.23080008E+02 -0.18657E-04
 0.23130007E+02  0.10908E-03
 0.23180008E+02  0.16735E-03
 0.23230007E+02  0.63242E-04
 0.23280008E+02  0.15692E-03
 0.23330008E+02  0.91474E-04
 0.23380007E+02 -0.20956E-03
 0.23430008E+02 -0.58930E-03
 0.23480007E+02 -0.72759E-03
 0.23530008E+02 -0.69231E-03
 0.23580008E+02 -0.79012E-03
 0.23630007E+02 -0.60360E-03
 0.23680008E+02  0.68866E-04
 0.23730007E+02  0.39340E-03
 0.23780008E+02  0.11110E-03
 0.23830008E+02 -0.27091E-03
 0.23880007E+02 -0.33500E-03
 0.23930008E+02  0.35059E-04
 0.23980007E+02  0.31923E-03
 0.24030008E+02  0.32959E-03
 0.24080008E+02  0.32976E-03
 0.24130007E+02  0.46324E-03
 0.24180008E+02  0.62988E-03
 0.24230007E+02  0.22604E-03
 0.24280008E+02 -0.33403E-03
 0.24330008E+02 -0.51948E-03
 0.24380007E+02 -0.73510E-03
 0.24430008E+02 -0.93511E-03
 0.24480007E+02 -0.10021E-02
 0.24530008E+02 -0.97162E-03
 0.24580008E+02 -0.91011E-03
 0.24630007E+02 -0.61502E-03
 0.24680008E+02 -0.16600E-03
 0.24730007E+02  0.23909E-03
 0.24780008E+02  0.92871E-03
 0.24830008E+02  0.15767E-02
 0.24880007E+02  0.17465E-02
 0.24930008E+02  0.16764E-02
 0.24980007E+02  0.13346E-02
 0.25030008E+02  0.92474E-03
 0.25080008E+02  0.50340E-03
 0.25130007E+02 -0.38901E-04
 0.25180008E+02 -0.31592E-03
 0.25230007E+02 -0.44367E-03
 0.25280008E+02 -0.45810E-03
 0.25330008E+02 -0.50124E-03
 0.25380007E+02 -0.67890E-03
 0.25430008E+02 -0.75244E-03
 0.25480007E+02 -0.80400E-03
 0.25530008E+02 -0.60302E-03
 0.25580008E+02 -0.11962E-03
 0.25630007E+02  0.16348E-03
 0.25680008E+02  0.12603E-03
 0.25730007E+02 -0.10768E-03
 0.25780008E+02 -0.26481E-03
 0.25830008E+02 -0.96945E-04
 0.25880007E+02  0.96333E-04
 0.25930008E+02  0.12282E-03
 0.25980007E+02  0.25228E-03
 0.26030008E+02  0.45766E-03
 0.26080008E+02  0.49877E-03
 0.26130007E+02  0.25630E-03
 0.26180008E+02 -0.22389E-03
 0.26230007E+02 -0.61512E-03
 0.26280008E+02 -0.61879E-03
 0.26330008E+02 -0.49208E-03
 0.26380007E+02 -0.30729E-03
 0.26430008E+02  0.97169E-04
 0.26480007E+02  0.17704E-03
 0.26530008E+02 -0.70913E-04
 0.26580008E+02 -0.26548E-03
 0.26630007E+02 -0.31435E-03
 0.26680008E+02 -0.10789E-03
 0.26730007E+02 -0.20978E-04
 0.26780008E+02 -0.91532E-04
 0.26830008E+02  0.96951E-04
 0.26880007E+02  0.36282E-03
 0.26930008E+02  0.57915E-03
 0.26980007E+02  0.73327E-03
 0.27030008E+02  0.69205E-03
 0.27080008E+02  0.58090E-03
 0.27130007E+02  0.32006E-03
 0.27180008E+02  0.56960E-04
 0.27230007E+02 -0.68525E-04
 0.27280008E+02 -0.10972E-03
 0.27330008E+02 -0.14201E-03
 0.27380007E+02 -0.28262E-03
 0.27430008E+02 -0.30779E-03
 0.27480007E+02 -0.25849E-03
 0.27530008E+02 -0.28357E-03
 0.27580008E+02 -0.30843E-03
 0.27630007E+02 -0.30161E-03
 0.27680008E+02 -0.31877E-03
 0.27730007E+02 -0.10489E-03
 0.27780008E+02  0.40394E-03
 0.27830008E+02  0.67082E-03
 0.27880007E+02  0.53996E-03
 0.27930008E+02  0.22007E-03
 0.27980007E+02 -0.19332E-04
 0.28030008E+02 -0.13869E-03
 0.28080008E+02 -0.23142E-03
 0.28130007E+02 -0.21578E-03
 0.28180008E+02 -0.19125E-03
 0.28230007E+02 -0.25159E-03
 0.28280008E+02 -0.23692E-03
 0.28330008E+02 -0.61535E-04
 0.28380007E+02  0.11061E-03
 0.28430008E+02  0.28970E-03
 0.28480007E+02  0.56749E-03
 0.28530008E+02  0.75551E-03
 0.28580008E+02  0.64644E-03
 0.28630007E+02  0.25277E-03
 0.28680008E+02 -0.22230E-03
 0.28730007E+02 -0.54555E-03
 0.28780008E+02 -0.62902E-03
 0.28830008E+02 -0.53625E-03
 0.28880007E+02 -0.21194E-03
 0.28930008E+02  0.13671E-03
 0.28980007E+02  0.27581E-03
 0.29030008E+02  0.26260E-03
 0.29080008E+02  0.26899E-04
 0.29130007E+02 -0.96845E-04
 0.29180008E+02  0.79340E-04
 0.29230007E+02  0.19335E-03
 0.29280008E+02  0.51979E-05
 0.29330008E+02 -0.39411E-03
 0.29380007E+02 -0.63176E-03
 0.29430008E+02 -0.52228E-03
 0.29480007E+02 -0.34711E-03
 0.29530008E+02 -0.26593E-03
 0.29580008E+02 -0.16387E-04
 0.29630007E+02  0.29354E-03
 0.29680008E+02  0.34832E-03
 0.29730007E+02  0.29045E-03
 0.29780008E+02  0.40033E-03
 0.29830008E+02  0.54713E-03
 0.29880007E+02  0.55472E-03
 0.29930008E+02  0.47864E-03
 0.29980007E+02  0.33802E-03
 0.30030008E+02  0.23896E-03
 0.30080008E+02  0.68804E-04
 0.30130007E+02 -0.26008E-03
 0.30180008E+02 -0.38788E-03
 0.30230007E+02 -0.23974E-03
 0.30280008E+02 -0.57248E-04
 0.30330008E+02 -0.46548E-05
 0.30380007E+02 -0.18859E-03
 0.30430008E+02 -0.38797E-03
 0.30480007E+02 -0.47195E-03
 0.30530008E+02 -0.49410E-03
 0.30580008E+02 -0.49082E-03
 0.30630007E+02 -0.57090E-03
 0.30680008E+02 -0.53306E-03
 0.30730007E+02 -0.34913E-03
 0.30780008E+02 -0.28004E-03
 0.30830008E+02 -0.36560E-03
 0.30880007E+02 -0.39482E-03
 0.30930008E+02 -0.25777E-03
 0.30980007E+02 -0.64611E-04
 0.31030008E+02  0.16674E-03
 0.31080008E+02  0.28250E-03
 0.31130007E+02  0.28947E-03
 0.31180008E+02  0.39846E-03
 0.31230007E+02  0.53449E-03
 0.31280008E+02  0.61080E-03
 0.31330008E+02  0.65696E-03
 0.31380007E+02  0.68468E-03
 0.31430008E+02  0.58327E-03
 0.31480007E+02  0.42808E-03
 0.31530008E+02  0.47926E-03
 0.31580008E+02  0.61637E-03
 0.31630007E+02  0.69903E-03
 0.31680008E+02  0.66060E-03
 0.31730007E+02  0.45456E-03
 0.31780008E+02  0.18091E-03
 0.31830008E+02 -0.10711E-03
 0.31880007E+02 -0.41986E-03
 0.31930008E+02 -0.73278E-03
 0.31980007E+02 -0.87015E-03
 0.32030006E+02 -0.94530E-03
 0.32080009E+02 -0.10240E-02
 0.32130009E+02 -0.10512E-02
 0.32180008E+02 -0.10601E-02
 0.32230007E+02 -0.91115E-03
 0.32280006E+02 -0.56560E-03
 0.32330009E+02 -0.17129E-03
 0.32380009E+02  0.19383E-03
 0.32430008E+02  0.60932E-03
 0.32480007E+02  0.83495E-03
 0.32530006E+02  0.82633E-03
 0.32580009E+02  0.74723E-03
 0.32630009E+02  0.53093E-03
 0.32680008E+02  0.32694E-03
 0.32730007E+02  0.27461E-03
 0.32780006E+02  0.24227E-03
 0.32830009E+02  0.94958E-04
 0.32880009E+02 -0.22078E-04
 0.32930008E+02 -0.85360E-04
 0.32980007E+02 -0.12019E-03
 0.33030006E+02 -0.30312E-04
 0.33080009E+02  0.35141E-04
 0.33130009E+02  0.52218E-05
 0.33180008E+02 -0.19958E-04
 0.33230007E+02 -0.56377E-04
 0.33280006E+02 -0.11470E-03
 0.33330009E+02 -0.56576E-04
 0.33380009E+02  0.11788E-03
 0.33430008E+02  0.16056E-03
 0.33480007E+02 -0.21382E-04
 0.33530006E+02 -0.31224E-03
 0.33580009E+02 -0.52585E-03
 0.33630009E+02 -0.59290E-03
 0.33680008E+02 -0.54312E-03
 0.33730007E+02 -0.37996E-03
 0.33780006E+02 -0.24354E-03
 0.33830009E+02 -0.79262E-04
 0.33880009E+02  0.16163E-03
 0.33930008E+02  0.36416E-03
 0.33980007E+02  0.48072E-03
 0.34030006E+02  0.46962E-03
 0.34080009E+02  0.48133E-03
 0.34130009E+02  0.57199E-03
 0.34180008E+02  0.64006E-03
 0.34230007E+02  0.64193E-03
 0.34280006E+02  0.55946E-03
 0.34330009E+02  0.52246E-03
 0.34380009E+02  0.43660E-03
 0.34430008E+02  0.13831E-03
 0.34480007E+02 -0.71505E-04
 0.34530006E+02 -0.22368E-03
 0.34580009E+02 -0.50811E-03
 0.34630009E+02 -0.72914E-03
 0.34680008E+02 -0.83522E-03
 0.34730007E+02 -0.87456E-03
 0.34780006E+02 -0.86235E-03
 0.34830009E+02 -0.75606E-03
 0.34880009E+02 -0.57530E-03
 0.34930008E+02 -0.37724E-03
 0.34980007E+02 -0.16693E-03
 0.35030006E+02 -0.37696E-04
 0.35080009E+02 -0.63600E-05
 0.35130009E+02  0.36529E-04
 0.35180008E+02  0.11331E-03
 0.35230007E+02  0.19304E-03
 0.35280006E+02  0.24714E-03
 0.35330009E+02  0.20775E-03
 0.35380009E+02  0.18136E-03
 0.35430008E+02  0.17183E-03
 0.35480007E+02  0.11293E-03
 0.35530006E+02  0.99562E-04
 0.35580009E+02  0.10654E-03
 0.35630009E+02  0.15915E-03
 0.35680008E+02  0.26686E-03
 0.35730007E+02  0.37114E-03
 0.35780006E+02  0.41927E-03
 0.35830009E+02  0.41428E-03
 0.35880009E+02  0.43491E-03
 0.35930008E+02  0.39696E-03
 0.35980007E+02  0.26335E-03
 0.36030006E+02  0.11656E-03
 0.36080009E+02 -0.43090E-05
 0.36130009E+02 -0.14308E-03
 0.36180008E+02 -0.26911E-03
 0.36230007E+02 -0.27665E-03
 0.36280006E+02 -0.21148E-03
 0.36330009E+02 -0.16200E-03
 0.36380009E+02 -0.16477E-03
 0.36430008E+02 -0.19721E-03
 0.36480007E+02 -0.21661E-03
 0.36530006E+02 -0.19677E-03
 0.36580009E+02 -0.23939E-03
 0.36630009E+02 -0.30561E-03
 0.36680008E+02 -0.23704E-03
 0.36730007E+02 -0.12208E-03
 0.36780006E+02 -0.13569E-04
 0.36830009E+02  0.98346E-04
 0.36880009E+02  0.22780E-03
 0.36930008E+02  0.31214E-03
 0.36980007E+02  0.29964E-03
 0.37030006E+02  0.27491E-03
 0.37080009E+02  0.23975E-03
 0.37130009E+02  0.19578E-03
 0.37180008E+02  0.15597E-03
 0.37230007E+02  0.10583E-03
 0.37280006E+02  0.35055E-04
 0.37330009E+02 -0.66530E-04
 0.37380009E+02 -0.16881E-03
 0.37430008E+02 -0.27931E-03
 0.37480007E+02 -0.38332E-03
 0.37530006E+02 -0.40314E-03
 0.37580009E+02 -0.35720E-03
 0.37630009E+02 -0.25725E-03
 0.37680008E+02 -0.12953E-03
 0.37730007E+02 -0.98641E-04
 0.37780006E+02 -0.19748E-03
 0.37830009E+02 -0.27488E-03
 0.37880009E+02 -0.24997E-03
 0.37930008E+02 -0.16545E-03
 0.37980007E+02 -0.38202E-04
 0.38030006E+02  0.84986E-04
 0.38080009E+02  0.24030E-03
 0.38130009E+02  0.36372E-03
 0.38180008E+02  0.43637E-03
 0.38230007E+02  0.52688E-03
 0.38280006E+02  0.51032E-03
 0.38330009E+02  0.41992E-03
 0.38380009E+02  0.31627E-03
 0.38430008E+02  0.18389E-03
 0.38480007E+02  0.10379E-03
 0.38530006E+02  0.81663E-04
 0.38580009E+02  0.25737E-04
 0.38630009E+02 -0.59394E-04
 0.38680008E+02 -0.13300E-03
 0.38730007E+02 -0.22979E-03
 0.38780006E+02 -0.27536E-03
 0.38830009E+02 -0.27374E-03
 0.38880009E+02 -0.29526E-03
 0.38930008E+02 -0.28611E-03
 0.38980007E+02 -0.21862E-03
 0.39030006E+02 -0.98175E-04
 0.39080009E+02 -0.36460E-05
 0.39130009E+02  0.86075E-04
 0.39180008E+02  0.20129E-03
 0.39230007E+02  0.25629E-03
 0.39280006E+02  0.29910E-03
 0.39330009E+02  0.33601E-03
 0.39380009E+02  0.35198E-03
 0.39430008E+02  0.32050E-03
 0.39480007E+02  0.21618E-03
 0.39530006E+02  0.12480E-03
 0.39580009E+02  0.40704E-04
 0.39630009E+02  0.34618E-05
 0.39680008E+02  0.50586E-08
 0.39730007E+02 -0.19885E-04
 0.39780006E+02 -0.31836E-06
 0.39830009E+02  0.16529E-04
 0.39880009E+02 -0.92103E-05
 0.39930008E+02 -0.86451E-04
 0.39980007E+02 -0.20485E-03
 0.40030006E+02 -0.27514E-03
 0.40080009E+02 -0.26237E-03
 0.40130009E+02 -0.26837E-03
 0.40180008E+02 -0.30077E-03
 0.40230007E+02 -0.32868E-03
 0.40280006E+02 -0.35688E-03
 0.40330009E+02 -0.31334E-03
 0.40380009E+02 -0.20985E-03
 0.40430008E+02 -0.10028E-03
 0.40480007E+02 -0.26131E-04
 0.40530006E+02  0.17782E-04
 0.40580009E+02  0.77613E-04
 0.40630009E+02  0.14503E-03
 0.40680008E+02  0.17587E-03
 0.40730007E+02  0.13790E-03
 0.40780006E+02  0.32048E-04
 0.40830009E+02 -0.88212E-04
 0.40880009E+02 -0.11572E-03
 0.40930008E+02 -0.70868E-04
 0.40980007E+02 -0.98296E-05
 0.41030006E+02  0.48349E-04
 0.41080009E+02  0.62716E-04
 0.41130009E+02  0.47125E-04
 0.41180008E+02 -0.11523E-04
 0.41230007E+02 -0.75687E-04
 0.41280006E+02 -0.85047E-04
 0.41330009E+02 -0.27207E-04
 0.41380009E+02  0.72048E-04
 0.41430008E+02  0.11174E-03
 0.41480007E+02  0.77888E-04
 0.41530006E+02  0.39852E-04
 0.41580009E+02  0.29926E-04
 0.41630009E+02  0.36101E-04
 0.41680008E+02  0.24836E-04
 0.41730007E+02  0.29559E-04
 0.41780006E+02  0.54461E-04
 0.41830009E+02  0.60967E-04
 0.41880009E+02  0.14648E-03
 0.41930008E+02  0.29446E-03
 0.41980007E+02  0.37138E-03
 0.42030006E+02  0.37939E-03
 0.42080009E+02  0.32793E-03
 0.42130009E+02  0.19724E-03
 0.42180008E+02  0.54442E-04
 0.42230007E+02 -0.52979E-04
 0.42280006E+02 -0.17361E-03
 0.42330009E+02 -0.27103E-03
 0.42380009E+02 -0.34803E-03
 0.42430008E+02 -0.37457E-03
 0.42480007E+02 -0.26763E-03
 0.42530006E+02 -0.11388E-03
 0.42580009E+02  0.71758E-05
 0.42630009E+02  0.60678E-04
 0.42680008E+02  0.44870E-04
 0.42730007E+02 -0.30464E-04
 0.42780006E+02 -0.11148E-03
 0.42830009E+02 -0.15433E-03
 0.42880009E+02 -0.16531E-03
 0.42930008E+02 -0.90023E-04
 0.42980007E+02  0.20253E-04
 0.43030006E+02  0.51512E-04
 0.43080009E+02 -0.11040E-04
 0.43130009E+02 -0.96260E-04
 0.43180008E+02 -0.14375E-03
 0.43230007E+02 -0.14247E-03
 0.43280006E+02 -0.11805E-03
 0.43330009E+02 -0.96102E-04
 0.43380009E+02 -0.75034E-04
 0.43430008E+02 -0.70632E-04
 0.43480007E+02 -0.13269E-04
 0.43530006E+02  0.89159E-04
 0.43580009E+02  0.18503E-03
 0.43630009E+02  0.31629E-03
 0.43680008E+02  0.39322E-03
 0.43730007E+02  0.38705E-03
 0.43780006E+02  0.37990E-03
 0.43830009E+02  0.33912E-03
 0.43880009E+02  0.26436E-03
 0.43930008E+02  0.19313E-03
 0.43980007E+02  0.96014E-04
 0.44030006E+02 -0.15756E-04
 0.44080009E+02 -0.91919E-04
 0.44130009E+02 -0.11184E-03
 0.44180008E+02 -0.75318E-04
 0.44230007E+02 -0.17163E-04
 0.44280006E+02  0.28751E-04
 0.44330009E+02  0.81302E-04
 0.44380009E+02  0.11702E-03
 0.44430008E+02  0.88129E-04
 0.44480007E+02  0.59429E-05
 0.44530006E+02 -0.39599E-04
 0.44580009E+02 -0.34345E-04
 0.44630009E+02 -0.44037E-04
 0.44680008E+02 -0.69891E-04
 0.44730007E+02 -0.12231E-03
 0.44780006E+02 -0.15185E-03
 0.44830009E+02 -0.16308E-03
 0.44880009E+02 -0.18029E-03
 0.44930008E+02 -0.17363E-03
 0.44980007E+02 -0.19885E-03
 0.45030006E+02 -0.26096E-03
 0.45080009E+02 -0.32025E-03
 0.45130009E+02 -0.32959E-03
 0.45180008E+02 -0.27799E-03
 0.45230007E+02 -0.24930E-03
 0.45280006E+02 -0.23225E-03
 0.45330009E+02 -0.15218E-03
 0.45380009E+02 -0.50706E-04
 0.45430008E+02  0.29966E-04
 0.45480007E+02  0.69367E-04
 0.45530006E+02  0.74255E-04
 0.45580009E+02  0.10868E-03
 0.45630009E+02  0.17348E-03
 0.45680008E+02  0.23706E-03
 0.45730007E+02  0.26875E-03
 0.45780006E+02  0.31539E-03
 0.45830009E+02  0.39102E-03
 0.45880009E+02  0.41831E-03
 0.45930008E+02  0.40542E-03
 0.45980007E+02  0.31630E-03
 0.46030006E+02  0.17304E-03
 0.46080009E+02  0.48911E-04
 0.46130009E+02 -0.87793E-04
 0.46180008E+02 -0.20761E-03
 0.46230007E+02 -0.30174E-03
 0.46280006E+02 -0.34131E-03
 0.46330009E+02 -0.31223E-03
 0.46380009E+02 -0.28019E-03
 0.46430008E+02 -0.25381E-03
 0.46480007E+02 -0.27680E-03
 0.46530006E+02 -0.28894E-03
 0.46580009E+02 -0.22381E-03
 0.46630009E+02 -0.15622E-03
 0.46680008E+02 -0.13829E-03
 0.46730007E+02 -0.13376E-03
 0.46780006E+02 -0.61356E-04
 0.46830009E+02  0.39247E-04
 0.46880009E+02  0.11169E-03
 0.46930008E+02  0.18035E-03
 0.46980007E+02  0.30789E-03
 0.47030006E+02  0.45740E-03
 0.47080009E+02  0.55364E-03
 0.47130009E+02  0.59120E-03
 0.47180008E+02  0.54803E-03
 0.47230007E+02  0.46523E-03
 0.47280006E+02  0.37184E-03
 0.47330009E+02  0.27347E-03
 0.47380009E+02  0.17283E-03
 0.47430008E+02  0.54424E-04
 0.47480007E+02 -0.55511E-04
 0.47530006E+02 -0.10730E-03
 0.47580009E+02 -0.10209E-03
 0.47630009E+02 -0.92556E-04
 0.47680008E+02 -0.10909E-03
 0.47730007E+02 -0.15504E-03
 0.47780006E+02 -0.19716E-03
 0.47830009E+02 -0.24017E-03
 0.47880009E+02 -0.31089E-03
 0.47930008E+02 -0.38197E-03
 0.47980007E+02 -0.40438E-03
 0.48030006E+02 -0.36856E-03
 0.48080009E+02 -0.32066E-03
 0.48130009E+02 -0.27954E-03
 0.48180008E+02 -0.22911E-03
 0.48230007E+02 -0.16296E-03
 0.48280006E+02 -0.97048E-04
 0.48330009E+02 -0.47067E-04
 0.48380009E+02 -0.80918E-05
 0.48430008E+02  0.37313E-04
 0.48480007E+02  0.89192E-04
 0.48530006E+02  0.12975E-03
 0.48580009E+02  0.15328E-03
 0.48630009E+02  0.15066E-03
 0.48680008E+02  0.11534E-03
 0.48730007E+02  0.87624E-04
 0.48780006E+02  0.85118E-04
 0.48830009E+02  0.94932E-04
 0.48880009E+02  0.13251E-03
 0.48930008E+02  0.14805E-03
 0.48980007E+02  0.13759E-03
 0.49030006E+02  0.12335E-03
 0.49080009E+02  0.78873E-04
 0.49130009E+02  0.30946E-04
 0.49180008E+02 -0.21283E-04
 0.49230007E+02 -0.44095E-04
 0.49280006E+02 -0.32985E-05
 0.49330009E+02  0.26702E-04
 0.49380009E+02 -0.11383E-04
 0.49430008E+02 -0.85577E-04
 0.49480007E+02 -0.16542E-03
 0.49530006E+02 -0.23184E-03
 0.49580009E+02 -0.24884E-03
 0.49630009E+02 -0.24406E-03
 0.49680008E+02 -0.23799E-03
 0.49730007E+02 -0.20624E-03
 0.49780006E+02 -0.14633E-03
 0.49830009E+02 -0.59873E-04
 0.49880009E+02  0.52669E-04
 0.49930008E+02  0.17829E-03
 0.49980007E+02  0.28175E-03
 0.50030006E+02  0.32560E-03
 0.50080009E+02  0.30779E-03
 0.50130009E+02  0.25709E-03
 0.50180008E+02  0.21080E-03
 0.50230007E+02  0.18693E-03
 0.50280006E+02  0.17835E-03
 0.50330009E+02  0.14064E-03
 0.50380009E+02  0.51526E-04
 0.50430008E+02 -0.49545E-04
 0.50480007E+02 -0.12514E-03
 0.50530006E+02 -0.14570E-03
 0.50580009E+02 -0.13120E-03
 0.50630009E+02 -0.10642E-03
 0.50680008E+02 -0.79195E-04
 0.50730007E+02 -0.73520E-04
 0.50780006E+02 -0.94379E-04
 0.50830009E+02 -0.12394E-03
 0.50880009E+02 -0.12655E-03
 0.50930008E+02 -0.93094E-04
 0.50980007E+02 -0.17782E-04
 0.51030006E+02  0.65618E-04
 0.51080009E+02  0.11871E-03
 0.51130009E+02  0.13051E-03
 0.51180008E+02  0.11331E-03
 0.51230007E+02  0.12786E-03
 0.51280006E+02  0.14564E-03
 0.51330009E+02  0.14102E-03
 0.51380009E+02  0.12808E-03
 0.51430008E+02  0.11304E-03
 0.51480007E+02  0.11702E-03
 0.51530006E+02  0.11665E-03
 0.51580009E+02  0.87308E-04
 0.51630009E+02  0.19556E-04
 0.51680008E+02 -0.53283E-04
 0.51730007E+02 -0.10076E-03
 0.51780006E+02 -0.14478E-03
 0.51830009E+02 -0.19009E-03
 0.51880009E+02 -0.21313E-03
 0.51930008E+02 -0.21195E-03
 0.51980007E+02 -0.20585E-03
 0.52030006E+02 -0.18914E-03
 0.52080009E+02 -0.15288E-03
 0.52130009E+02 -0.95950E-04
 0.52180008E+02 -0.27556E-04
 0.52230007E+02  0.40687E-04
 0.52280006E+02  0.96498E-04
 0.52330009E+02  0.11593E-03
 0.52380009E+02  0.98983E-04
 0.52430008E+02  0.53993E-04
 0.52480007E+02 -0.15667E-04
 0.52530006E+02 -0.76320E-04
 0.52580009E+02 -0.97538E-04
 0.52630009E+02 -0.97115E-04
 0.52680008E+02 -0.10516E-03
 0.52730007E+02 -0.11711E-03
 0.52780006E+02 -0.10734E-03
 0.52830009E+02 -0.67544E-04
 0.52880009E+02 -0.19062E-04
 0.52930008E+02  0.21407E-05
 0.52980007E+02 -0.95918E-05
 0.53030006E+02 -0.25996E-04
 0.53080009E+02 -0.23326E-04
 0.53130009E+02  0.12283E-04
 0.53180008E+02  0.54459E-04
 0.53230007E+02  0.48042E-04
 0.53280006E+02  0.18734E-04
 0.53330009E+02  0.21876E-04
 0.53380009E+02  0.41384E-04
 0.53430008E+02  0.63009E-04
 0.53480007E+02  0.83049E-04
 0.53530006E+02  0.97280E-04
 0.53580009E+02  0.12394E-03
 0.53630009E+02  0.15803E-03
 0.53680008E+02  0.18186E-03
 0.53730007E+02  0.18694E-03
 0.53780006E+02  0.17615E-03
 0.53830009E+02  0.14926E-03
 0.53880009E+02  0.10695E-03
 0.53930008E+02  0.61098E-04
 0.53980007E+02  0.16186E-04
 0.54030006E+02 -0.62150E-06
 0.54080009E+02  0.11845E-04
 0.54130009E+02  0.99202E-05
 0.54180008E+02 -0.26654E-04
 0.54230007E+02 -0.85814E-04
 0.54280006E+02 -0.13131E-03
 0.54330009E+02 -0.11586E-03
 0.54380009E+02 -0.59099E-04
 0.54430008E+02 -0.18045E-04
 0.54480007E+02  0.10673E-04
 0.54530006E+02  0.26851E-04
 0.54580009E+02  0.23314E-04
 0.54630009E+02  0.11004E-04
 0.54680008E+02  0.29897E-05
 0.54730007E+02  0.34522E-05
 0.54780006E+02  0.52121E-05
 0.54830009E+02 -0.80921E-06
 0.54880009E+02 -0.30215E-04
 0.54930008E+02 -0.63622E-04
 0.54980007E+02 -0.71789E-04
 0.55030006E+02 -0.58485E-04
 0.55080009E+02 -0.45408E-04
 0.55130009E+02 -0.27218E-04
 0.55180008E+02  0.88537E-05
 0.55230007E+02  0.52275E-04
 0.55280006E+02  0.10402E-03
 0.55330009E+02  0.15425E-03
 0.55380009E+02  0.18100E-03
 0.55430008E+02  0.16595E-03
 0.55480007E+02  0.11316E-03
 0.55530006E+02  0.55989E-04
 0.55580009E+02  0.65587E-05
 0.55630009E+02 -0.26967E-04
 0.55680008E+02 -0.49159E-04
 0.55730007E+02 -0.87469E-04
 0.55780006E+02 -0.12427E-03
 0.55830009E+02 -0.13609E-03
 0.55880009E+02 -0.14541E-03
 0.55930008E+02 -0.17496E-03
 0.55980007E+02 -0.19961E-03
 0.56030006E+02 -0.18364E-03
 0.56080009E+02 -0.14572E-03
 0.56130009E+02 -0.12512E-03
 0.56180008E+02 -0.12466E-03
 0.56230007E+02 -0.13145E-03
 0.56280006E+02 -0.11738E-03
 0.56330009E+02 -0.59765E-04
 0.56380009E+02  0.63868E-05
 0.56430008E+02  0.49903E-04
 0.56480007E+02  0.67469E-04
 0.56530006E+02  0.55596E-04
 0.56580009E+02  0.18348E-04
 0.56630009E+02 -0.18174E-04
 0.56680008E+02 -0.18609E-04
 0.56730007E+02  0.19820E-04
 0.56780006E+02  0.48841E-04
 0.56830009E+02  0.36899E-04
 0.56880009E+02  0.86759E-05
 0.56930008E+02 -0.20206E-04
 0.56980007E+02 -0.22071E-04
 0.57030006E+02  0.16342E-04
 0.57080009E+02  0.79601E-04
 0.57130009E+02  0.13686E-03
 0.57180008E+02  0.15495E-03
 0.57230007E+02  0.16661E-03
 0.57280006E+02  0.17464E-03
 0.57330009E+02  0.16014E-03
 0.57380009E+02  0.12942E-03
 0.57430008E+02  0.87379E-04
 0.57480007E+02  0.42864E-04
 0.57530006E+02 -0.33989E-05
 0.57580009E+02 -0.37724E-04
 0.57630009E+02 -0.59595E-04
 0.57680008E+02 -0.75317E-04
 0.57730007E+02 -0.92752E-04
 0.57780006E+02 -0.11119E-03
 0.57830009E+02 -0.12763E-03
 0.57880009E+02 -0.12803E-03
 0.57930008E+02 -0.88293E-04
 0.57980007E+02 -0.42879E-04
 0.58030006E+02 -0.62624E-05
 0.58080009E+02  0.25767E-04
 0.58130009E+02  0.47253E-04
 0.58180008E+02  0.79602E-04
 0.58230007E+02  0.11196E-03
 0.58280006E+02  0.11705E-03
 0.58330009E+02  0.99737E-04
 0.58380009E+02  0.80136E-04
 0.58430008E+02  0.49764E-04
 0.58480007E+02  0.12683E-05
 0.58530006E+02 -0.36245E-04
 0.58580009E+02 -0.54383E-04
 0.58630009E+02 -0.69728E-04
 0.58680008E+02 -0.87762E-04
 0.58730007E+02 -0.10047E-03
 0.58780006E+02 -0.10473E-03
 0.58830009E+02 -0.91642E-04
 0.58880009E+02 -0.62294E-04
 0.58930008E+02 -0.32082E-04
 0.58980007E+02  0.13932E-05
 0.59030006E+02  0.39923E-04
 0.59080009E+02  0.86919E-04
 0.59130009E+02  0.12957E-03
 0.59180008E+02  0.15437E-03
 0.59230007E+02  0.16052E-03
 0.59280006E+02  0.14071E-03
 0.59330009E+02  0.10084E-03
 0.59380009E+02  0.35242E-04
 0.59430008E+02 -0.47686E-04
 0.59480007E+02 -0.11389E-03
 0.59530006E+02 -0.16237E-03
 0.59580009E+02 -0.20113E-03
 0.59630009E+02 -0.21593E-03
 0.59680008E+02 -0.20278E-03
 0.59730007E+02 -0.16820E-03
 0.59780006E+02 -0.12155E-03
 0.59830009E+02 -0.74606E-04
 0.59880009E+02 -0.33744E-04
 0.59930008E+02  0.58415E-05
 0.59980007E+02  0.64008E-04
 0.60030006E+02  0.13279E-03
 0.60080009E+02  0.19455E-03
 0.60130009E+02  0.25150E-03
 0.60180008E+02  0.28938E-03
 0.60230007E+02  0.28815E-03
 0.60280006E+02  0.25245E-03
 0.60330009E+02  0.20453E-03
 0.60380009E+02  0.14644E-03
 0.60430008E+02  0.76921E-04
 0.60480007E+02  0.16580E-04
 0.60530006E+02 -0.28230E-04
 0.60580009E+02 -0.57976E-04
 0.60630009E+02 -0.71374E-04
 0.60680008E+02 -0.71535E-04
 0.60730007E+02 -0.58760E-04
 0.60780006E+02 -0.37959E-04
 0.60830009E+02 -0.10508E-04
 0.60880009E+02  0.12238E-04
 0.60930008E+02  0.10615E-04
 0.60980007E+02 -0.15295E-04
 0.61030006E+02 -0.58410E-04
 0.61080009E+02 -0.12033E-03
 0.61130009E+02 -0.19341E-03
 0.61180008E+02 -0.24318E-03
 0.61230007E+02 -0.25338E-03
 0.61280006E+02 -0.23207E-03
 0.61330009E+02 -0.19488E-03
 0.61380009E+02 -0.16548E-03
 0.61430008E+02 -0.13383E-03
 0.61480007E+02 -0.10226E-03
 0.61530006E+02 -0.80208E-04
 0.61580009E+02 -0.44885E-04
 0.61630009E+02 -0.88272E-05
 0.61680008E+02  0.31551E-05
 0.61730007E+02 -0.18952E-05
 0.61780006E+02 -0.27418E-05
 0.61830009E+02  0.22452E-04
 0.61880009E+02  0.72202E-04
 0.61930008E+02  0.11448E-03
 0.61980007E+02  0.12702E-03
 0.62030006E+02  0.11919E-03
 0.62080009E+02  0.98187E-04
 0.62130009E+02  0.74692E-04
 0.62180008E+02  0.72555E-04
 0.62230007E+02  0.83124E-04
 0.62280006E+02  0.77691E-04
 0.62330009E+02  0.62232E-04
 0.62380009E+02  0.55246E-04
 0.62430008E+02  0.55039E-04
 0.62480007E+02  0.60624E-04
 0.62530006E+02  0.73285E-04
 0.62580009E+02  0.80282E-04
 0.62630009E+02  0.71730E-04
 0.62680008E+02  0.52554E-04
 0.62730007E+02  0.25753E-04
 0.62780006E+02 -0.18081E-05
 0.62830009E+02 -0.21405E-04
 0.62880009E+02 -0.34756E-04
 0.62930008E+02 -0.38292E-04
 0.62980007E+02 -0.38314E-04
 0.63030006E+02 -0.45330E-04
 0.63080009E+02 -0.56217E-04
 0.63130009E+02 -0.74060E-04
 0.63180008E+02 -0.90056E-04
 0.63230007E+02 -0.84454E-04
 0.63280006E+02 -0.55962E-04
 0.63330009E+02 -0.73833E-05
 0.63380009E+02  0.50323E-04
 0.63430008E+02  0.88862E-04
 0.63480007E+02  0.97423E-04
 0.63530006E+02  0.74381E-04
 0.63580009E+02  0.36022E-04
 0.63630009E+02  0.26424E-04
 0.63680008E+02  0.41252E-04
 0.63730007E+02  0.55894E-04
 0.63780006E+02  0.71257E-04
 0.63830009E+02  0.88623E-04
 0.63880009E+02  0.11069E-03
 0.63930008E+02  0.12604E-03
 0.63980007E+02  0.12305E-03
 0.64030006E+02  0.92141E-04
 0.64080009E+02  0.27170E-04
 0.64130005E+02 -0.53436E-04
 0.64180008E+02 -0.12236E-03
 0.64230011E+02 -0.16512E-03
 0.64280006E+02 -0.18198E-03
 0.64330009E+02 -0.18228E-03
 0.64380005E+02 -0.17222E-03
 0.64430008E+02 -0.14451E-03
 0.64480011E+02 -0.10762E-03
 0.64530006E+02 -0.74339E-04
 0.64580009E+02 -0.54360E-04
 0.64630005E+02 -0.53670E-04
 0.64680008E+02 -0.54902E-04
 0.64730011E+02 -0.46851E-04
 0.64780006E+02 -0.24784E-04
 0.64830009E+02  0.42823E-05
 0.64880005E+02  0.32970E-04
 0.64930008E+02  0.69136E-04
 0.64980011E+02  0.10332E-03
 0.65030006E+02  0.11963E-03
 0.65080009E+02  0.12097E-03
 0.65130005E+02  0.12221E-03
 0.65180008E+02  0.12386E-03
 0.65230011E+02  0.10889E-03
 0.65280006E+02  0.67597E-04
 0.65330009E+02  0.11769E-04
 0.65380005E+02 -0.44152E-04
 0.65430008E+02 -0.94910E-04
 0.65480011E+02 -0.13787E-03
 0.65530006E+02 -0.17150E-03
 0.65580009E+02 -0.18730E-03
 0.65630005E+02 -0.17987E-03
 0.65680008E+02 -0.15206E-03
 0.65730011E+02 -0.10073E-03
 0.65780006E+02 -0.29966E-04
 0.65830009E+02  0.39942E-04
 0.65880005E+02  0.10431E-03
 0.65930008E+02  0.16334E-03
 0.65980011E+02  0.19763E-03
 0.66030006E+02  0.19185E-03
 0.66080009E+02  0.15922E-03
 0.66130005E+02  0.12581E-03
 0.66180008E+02  0.93444E-04
 0.66230011E+02  0.57111E-04
 0.66280006E+02  0.20026E-04
 0.66330009E+02 -0.16739E-04
 0.66380005E+02 -0.44550E-04
 0.66430008E+02 -0.61699E-04
 0.66480011E+02 -0.69666E-04
 0.66530006E+02 -0.65503E-04
 0.66580009E+02 -0.68624E-04
 0.66630005E+02 -0.87701E-04
 0.66680008E+02 -0.10497E-03
 0.66730011E+02 -0.11244E-03
 0.66780006E+02 -0.10865E-03
 0.66830009E+02 -0.85867E-04
 0.66880005E+02 -0.49635E-04
 0.66930008E+02 -0.18667E-04
 0.66980011E+02  0.87139E-05
 0.67030006E+02  0.40200E-04
 0.67080009E+02  0.77305E-04
 0.67130005E+02  0.10135E-03
 0.67180008E+02  0.91398E-04
 0.67230011E+02  0.54055E-04
 0.67280006E+02 -0.12221E-04
 0.67330009E+02 -0.76102E-04
 0.67380005E+02 -0.88111E-04
 0.67430008E+02 -0.51834E-04
 0.67480011E+02  0.69775E-05
 0.67530006E+02  0.63366E-04
 0.67580009E+02  0.11016E-03
 0.67630005E+02  0.14479E-03
 0.67680008E+02  0.16180E-03
 0.67730011E+02  0.16998E-03
 0.67780006E+02  0.16265E-03
 0.67830009E+02  0.13668E-03
 0.67880005E+02  0.99140E-04
 0.67930008E+02  0.48935E-04
 0.67980011E+02 -0.54074E-05
 0.68030006E+02 -0.61613E-04
 0.68080009E+02 -0.11524E-03
 0.68130005E+02 -0.15467E-03
 0.68180008E+02 -0.17892E-03
 0.68230011E+02 -0.18995E-03
 0.68280006E+02 -0.19073E-03
 0.68330009E+02 -0.17996E-03
 0.68380005E+02 -0.15626E-03
 0.68430008E+02 -0.11972E-03
 0.68480011E+02 -0.81169E-04
 0.68530006E+02 -0.46168E-04
 0.68580009E+02 -0.86133E-05
 0.68630005E+02  0.24223E-04
 0.68680008E+02  0.51555E-04
 0.68730011E+02  0.75389E-04
 0.68780006E+02  0.97685E-04
 0.68830009E+02  0.11587E-03
 0.68880005E+02  0.12515E-03
 0.68930008E+02  0.12528E-03
 0.68980011E+02  0.11860E-03
 0.69030006E+02  0.12033E-03
 0.69080009E+02  0.12764E-03
 0.69130005E+02  0.12073E-03
 0.69180008E+02  0.97034E-04
 0.69230011E+02  0.72182E-04
 0.69280006E+02  0.44060E-04
 0.69330009E+02  0.10655E-04
 0.69380005E+02 -0.10032E-04
 0.69430008E+02 -0.23417E-04
 0.69480011E+02 -0.35714E-04
 0.69530006E+02 -0.40350E-04
 0.69580009E+02 -0.35538E-04
 0.69630005E+02 -0.27943E-04
 0.69680008E+02 -0.35726E-04
 0.69730011E+02 -0.48444E-04
 0.69780006E+02 -0.48823E-04
 0.69830009E+02 -0.48009E-04
 0.69880005E+02 -0.51071E-04
 0.69930008E+02 -0.64245E-04
 0.69980011E+02 -0.80922E-04
 0.70030006E+02 -0.81308E-04
 0.70080009E+02 -0.64774E-04
 0.70130005E+02 -0.37961E-04
 0.70180008E+02 -0.18843E-04
 0.70230011E+02 -0.12224E-04
 0.70280006E+02 -0.84059E-05
 0.70330009E+02  0.80351E-06
 0.70380005E+02  0.18705E-04
 0.70430008E+02  0.27494E-04
 0.70480011E+02  0.20518E-04
 0.70530006E+02  0.52658E-05
 0.70580009E+02 -0.11591E-04
 0.70630005E+02 -0.29821E-04
 0.70680008E+02 -0.47019E-04
 0.70730011E+02 -0.42111E-04
 0.70780006E+02 -0.14446E-04
 0.70830009E+02  0.18935E-04
 0.70880005E+02  0.49953E-04
 0.70930008E+02  0.67475E-04
 0.70980011E+02  0.65755E-04
 0.71030006E+02  0.44185E-04
 0.71080009E+02  0.80200E-05
 0.71130005E+02 -0.34601E-04
 0.71180008E+02 -0.76049E-04
 0.71230011E+02 -0.98317E-04
 0.71280006E+02 -0.10213E-03
 0.71330009E+02 -0.92284E-04
 0.71380005E+02 -0.54478E-04
 0.71430008E+02  0.41781E-05
 0.71480011E+02  0.55949E-04
 0.71530006E+02  0.85482E-04
 0.71580009E+02  0.10107E-03
 0.71630005E+02  0.11276E-03
 0.71680008E+02  0.11693E-03
 0.71730011E+02  0.11904E-03
 0.71780006E+02  0.11803E-03
 0.71830009E+02  0.10259E-03
 0.71880005E+02  0.78570E-04
 0.71930008E+02  0.45211E-04
 0.71980011E+02 -0.18993E-06
 0.72030006E+02 -0.46472E-04
 0.72080009E+02 -0.77853E-04
 0.72130005E+02 -0.94969E-04
 0.72180008E+02 -0.11244E-03
 0.72230011E+02 -0.12267E-03
 0.72280006E+02 -0.12734E-03
 0.72330009E+02 -0.13434E-03
 0.72380005E+02 -0.13394E-03
 0.72430008E+02 -0.12510E-03
 0.72480011E+02 -0.10741E-03
 0.72530006E+02 -0.75763E-04
 0.72580009E+02 -0.31991E-04
 0.72630005E+02  0.14840E-04
 0.72680008E+02  0.57724E-04
 0.72730011E+02  0.93287E-04
 0.72780006E+02  0.12148E-03
 0.72830009E+02  0.14732E-03
 0.72880005E+02  0.16689E-03
 0.72930008E+02  0.16976E-03
 0.72980011E+02  0.15633E-03
 0.73030006E+02  0.12963E-03
 0.73080009E+02  0.95560E-04
 0.73130005E+02  0.64377E-04
 0.73180008E+02  0.33962E-04
 0.73230011E+02  0.49205E-05
 0.73280006E+02 -0.12181E-04
 0.73330009E+02 -0.17337E-04
 0.73380005E+02 -0.19222E-04
 0.73430008E+02 -0.22346E-04
 0.73480011E+02 -0.26393E-04
 0.73530006E+02 -0.29826E-04
 0.73580009E+02 -0.29432E-04
 0.73630005E+02 -0.25207E-04
 0.73680008E+02 -0.23827E-04
 0.73730011E+02 -0.23367E-04
 0.73780006E+02 -0.21489E-04
 0.73830009E+02 -0.26591E-04
 0.73880005E+02 -0.39397E-04
 0.73930008E+02 -0.54700E-04
 0.73980011E+02 -0.65595E-04
 0.74030006E+02 -0.71538E-04
 0.74080009E+02 -0.77849E-04
 0.74130005E+02 -0.80669E-04
 0.74180008E+02 -0.81864E-04
 0.74230011E+02 -0.82064E-04
 0.74280006E+02 -0.74232E-04
 0.74330009E+02 -0.58936E-04
 0.74380005E+02 -0.35135E-04
 0.74430008E+02 -0.10962E-05
 0.74480011E+02  0.38636E-04
 0.74530006E+02  0.76495E-04
 0.74580009E+02  0.10718E-03
 0.74630005E+02  0.12380E-03
 0.74680008E+02  0.11599E-03
 0.74730011E+02  0.89768E-04
 0.74780006E+02  0.60497E-04
 0.74830009E+02  0.37183E-04
 0.74880005E+02  0.22333E-04
 0.74930008E+02  0.82387E-05
 0.74980011E+02 -0.61264E-05
 0.75030006E+02 -0.19731E-04
 0.75080009E+02 -0.39963E-04
 0.75130005E+02 -0.66075E-04
 0.75180008E+02 -0.87705E-04
 0.75230011E+02 -0.96820E-04
 0.75280006E+02 -0.96393E-04
 0.75330009E+02 -0.84550E-04
 0.75380005E+02 -0.65884E-04
 0.75430008E+02 -0.56459E-04
 0.75480011E+02 -0.51743E-04
 0.75530006E+02 -0.48067E-04
 0.75580009E+02 -0.49288E-04
 0.75630005E+02 -0.51980E-04
 0.75680008E+02 -0.55915E-04
 0.75730011E+02 -0.57061E-04
 0.75780006E+02 -0.46681E-04
 0.75830009E+02 -0.19250E-04
 0.75880005E+02  0.18600E-04
 0.75930008E+02  0.63091E-04
 0.75980011E+02  0.11318E-03
 0.76030006E+02  0.14970E-03
 0.76080009E+02  0.17159E-03
 0.76130005E+02  0.18768E-03
 0.76180008E+02  0.19524E-03
 0.76230011E+02  0.19564E-03
 0.76280006E+02  0.18170E-03
 0.76330009E+02  0.15462E-03
 0.76380005E+02  0.12206E-03
 0.76430008E+02  0.85824E-04
 0.76480011E+02  0.50671E-04
 0.76530006E+02  0.16219E-04
 0.76580009E+02 -0.15315E-04
 0.76630005E+02 -0.45234E-04
 0.76680008E+02 -0.78558E-04
 0.76730011E+02 -0.11286E-03
 0.76780006E+02 -0.13818E-03
 0.76830009E+02 -0.15505E-03
 0.76880005E+02 -0.17399E-03
 0.76930008E+02 -0.18846E-03
 0.76980011E+02 -0.19028E-03
 0.77030006E+02 -0.16945E-03
 0.77080009E+02 -0.12525E-03
 0.77130005E+02 -0.76055E-04
 0.77180008E+02 -0.35409E-04
 0.77230011E+02 -0.58584E-05
 0.77280006E+02  0.16300E-04
 0.77330009E+02  0.30100E-04
 0.77380005E+02  0.39361E-04
 0.77430008E+02  0.47088E-04
 0.77480011E+02  0.59124E-04
 0.77530006E+02  0.78174E-04
 0.77580009E+02  0.87946E-04
 0.77630005E+02  0.88621E-04
 0.77680008E+02  0.83704E-04
 0.77730011E+02  0.70902E-04
 0.77780006E+02  0.59598E-04
 0.77830009E+02  0.49287E-04
 0.77880005E+02  0.39486E-04
 0.77930008E+02  0.28482E-04
 0.77980011E+02  0.10339E-04
 0.78030006E+02 -0.78537E-05
 0.78080009E+02 -0.23606E-04
 0.78130005E+02 -0.35616E-04
 0.78180008E+02 -0.43019E-04
 0.78230011E+02 -0.47578E-04
 0.78280006E+02 -0.38609E-04
 0.78330009E+02 -0.18992E-04
 0.78380005E+02 -0.21652E-05
 0.78430008E+02  0.14181E-04
 0.78480011E+02  0.26616E-04
 0.78530006E+02  0.29487E-04
 0.78580009E+02  0.26415E-04
 0.78630005E+02  0.19137E-04
 0.78680008E+02  0.15490E-04
 0.78730011E+02  0.19598E-04
 0.78780006E+02  0.23617E-04
 0.78830009E+02  0.16311E-04
 0.78880005E+02  0.14722E-05
 0.78930008E+02 -0.95152E-05
 0.78980011E+02 -0.19346E-04
 0.79030006E+02 -0.23240E-04
 0.79080009E+02 -0.24041E-04
 0.79130005E+02 -0.33383E-04
 0.79180008E+02 -0.49939E-04
 0.79230011E+02 -0.62243E-04
 0.79280006E+02 -0.58748E-04
 0.79330009E+02 -0.46173E-04
 0.79380005E+02 -0.21896E-04
 0.79430008E+02  0.15570E-04
 0.79480011E+02  0.50298E-04
 0.79530006E+02  0.74599E-04
 0.79580009E+02  0.84916E-04
 0.79630005E+02  0.80805E-04
 0.79680008E+02  0.61986E-04
 0.79730011E+02  0.29811E-04
 0.79780006E+02 -0.71183E-05
 0.79830009E+02 -0.37277E-04
 0.79880005E+02 -0.57058E-04
 0.79930008E+02 -0.65083E-04
 0.79980011E+02 -0.69196E-04
 0.80030006E+02 -0.78091E-04
 0.80080009E+02 -0.80644E-04
 0.80130005E+02 -0.76965E-04
 0.80180008E+02 -0.62265E-04
 0.80230011E+02 -0.33831E-04
 0.80280006E+02 -0.67758E-05
 0.80330009E+02  0.99639E-05
 0.80380005E+02  0.67388E-05
 0.80430008E+02 -0.59239E-05
 0.80480011E+02 -0.94135E-05
 0.80530006E+02 -0.44064E-05
 0.80580009E+02  0.21512E-05
 0.80630005E+02  0.71379E-05
 0.80680008E+02  0.13455E-04
 0.80730011E+02  0.19485E-04
 0.80780006E+02  0.23996E-04
 0.80830009E+02  0.33294E-04
 0.80880005E+02  0.46115E-04
 0.80930008E+02  0.56798E-04
 0.80980011E+02  0.63540E-04
 0.81030006E+02  0.59368E-04
 0.81080009E+02  0.47579E-04
 0.81130005E+02  0.35957E-04
 0.81180008E+02  0.26088E-04
 0.81230011E+02  0.18025E-04
 0.81280006E+02  0.32829E-05
 0.81330009E+02 -0.14326E-04
 0.81380005E+02 -0.31136E-04
 0.81430008E+02 -0.45086E-04
 0.81480011E+02 -0.43295E-04
 0.81530006E+02 -0.31884E-04
 0.81580009E+02 -0.15672E-04
 0.81630005E+02  0.98070E-05
 0.81680008E+02  0.37958E-04
 0.81730011E+02  0.63540E-04
 0.81780006E+02  0.84099E-04
 0.81830009E+02  0.98039E-04
 0.81880005E+02  0.99934E-04
 0.81930008E+02  0.87398E-04
 0.81980011E+02  0.69712E-04
 0.82030006E+02  0.58083E-04
 0.82080009E+02  0.45505E-04
 0.82130005E+02  0.30009E-04
 0.82180008E+02  0.16560E-04
 0.82230011E+02 -0.57326E-05
 0.82280006E+02 -0.31463E-04
 0.82330009E+02 -0.59401E-04
 0.82380005E+02 -0.84968E-04
 0.82430008E+02 -0.10533E-03
 0.82480011E+02 -0.12785E-03
 0.82530006E+02 -0.14596E-03
 0.82580009E+02 -0.15521E-03
 0.82630005E+02 -0.14974E-03
 0.82680008E+02 -0.14074E-03
 0.82730011E+02 -0.13401E-03
 0.82780006E+02 -0.12291E-03
 0.82830009E+02 -0.10579E-03
 0.82880005E+02 -0.84467E-04
 0.82930008E+02 -0.60208E-04
 0.82980011E+02 -0.29047E-04
 0.83030006E+02  0.65779E-06
 0.83080009E+02  0.32253E-04
 0.83130005E+02  0.61241E-04
 0.83180008E+02  0.79925E-04
 0.83230011E+02  0.95515E-04
 0.83280006E+02  0.10649E-03
 0.83330009E+02  0.11689E-03
 0.83380005E+02  0.12197E-03
 0.83430008E+02  0.11508E-03
 0.83480011E+02  0.10131E-03
 0.83530006E+02  0.84700E-04
 0.83580009E+02  0.64805E-04
 0.83630005E+02  0.40092E-04
 0.83680008E+02  0.23099E-04
 0.83730011E+02  0.19523E-04
 0.83780006E+02  0.19034E-04
 0.83830009E+02  0.20113E-04
 0.83880005E+02  0.26744E-04
 0.83930008E+02  0.35280E-04
 0.83980011E+02  0.41412E-04
 0.84030006E+02  0.52086E-04
 0.84080009E+02  0.62478E-04
 0.84130005E+02  0.62116E-04
 0.84180008E+02  0.54027E-04
 0.84230011E+02  0.38119E-04
 0.84280006E+02  0.13819E-04
 0.84330009E+02 -0.16406E-04
 0.84380005E+02 -0.43798E-04
 0.84430008E+02 -0.65691E-04
 0.84480011E+02 -0.84028E-04
 0.84530006E+02 -0.98186E-04
 0.84580009E+02 -0.10679E-03
 0.84630005E+02 -0.10576E-03
 0.84680008E+02 -0.10248E-03
 0.84730011E+02 -0.10240E-03
 0.84780006E+02 -0.10695E-03
 0.84830009E+02 -0.10823E-03
 0.84880005E+02 -0.94297E-04
 0.84930008E+02 -0.66853E-04
 0.84980011E+02 -0.27213E-04
 0.85030006E+02  0.90050E-05
 0.85080009E+02  0.32967E-04
 0.85130005E+02  0.55900E-04
 0.85180008E+02  0.73291E-04
 0.85230011E+02  0.83486E-04
 0.85280006E+02  0.89088E-04
 0.85330009E+02  0.87414E-04
 0.85380005E+02  0.79107E-04
 0.85430008E+02  0.66919E-04
 0.85480011E+02  0.56343E-04
 0.85530006E+02  0.43264E-04
 0.85580009E+02  0.27290E-04
 0.85630005E+02  0.11543E-04
 0.85680008E+02 -0.23098E-05
 0.85730011E+02 -0.13658E-04
 0.85780006E+02 -0.22376E-04
 0.85830009E+02 -0.25093E-04
 0.85880005E+02 -0.31294E-04
 0.85930008E+02 -0.35826E-04
 0.85980011E+02 -0.32921E-04
 0.86030006E+02 -0.27512E-04
 0.86080009E+02 -0.19354E-04
 0.86130005E+02 -0.14911E-04
 0.86180008E+02 -0.10110E-04
 0.86230011E+02 -0.92404E-05
 0.86280006E+02 -0.11625E-04
 0.86330009E+02 -0.62559E-05
 0.86380005E+02  0.41640E-05
 0.86430008E+02  0.21562E-04
 0.86480011E+02  0.38621E-04
 0.86530006E+02  0.50226E-04
 0.86580009E+02  0.57306E-04
 0.86630005E+02  0.59102E-04
 0.86680008E+02  0.55097E-04
 0.86730011E+02  0.35760E-04
 0.86780006E+02  0.56456E-05
 0.86830009E+02 -0.26400E-04
 0.86880005E+02 -0.55746E-04
 0.86930008E+02 -0.75709E-04
 0.86980011E+02 -0.85232E-04
 0.87030006E+02 -0.83751E-04
 0.87080009E+02 -0.75792E-04
 0.87130005E+02 -0.66084E-04
 0.87180008E+02 -0.56655E-04
 0.87230011E+02 -0.45162E-04
 0.87280006E+02 -0.27510E-04
 0.87330009E+02 -0.10500E-04
 0.87380005E+02  0.19176E-05
 0.87430008E+02  0.10019E-04
 0.87480011E+02  0.10824E-04
 0.87530006E+02  0.65232E-05
 0.87580009E+02  0.71476E-05
 0.87630005E+02  0.16487E-04
 0.87680008E+02  0.32079E-04
 0.87730011E+02  0.53091E-04
 0.87780006E+02  0.75080E-04
 0.87830009E+02  0.91430E-04
 0.87880005E+02  0.10159E-03
 0.87930008E+02  0.10867E-03
 0.87980011E+02  0.10478E-03
 0.88030006E+02  0.87569E-04
 0.88080009E+02  0.61510E-04
 0.88130005E+02  0.28931E-04
 0.88180008E+02 -0.45778E-05
 0.88230011E+02 -0.31801E-04
 0.88280006E+02 -0.48772E-04
 0.88330009E+02 -0.57058E-04
 0.88380005E+02 -0.58435E-04
 0.88430008E+02 -0.58827E-04
 0.88480011E+02 -0.58122E-04
 0.88530006E+02 -0.57549E-04
 0.88580009E+02 -0.55517E-04
 0.88630005E+02 -0.51315E-04
 0.88680008E+02 -0.49172E-04
 0.88730011E+02 -0.41908E-04
 0.88780006E+02 -0.33904E-04
 0.88830009E+02 -0.30715E-04
 0.88880005E+02 -0.28230E-04
 0.88930008E+02 -0.20068E-04
 0.88980011E+02 -0.52580E-05
 0.89030006E+02  0.98999E-05
 0.89080009E+02  0.21230E-04
 0.89130005E+02  0.26129E-04
 0.89180008E+02  0.28644E-04
 0.89230011E+02  0.30962E-04
 0.89280006E+02  0.36378E-04
 0.89330009E+02  0.46681E-04
 0.89380005E+02  0.59789E-04
 0.89430008E+02  0.72665E-04
 0.89480011E+02  0.74420E-04
 0.89530006E+02  0.66983E-04
 0.89580009E+02  0.56878E-04
 0.89630005E+02  0.42073E-04
 0.89680008E+02  0.24611E-04
 0.89730011E+02  0.53096E-05
 0.89780006E+02 -0.60717E-05
 0.89830009E+02 -0.70964E-05
 0.89880005E+02 -0.61193E-05
 0.89930008E+02 -0.31281E-05
 0.89980011E+02 -0.56667E-05
 0.90030006E+02 -0.83227E-05
 0.90080009E+02 -0.53613E-05
 0.90130005E+02 -0.34942E-06
 0.90180008E+02  0.25948E-05
 0.90230011E+02 -0.90894E-05
 0.90280006E+02 -0.30021E-04
 0.90330009E+02 -0.53036E-04
 0.90380005E+02 -0.73636E-04
 0.90430008E+02 -0.87131E-04
 0.90480011E+02 -0.94884E-04
 0.90530006E+02 -0.95238E-04
 0.90580009E+02 -0.92090E-04
 0.90630005E+02 -0.83931E-04
 0.90680008E+02 -0.70898E-04
 0.90730011E+02 -0.57033E-04
 0.90780006E+02 -0.39171E-04
 0.90830009E+02 -0.19069E-04
 0.90880005E+02 -0.27159E-05
 0.90930008E+02  0.10498E-04
 0.90980011E+02  0.27015E-04
 0.91030006E+02  0.44484E-04
 0.91080009E+02  0.58757E-04
 0.91130005E+02  0.72810E-04
 0.91180008E+02  0.86163E-04
 0.91230011E+02  0.99107E-04
 0.91280006E+02  0.11080E-03
 0.91330009E+02  0.11660E-03
 0.91380005E+02  0.11390E-03
 0.91430008E+02  0.99750E-04
 0.91480011E+02  0.79654E-04
 0.91530006E+02  0.60324E-04
 0.91580009E+02  0.43290E-04
 0.91630005E+02  0.29324E-04
 0.91680008E+02  0.15914E-04
 0.91730011E+02  0.37382E-05
 0.91780006E+02 -0.11823E-04
 0.91830009E+02 -0.32070E-04
 0.91880005E+02 -0.55784E-04
 0.91930008E+02 -0.80648E-04
 0.91980011E+02 -0.98709E-04
 0.92030006E+02 -0.11131E-03
 0.92080009E+02 -0.11533E-03
 0.92130005E+02 -0.10916E-03
 0.92180008E+02 -0.93749E-04
 0.92230011E+02 -0.72221E-04
 0.92280006E+02 -0.48111E-04
 0.92330009E+02 -0.24273E-04
 0.92380005E+02 -0.76673E-05
 0.92430008E+02  0.68415E-05
 0.92480011E+02  0.13433E-04
 0.92530006E+02  0.13247E-04
 0.92580009E+02  0.12541E-04
 0.92630005E+02  0.60099E-05
 0.92680008E+02 -0.97834E-06
 0.92730011E+02 -0.10627E-04
 0.92780006E+02 -0.22530E-04
 0.92830009E+02 -0.28509E-04
 0.92880005E+02 -0.22831E-04
 0.92930008E+02 -0.13679E-04
 0.92980011E+02 -0.34087E-05
 0.93030006E+02  0.12992E-04
 0.93080009E+02  0.23543E-04
 0.93130005E+02  0.30290E-04
 0.93180008E+02  0.35019E-04
 0.93230011E+02  0.35627E-04
 0.93280006E+02  0.33056E-04
 0.93330009E+02  0.26932E-04
 0.93380005E+02  0.21117E-04
 0.93430008E+02  0.16152E-04
 0.93480011E+02  0.13667E-04
 0.93530006E+02  0.13155E-04
 0.93580009E+02  0.19253E-04
 0.93630005E+02  0.33711E-04
 0.93680008E+02  0.48816E-04
 0.93730011E+02  0.58377E-04
 0.93780006E+02  0.60252E-04
 0.93830009E+02  0.59419E-04
 0.93880005E+02  0.61774E-04
 0.93930008E+02  0.63651E-04
 0.93980011E+02  0.59651E-04
 0.94030006E+02  0.50750E-04
 0.94080009E+02  0.33500E-04
 0.94130005E+02  0.79228E-05
 0.94180008E+02 -0.20898E-04
 0.94230011E+02 -0.51296E-04
 0.94280006E+02 -0.80202E-04
 0.94330009E+02 -0.10664E-03
 0.94380005E+02 -0.12107E-03
 0.94430008E+02 -0.11677E-03
 0.94480011E+02 -0.10140E-03
 0.94530006E+02 -0.80721E-04
 0.94580009E+02 -0.64107E-04
 0.94630005E+02 -0.49399E-04
 0.94680008E+02 -0.35716E-04
 0.94730011E+02 -0.27844E-04
 0.94780006E+02 -0.18087E-04
 0.94830009E+02 -0.80694E-05
 0.94880005E+02  0.35935E-05
 0.94930008E+02  0.15406E-04
 0.94980011E+02  0.24080E-04
 0.95030006E+02  0.33654E-04
 0.95080009E+02  0.39495E-04
 0.95130005E+02  0.43557E-04
 0.95180008E+02  0.47532E-04
 0.95230011E+02  0.48803E-04
 0.95280006E+02  0.48111E-04
 0.95330009E+02  0.44819E-04
 0.95380005E+02  0.37903E-04
 0.95430008E+02  0.28622E-04
 0.95480011E+02  0.21061E-04
 0.95530006E+02  0.16439E-04
 0.95580009E+02  0.15920E-04
 0.95630005E+02  0.21179E-04
 0.95680008E+02  0.29197E-04
 0.95730011E+02  0.36111E-04
 0.95780006E+02  0.42677E-04
 0.95830009E+02  0.49666E-04
 0.95880005E+02  0.56253E-04
 0.95930008E+02  0.60828E-04
 0.95980011E+02  0.58791E-04
 0.96030006E+02  0.46693E-04
 0.96080009E+02  0.25702E-04
 0.96130005E+02 -0.30721E-06
 0.96180008E+02 -0.28350E-04
 0.96230011E+02 -0.52660E-04
 0.96280006E+02 -0.68880E-04
 0.96330009E+02 -0.78399E-04
 0.96380005E+02 -0.81864E-04
 0.96430008E+02 -0.78909E-04
 0.96480011E+02 -0.66248E-04
 0.96530006E+02 -0.46079E-04
 0.96580009E+02 -0.26952E-04
 0.96630005E+02 -0.13725E-04
 0.96680008E+02 -0.74901E-05
 0.96730011E+02 -0.54782E-05
 0.96780006E+02 -0.41636E-05
 0.96830009E+02 -0.16068E-05
 0.96880005E+02 -0.35731E-05
 0.96930008E+02 -0.12293E-04
 0.96980011E+02 -0.22504E-04
 0.97030006E+02 -0.31154E-04
 0.97080009E+02 -0.34420E-04
 0.97130005E+02 -0.30699E-04
 0.97180008E+02 -0.22410E-04
 0.97230011E+02 -0.16335E-04
 0.97280006E+02 -0.15204E-04
 0.97330009E+02 -0.16346E-04
 0.97380005E+02 -0.14865E-04
 0.97430008E+02 -0.72504E-05
 0.97480011E+02  0.42655E-05
 0.97530006E+02  0.17463E-04
 0.97580009E+02  0.30538E-04
 0.97630005E+02  0.40796E-04
 0.97680008E+02  0.45646E-04
 0.97730011E+02  0.47735E-04
 0.97780006E+02  0.49844E-04
 0.97830009E+02  0.51502E-04
 0.97880005E+02  0.52727E-04
 0.97930008E+02  0.50530E-04
 0.97980011E+02  0.44857E-04
 0.98030006E+02  0.37196E-04
 0.98080009E+02  0.29201E-04
 0.98130005E+02  0.25010E-04
 0.98180008E+02  0.24679E-04
 0.98230011E+02  0.26403E-04
 0.98280006E+02  0.22840E-04
 0.98330009E+02  0.12483E-04
 0.98380005E+02  0.16706E-05
 0.98430008E+02 -0.13079E-04
 0.98480011E+02 -0.33514E-04
 0.98530006E+02 -0.54397E-04
 0.98580009E+02 -0.68482E-04
 0.98630005E+02 -0.75382E-04
 0.98680008E+02 -0.75843E-04
 0.98730011E+02 -0.67244E-04
 0.98780006E+02 -0.57193E-04
 0.98830009E+02 -0.50484E-04
 0.98880005E+02 -0.45154E-04
 0.98930008E+02 -0.40088E-04
 0.98980011E+02 -0.35704E-04
 0.99030006E+02 -0.30946E-04
 0.99080009E+02 -0.22939E-04
 0.99130005E+02 -0.11084E-04
 0.99180008E+02  0.47780E-05
 0.99230011E+02  0.20542E-04
 0.99280006E+02  0.32103E-04
 0.99330009E+02  0.38358E-04
 0.99380005E+02  0.39799E-04
 0.99430008E+02  0.38544E-04
 0.99480011E+02  0.37547E-04
 0.99530006E+02  0.37526E-04
 0.99580009E+02  0.36315E-04
 0.99630005E+02  0.36676E-04
 0.99680008E+02  0.39670E-04
 0.99730011E+02  0.44631E-04
 0.99780006E+02  0.47475E-04
 0.99830009E+02  0.42416E-04
 0.99880005E+02  0.33311E-04
 0.99930008E+02  0.24031E-04
 0.99980011E+02  0.16809E-04
 0.10003001E+03  0.94327E-05
 0.10008001E+03 -0.23733E-05
 0.10013000E+03 -0.14910E-04
 0.10018001E+03 -0.23596E-04
 0.10023001E+03 -0.27515E-04
 0.10028001E+03 -0.28319E-04
 0.10033001E+03 -0.28059E-04
 0.10038000E+03 -0.28443E-04
 0.10043001E+03 -0.29000E-04
 0.10048001E+03 -0.29017E-04
 0.10053001E+03 -0.29554E-04
 0.10058001E+03 -0.29921E-04
 0.10063000E+03 -0.29806E-04
 0.10068001E+03 -0.30710E-04
 0.10073001E+03 -0.33810E-04
 0.10078001E+03 -0.37390E-04
 0.10083001E+03 -0.37924E-04
 0.10088000E+03 -0.32588E-04
 0.10093001E+03 -0.22602E-04
 0.10098001E+03 -0.97388E-05
 0.10103001E+03  0.58915E-05
 0.10108001E+03  0.20714E-04
 0.10113000E+03  0.31835E-04
 0.10118001E+03  0.37356E-04
 0.10123001E+03  0.37189E-04
 0.10128001E+03  0.33566E-04
 0.10133001E+03  0.29400E-04
 0.10138000E+03  0.27241E-04
 0.10143001E+03  0.26136E-04
 0.10148001E+03  0.25227E-04
 0.10153001E+03  0.23613E-04
 0.10158001E+03  0.20432E-04
 0.10163000E+03  0.18204E-04
 0.10168001E+03  0.18707E-04
 0.10173001E+03  0.22601E-04
 0.10178001E+03  0.27547E-04
 0.10183001E+03  0.29695E-04
 0.10188000E+03  0.30640E-04
 0.10193001E+03  0.30339E-04
 0.10198001E+03  0.30736E-04
 0.10203001E+03  0.31125E-04
 0.10208001E+03  0.29258E-04
 0.10213000E+03  0.25540E-04
 0.10218001E+03  0.16897E-04
 0.10223001E+03  0.59723E-05
 0.10228001E+03 -0.82252E-05
 0.10233001E+03 -0.21010E-04
 0.10238000E+03 -0.29248E-04
 0.10243001E+03 -0.34335E-04
 0.10248001E+03 -0.32579E-04
 0.10253001E+03 -0.30829E-04
 0.10258001E+03 -0.27988E-04
 0.10263001E+03 -0.25469E-04
 0.10268001E+03 -0.25504E-04
 0.10273001E+03 -0.26115E-04
 0.10278001E+03 -0.30997E-04
 0.10283001E+03 -0.34736E-04
 0.10288001E+03 -0.36580E-04
 0.10293001E+03 -0.36820E-04
 0.10298001E+03 -0.35300E-04
 0.10303001E+03 -0.34396E-04
 0.10308001E+03 -0.32596E-04
 0.10313001E+03 -0.32380E-04
 0.10318001E+03 -0.31128E-04
 0.10323001E+03 -0.25428E-04
 0.10328001E+03 -0.17564E-04
 0.10333001E+03 -0.94767E-05
 0.10338001E+03 -0.20137E-05
 0.10343001E+03  0.75431E-05
 0.10348001E+03  0.18131E-04
 0.10353001E+03  0.28791E-04
 0.10358001E+03  0.36392E-04
 0.10363001E+03  0.36308E-04
 0.10368001E+03  0.33489E-04
 0.10373001E+03  0.30317E-04
 0.10378001E+03  0.28114E-04
 0.10383001E+03  0.29148E-04
 0.10388001E+03  0.30981E-04
 0.10393001E+03  0.31686E-04
 0.10398001E+03  0.29251E-04
 0.10403001E+03  0.23475E-04
 0.10408001E+03  0.19143E-04
 0.10413001E+03  0.17369E-04
 0.10418001E+03  0.15745E-04
 0.10423001E+03  0.11808E-04
 0.10428001E+03  0.32227E-05
 0.10433001E+03 -0.64195E-05
 0.10438001E+03 -0.16866E-04
 0.10443001E+03 -0.30760E-04
 0.10448001E+03 -0.43373E-04
 0.10453001E+03 -0.51538E-04
 0.10458001E+03 -0.54487E-04
 0.10463001E+03 -0.50464E-04
 0.10468001E+03 -0.41847E-04
 0.10473001E+03 -0.28829E-04
 0.10478001E+03 -0.10316E-04
 0.10483001E+03  0.94147E-05
 0.10488001E+03  0.25247E-04
 0.10493001E+03  0.37076E-04
 0.10498001E+03  0.46774E-04
 0.10503001E+03  0.52111E-04
 0.10508001E+03  0.52696E-04
 0.10513001E+03  0.47460E-04
 0.10518001E+03  0.36912E-04
 0.10523001E+03  0.24201E-04
 0.10528001E+03  0.10548E-04
 0.10533001E+03 -0.56994E-06
 0.10538001E+03 -0.10782E-04
 0.10543001E+03 -0.19357E-04
 0.10548001E+03 -0.24919E-04
 0.10553001E+03 -0.29580E-04
 0.10558001E+03 -0.31265E-04
 0.10563001E+03 -0.29164E-04
 0.10568001E+03 -0.23576E-04
 0.10573001E+03 -0.16734E-04
 0.10578001E+03 -0.74031E-05
 0.10583001E+03 -0.66676E-06
 0.10588001E+03 -0.23837E-05
 0.10593001E+03 -0.57506E-05
 0.10598001E+03 -0.10072E-04
 0.10603001E+03 -0.14966E-04
 0.10608001E+03 -0.15905E-04
 0.10613001E+03 -0.13039E-04
 0.10618001E+03 -0.85331E-05
 0.10623001E+03 -0.35192E-05
 0.10628001E+03  0.37833E-05
 0.10633001E+03  0.11529E-04
 0.10638001E+03  0.17582E-04
 0.10643001E+03  0.21950E-04
 0.10648001E+03  0.21566E-04
 0.10653001E+03  0.14586E-04
 0.10658001E+03  0.19844E-05
 0.10663001E+03 -0.10122E-04
 0.10668001E+03 -0.19752E-04
 0.10673001E+03 -0.26473E-04
 0.10678001E+03 -0.27968E-04
 0.10683001E+03 -0.24785E-04
 0.10688001E+03 -0.12028E-04
 0.10693001E+03  0.46567E-05
 0.10698001E+03  0.17474E-04
 0.10703001E+03  0.29967E-04
 0.10708001E+03  0.35694E-04
 0.10713001E+03  0.31938E-04
 0.10718001E+03  0.24819E-04
 0.10723001E+03  0.11939E-04
 0.10728001E+03 -0.30462E-05
 0.10733001E+03 -0.14605E-04
 0.10738001E+03 -0.21966E-04
 0.10743001E+03 -0.20397E-04
 0.10748001E+03 -0.12275E-04
 0.10753001E+03 -0.31866E-06
 0.10758001E+03  0.13083E-04
 0.10763001E+03  0.24539E-04
 0.10768001E+03  0.34916E-04
 0.10773001E+03  0.42435E-04
 0.10778001E+03  0.47768E-04
 0.10783001E+03  0.48242E-04
 0.10788001E+03  0.42993E-04
 0.10793001E+03  0.35845E-04
 0.10798001E+03  0.25599E-04
 0.10803001E+03  0.15095E-04
 0.10808001E+03  0.57656E-05
 0.10813001E+03 -0.19797E-05
 0.10818001E+03 -0.84634E-05
 0.10823001E+03 -0.16577E-04
 0.10828001E+03 -0.20560E-04
 0.10833001E+03 -0.22439E-04
 0.10838001E+03 -0.27464E-04
 0.10843001E+03 -0.30491E-04
 0.10848001E+03 -0.32398E-04
 0.10853001E+03 -0.35810E-04
 0.10858001E+03 -0.40639E-04
 0.10863001E+03 -0.46998E-04
 0.10868001E+03 -0.52615E-04
 0.10873001E+03 -0.56313E-04
 0.10878001E+03 -0.56316E-04
 0.10883001E+03 -0.49318E-04
 0.10888001E+03 -0.37761E-04
 0.10893001E+03 -0.27195E-04
 0.10898001E+03 -0.14578E-04
 0.10903001E+03  0.48551E-06
 0.10908001E+03  0.14204E-04
 0.10913001E+03  0.29271E-04
 0.10918001E+03  0.42830E-04
 0.10923001E+03  0.51879E-04
 0.10928001E+03  0.57040E-04
 0.10933001E+03  0.57094E-04
 0.10938001E+03  0.50808E-04
 0.10943001E+03  0.40287E-04
 0.10948001E+03  0.28893E-04
 0.10953001E+03  0.16386E-04
 0.10958001E+03  0.45080E-05
 0.10963001E+03 -0.85631E-05
 0.10968001E+03 -0.23013E-04
 0.10973001E+03 -0.36131E-04
 0.10978001E+03 -0.43449E-04
 0.10983001E+03 -0.44222E-04
 0.10988001E+03 -0.42172E-04
 0.10993001E+03 -0.36070E-04
 0.10998001E+03 -0.31790E-04
 0.11003001E+03 -0.28504E-04
 0.11008001E+03 -0.22168E-04
 0.11013001E+03 -0.15556E-04
 0.11018001E+03 -0.85239E-05
 0.11023001E+03 -0.34699E-06
 0.11028001E+03  0.91136E-05
 0.11033001E+03  0.16555E-04
 0.11038001E+03  0.21855E-04
 0.11043001E+03  0.24145E-04
 0.11048001E+03  0.23616E-04
 0.11053001E+03  0.19939E-04
 0.11058001E+03  0.13078E-04
 0.11063001E+03  0.80276E-05
 0.11068001E+03  0.33357E-05
 0.11073001E+03  0.15129E-05
 0.11078001E+03  0.19167E-05
 0.11083001E+03  0.19002E-05
 0.11088001E+03  0.19822E-05
 0.11093001E+03  0.12247E-05
 0.11098001E+03  0.23235E-05
 0.11103001E+03  0.50284E-05
 0.11108001E+03  0.10395E-04
 0.11113001E+03  0.16271E-04
 0.11118001E+03  0.21742E-04
 0.11123001E+03  0.29250E-04
 0.11128001E+03  0.37083E-04
 0.11133001E+03  0.44326E-04
 0.11138001E+03  0.47602E-04
 0.11143001E+03  0.47898E-04
 0.11148001E+03  0.46724E-04
 0.11153001E+03  0.41102E-04
 0.11158001E+03  0.32992E-04
 0.11163001E+03  0.24559E-04
 0.11168001E+03  0.17993E-04
 0.11173001E+03  0.13855E-04
 0.11178001E+03  0.93437E-05
 0.11183001E+03  0.23272E-05
 0.11188001E+03 -0.66976E-05
 0.11193001E+03 -0.16454E-04
 0.11198001E+03 -0.26590E-04
 0.11203001E+03 -0.37527E-04
 0.11208001E+03 -0.50590E-04
 0.11213001E+03 -0.62813E-04
 0.11218001E+03 -0.72453E-04
 0.11223001E+03 -0.79390E-04
 0.11228001E+03 -0.81808E-04
 0.11233001E+03 -0.78926E-04
 0.11238001E+03 -0.71091E-04
 0.11243001E+03 -0.60401E-04
 0.11248001E+03 -0.46694E-04
 0.11253001E+03 -0.30499E-04
 0.11258001E+03 -0.14157E-04
 0.11263001E+03  0.39155E-05
 0.11268001E+03  0.21472E-04
 0.11273001E+03  0.34012E-04
 0.11278001E+03  0.43832E-04
 0.11283001E+03  0.51902E-04
 0.11288001E+03  0.55230E-04
 0.11293001E+03  0.53711E-04
 0.11298001E+03  0.50099E-04
 0.11303001E+03  0.45532E-04
 0.11308001E+03  0.39906E-04
 0.11313001E+03  0.32102E-04
 0.11318001E+03  0.23436E-04
 0.11323001E+03  0.16751E-04
 0.11328001E+03  0.10456E-04
 0.11333001E+03  0.49459E-05
 0.11338001E+03  0.19696E-05
 0.11343001E+03 -0.36098E-06
 0.11348001E+03 -0.37839E-05
 0.11353001E+03 -0.65767E-05
 0.11358001E+03 -0.75972E-05
 0.11363001E+03 -0.57219E-05
 0.11368001E+03  0.39287E-07
 0.11373001E+03  0.66022E-05
 0.11378001E+03  0.12139E-04
 0.11383001E+03  0.14487E-04
 0.11388001E+03  0.14296E-04
 0.11393001E+03  0.13710E-04
 0.11398001E+03  0.10583E-04
 0.11403001E+03  0.53517E-05
 0.11408001E+03 -0.36467E-05
 0.11413001E+03 -0.17079E-04
 0.11418001E+03 -0.30956E-04
 0.11423001E+03 -0.44642E-04
 0.11428001E+03 -0.55297E-04
 0.11433001E+03 -0.61493E-04
 0.11438001E+03 -0.63707E-04
 0.11443001E+03 -0.58731E-04
 0.11448001E+03 -0.47854E-04
 0.11453001E+03 -0.33316E-04
 0.11458001E+03 -0.15685E-04
 0.11463001E+03  0.23787E-05
 0.11468001E+03  0.18649E-04
 0.11473001E+03  0.31463E-04
 0.11478001E+03  0.39454E-04
 0.11483001E+03  0.43471E-04
 0.11488001E+03  0.45220E-04
 0.11493001E+03  0.43611E-04
 0.11498001E+03  0.38513E-04
 0.11503001E+03  0.33303E-04
 0.11508001E+03  0.27600E-04
 0.11513001E+03  0.20745E-04
 0.11518001E+03  0.15225E-04
 0.11523001E+03  0.10637E-04
 0.11528001E+03  0.53492E-05
 0.11533001E+03 -0.20020E-05
 0.11538001E+03 -0.11125E-04
 0.11543001E+03 -0.19929E-04
 0.11548001E+03 -0.25364E-04
 0.11553001E+03 -0.26396E-04
 0.11558001E+03 -0.22562E-04
 0.11563001E+03 -0.14593E-04
 0.11568001E+03 -0.68342E-05
 0.11573001E+03 -0.55477E-06
 0.11578001E+03  0.36855E-05
 0.11583001E+03  0.62566E-05
 0.11588001E+03  0.74600E-05
 0.11593001E+03  0.72032E-05
 0.11598001E+03  0.73401E-05
 0.11603001E+03  0.82011E-05
 0.11608001E+03  0.86234E-05
 0.11613001E+03  0.86809E-05
 0.11618001E+03  0.83596E-05
 0.11623001E+03  0.55122E-05
 0.11628001E+03  0.80054E-06
 0.11633001E+03 -0.53813E-05
 0.11638001E+03 -0.12619E-04
 0.11643001E+03 -0.19587E-04
 0.11648001E+03 -0.25337E-04
 0.11653001E+03 -0.27544E-04
 0.11658001E+03 -0.25649E-04
 0.11663001E+03 -0.20859E-04
 0.11668001E+03 -0.15297E-04
 0.11673001E+03 -0.81893E-05
 0.11678001E+03 -0.11793E-05
 0.11683001E+03  0.25314E-05
 0.11688001E+03  0.37302E-05
 0.11693001E+03  0.25524E-05
 0.11698001E+03 -0.31246E-06
 0.11703001E+03 -0.51296E-05
 0.11708001E+03 -0.10622E-04
 0.11713001E+03 -0.15006E-04
 0.11718001E+03 -0.17333E-04
 0.11723001E+03 -0.17401E-04
 0.11728001E+03 -0.18004E-04
 0.11733001E+03 -0.18454E-04
 0.11738001E+03 -0.18402E-04
 0.11743001E+03 -0.18094E-04
 0.11748001E+03 -0.14712E-04
 0.11753001E+03 -0.70530E-05
 0.11758001E+03  0.42415E-05
 0.11763001E+03  0.18101E-04
 0.11768001E+03  0.33828E-04
 0.11773001E+03  0.49286E-04
 0.11778001E+03  0.62655E-04
 0.11783001E+03  0.73018E-04
 0.11788001E+03  0.78733E-04
 0.11793001E+03  0.79049E-04
 0.11798001E+03  0.73813E-04
 0.11803001E+03  0.64968E-04
 0.11808001E+03  0.54572E-04
 0.11813001E+03  0.44376E-04
 0.11818001E+03  0.35018E-04
 0.11823001E+03  0.25291E-04
 0.11828001E+03  0.14862E-04
 0.11833001E+03  0.38247E-05
 0.11838001E+03 -0.64815E-05
 0.11843001E+03 -0.15739E-04
 0.11848001E+03 -0.23814E-04
 0.11853001E+03 -0.30623E-04
 0.11858001E+03 -0.35599E-04
 0.11863001E+03 -0.38313E-04
 0.11868001E+03 -0.40610E-04
 0.11873001E+03 -0.42051E-04
 0.11878001E+03 -0.42094E-04
 0.11883001E+03 -0.41664E-04
 0.11888001E+03 -0.41702E-04
 0.11893001E+03 -0.42781E-04
 0.11898001E+03 -0.44441E-04
 0.11903001E+03 -0.45716E-04
 0.11908001E+03 -0.45731E-04
 0.11913001E+03 -0.43005E-04
 0.11918001E+03 -0.37764E-04
 0.11923001E+03 -0.32402E-04
 0.11928001E+03 -0.27827E-04
 0.11933001E+03 -0.24957E-04
 0.11938001E+03 -0.23229E-04
 0.11943001E+03 -0.21913E-04
 0.11948001E+03 -0.20172E-04
 0.11953001E+03 -0.17032E-04
 0.11958001E+03 -0.13626E-04
 0.11963001E+03 -0.87151E-05
 0.11968001E+03 -0.10524E-05
 0.11973001E+03  0.93620E-05
 0.11978001E+03  0.20950E-04
 0.11983001E+03  0.31325E-04
 0.11988001E+03  0.39577E-04
 0.11993001E+03  0.45051E-04
 0.11998001E+03  0.49117E-04
 0.12003001E+03  0.50723E-04
 0.12008001E+03  0.48563E-04
 0.12013001E+03  0.44219E-04
 0.12018001E+03  0.38108E-04
 0.12023001E+03  0.30987E-04
 0.12028001E+03  0.23512E-04
 0.12033001E+03  0.15967E-04
 0.12038001E+03  0.82593E-05
 0.12043001E+03  0.28063E-06
 0.12048001E+03 -0.66187E-05
 0.12053001E+03 -0.11034E-04
 0.12058001E+03 -0.13382E-04
 0.12063001E+03 -0.15556E-04
 0.12068001E+03 -0.17837E-04
 0.12073001E+03 -0.18695E-04
 0.12078001E+03 -0.18911E-04
 0.12083001E+03 -0.19929E-04
 0.12088001E+03 -0.20897E-04
 0.12093001E+03 -0.20264E-04
 0.12098001E+03 -0.17416E-04
 0.12103001E+03 -0.12520E-04
 0.12108001E+03 -0.44070E-05
 0.12113001E+03  0.56395E-05
 0.12118001E+03  0.14748E-04
 0.12123001E+03  0.21856E-04
 0.12128001E+03  0.26770E-04
 0.12133001E+03  0.29379E-04
 0.12138001E+03  0.28253E-04
 0.12143001E+03  0.25280E-04
 0.12148001E+03  0.22165E-04
 0.12153001E+03  0.16878E-04
 0.12158001E+03  0.96056E-05
 0.12163001E+03  0.17193E-05
 0.12168001E+03 -0.59018E-05
 0.12173001E+03 -0.11836E-04
 0.12178001E+03 -0.15178E-04
 0.12183001E+03 -0.16475E-04
 0.12188001E+03 -0.17028E-04
 0.12193001E+03 -0.17241E-04
 0.12198001E+03 -0.15817E-04
 0.12203001E+03 -0.12775E-04
 0.12208001E+03 -0.93464E-05
 0.12213001E+03 -0.55784E-05
 0.12218001E+03 -0.19823E-05
 0.12223001E+03  0.20301E-05
 0.12228001E+03  0.55367E-05
 0.12233001E+03  0.67455E-05
 0.12238001E+03  0.63069E-05
 0.12243001E+03  0.40788E-05
 0.12248001E+03  0.15233E-05
 0.12253001E+03 -0.17858E-05
 0.12258001E+03 -0.68569E-05
 0.12263001E+03 -0.11373E-04
 0.12268001E+03 -0.15425E-04
 0.12273001E+03 -0.18629E-04
 0.12278001E+03 -0.19536E-04
 0.12283001E+03 -0.17818E-04
 0.12288001E+03 -0.13899E-04
 0.12293001E+03 -0.88711E-05
 0.12298001E+03 -0.23951E-05
 0.12303001E+03  0.58280E-05
 0.12308001E+03  0.14376E-04
 0.12313001E+03  0.22821E-04
 0.12318001E+03  0.30143E-04
 0.12323001E+03  0.33830E-04
 0.12328001E+03  0.32889E-04
 0.12333001E+03  0.27114E-04
 0.12338001E+03  0.19239E-04
 0.12343001E+03  0.10543E-04
 0.12348001E+03  0.10010E-05
 0.12353001E+03 -0.80714E-05
 0.12358001E+03 -0.17760E-04
 0.12363001E+03 -0.25589E-04
 0.12368001E+03 -0.30027E-04
 0.12373001E+03 -0.31768E-04
 0.12378001E+03 -0.29334E-04
 0.12383001E+03 -0.24291E-04
 0.12388001E+03 -0.17942E-04
 0.12393001E+03 -0.94372E-05
 0.12398001E+03  0.18127E-05
 0.12403001E+03  0.13709E-04
 0.12408001E+03  0.23717E-04
 0.12413001E+03  0.32464E-04
 0.12418001E+03  0.39601E-04
 0.12423001E+03  0.44088E-04
 0.12428001E+03  0.44997E-04
 0.12433001E+03  0.42086E-04
 0.12438001E+03  0.35854E-04
 0.12443001E+03  0.27175E-04
 0.12448001E+03  0.16431E-04
 0.12453001E+03  0.42263E-05
 0.12458001E+03 -0.66007E-05
 0.12463001E+03 -0.15523E-04
 0.12468001E+03 -0.22907E-04
 0.12473001E+03 -0.30152E-04
 0.12478001E+03 -0.37274E-04
 0.12483001E+03 -0.43295E-04
 0.12488001E+03 -0.48830E-04
 0.12493001E+03 -0.50941E-04
 0.12498001E+03 -0.49518E-04
 0.12503001E+03 -0.45175E-04
 0.12508001E+03 -0.36502E-04
 0.12513001E+03 -0.24989E-04
 0.12518001E+03 -0.12390E-04
 0.12523001E+03 -0.35333E-06
 0.12528001E+03  0.92441E-05
 0.12533001E+03  0.15406E-04
 0.12538001E+03  0.20075E-04
 0.12543001E+03  0.24552E-04
 0.12548001E+03  0.28724E-04
 0.12553001E+03  0.33166E-04
 0.12558001E+03  0.37281E-04
 0.12563001E+03  0.40125E-04
 0.12568001E+03  0.40000E-04
 0.12573001E+03  0.36991E-04
 0.12578001E+03  0.32450E-04
 0.12583001E+03  0.26896E-04
 0.12588001E+03  0.20637E-04
 0.12593001E+03  0.13456E-04
 0.12598001E+03  0.70017E-05
 0.12603001E+03  0.18252E-05
 0.12608001E+03 -0.27946E-05
 0.12613001E+03 -0.72717E-05
 0.12618001E+03 -0.13412E-04
 0.12623001E+03 -0.20203E-04
 0.12628001E+03 -0.25358E-04
 0.12633001E+03 -0.27577E-04
 0.12638001E+03 -0.25891E-04
 0.12643001E+03 -0.22421E-04
 0.12648001E+03 -0.19244E-04
 0.12653001E+03 -0.16795E-04
 0.12658001E+03 -0.15529E-04
 0.12663001E+03 -0.15286E-04
 0.12668001E+03 -0.16076E-04
 0.12673001E+03 -0.17595E-04
 0.12678001E+03 -0.17316E-04
 0.12683001E+03 -0.15529E-04
 0.12688001E+03 -0.13925E-04
 0.12693001E+03 -0.96536E-05
 0.12698001E+03 -0.36752E-05
 0.12703001E+03  0.20377E-05
 0.12708001E+03  0.74712E-05
 0.12713001E+03  0.11320E-04
 0.12718001E+03  0.13697E-04
 0.12723001E+03  0.13728E-04
 0.12728001E+03  0.11285E-04
 0.12733001E+03  0.60984E-05
 0.12738001E+03 -0.16561E-05
 0.12743001E+03 -0.10494E-04
 0.12748001E+03 -0.20413E-04
 0.12753001E+03 -0.29477E-04
 0.12758001E+03 -0.35807E-04
 0.12763001E+03 -0.39025E-04
 0.12768001E+03 -0.37917E-04
 0.12773001E+03 -0.33246E-04
 0.12778001E+03 -0.26110E-04
 0.12783001E+03 -0.17330E-04
 0.12788001E+03 -0.71860E-05
 0.12793001E+03  0.47993E-05
 0.12798001E+03  0.16358E-04
 0.12803001E+03  0.26091E-04
 0.12808000E+03  0.33668E-04
 0.12813000E+03  0.39243E-04
 0.12818001E+03  0.44365E-04
 0.12823001E+03  0.47988E-04
 0.12828001E+03  0.49412E-04
 0.12833000E+03  0.49922E-04
 0.12838000E+03  0.49040E-04
 0.12843001E+03  0.46778E-04
 0.12848001E+03  0.41509E-04
 0.12853001E+03  0.33309E-04
 0.12858000E+03  0.23525E-04
 0.12863000E+03  0.11730E-04
 0.12868001E+03  0.13698E-05
 0.12873001E+03 -0.79011E-05
 0.12878001E+03 -0.15186E-04
 0.12883000E+03 -0.19714E-04
 0.12888000E+03 -0.23961E-04
 0.12893001E+03 -0.25873E-04
 0.12898001E+03 -0.25043E-04
 0.12903001E+03 -0.21000E-04
 0.12908000E+03 -0.15186E-04
 0.12913000E+03 -0.87544E-05
 0.12918001E+03 -0.80853E-06
 0.12923001E+03  0.62621E-05
 0.12928001E+03  0.10880E-04
 0.12933000E+03  0.13014E-04
 0.12938000E+03  0.13407E-04
 0.12943001E+03  0.12398E-04
 0.12948001E+03  0.11042E-04
 0.12953001E+03  0.10203E-04
 0.12958000E+03  0.79688E-05
 0.12963000E+03  0.33140E-05
 0.12968001E+03 -0.34749E-05
 0.12973001E+03 -0.11687E-04
 0.12978001E+03 -0.18870E-04
 0.12983000E+03 -0.23424E-04
 0.12988000E+03 -0.25359E-04
 0.12993001E+03 -0.23557E-04
 0.12998001E+03 -0.18659E-04
 0.13003001E+03 -0.11958E-04
 0.13008000E+03 -0.37562E-05
 0.13013000E+03  0.44706E-05
 0.13018001E+03  0.11341E-04
 0.13023001E+03  0.15706E-04
 0.13028001E+03  0.18952E-04
 0.13033000E+03  0.21898E-04
 0.13038000E+03  0.23743E-04
 0.13043001E+03  0.24303E-04
 0.13048001E+03  0.22077E-04
 0.13053001E+03  0.17023E-04
 0.13058000E+03  0.96203E-05
 0.13063000E+03  0.19301E-05
 0.13068001E+03 -0.46478E-05
 0.13073001E+03 -0.11397E-04
 0.13078001E+03 -0.16627E-04
 0.13083000E+03 -0.20164E-04
 0.13088000E+03 -0.22946E-04
 0.13093001E+03 -0.23977E-04
 0.13098001E+03 -0.23435E-04
 0.13103001E+03 -0.22270E-04
 0.13108000E+03 -0.21782E-04
 0.13113000E+03 -0.21695E-04
 0.13118001E+03 -0.21164E-04
 0.13123001E+03 -0.19621E-04
 0.13128001E+03 -0.16778E-04
 0.13133000E+03 -0.13885E-04
 0.13138000E+03 -0.11173E-04
 0.13143001E+03 -0.85067E-05
 0.13148001E+03 -0.62001E-05
 0.13153001E+03 -0.45029E-05
 0.13158000E+03 -0.24999E-05
 0.13163000E+03  0.72471E-06
 0.13168001E+03  0.44690E-05
 0.13173001E+03  0.95331E-05
 0.13178001E+03  0.15918E-04
 0.13183000E+03  0.22153E-04
 0.13188000E+03  0.28086E-04
 0.13193001E+03  0.32568E-04
 0.13198001E+03  0.33899E-04
 0.13203001E+03  0.31831E-04
 0.13208000E+03  0.27357E-04
 0.13213000E+03  0.22473E-04
 0.13218001E+03  0.18260E-04
 0.13223001E+03  0.14855E-04
 0.13228001E+03  0.10262E-04
 0.13233000E+03  0.25641E-05
 0.13238000E+03 -0.63667E-05
 0.13243001E+03 -0.15698E-04
 0.13248001E+03 -0.25660E-04
 0.13253001E+03 -0.34816E-04
 0.13258000E+03 -0.41874E-04
 0.13263000E+03 -0.45741E-04
 0.13268001E+03 -0.45037E-04
 0.13273001E+03 -0.39336E-04
 0.13278001E+03 -0.29655E-04
 0.13283000E+03 -0.18069E-04
 0.13288000E+03 -0.64670E-05
 0.13293001E+03  0.39448E-05
 0.13298001E+03  0.12182E-04
 0.13303001E+03  0.17884E-04
 0.13308000E+03  0.21215E-04
 0.13313000E+03  0.22239E-04
 0.13318001E+03  0.20996E-04
 0.13323001E+03  0.18619E-04
 0.13328001E+03  0.15112E-04
 0.13333000E+03  0.11027E-04
 0.13338000E+03  0.71286E-05
 0.13343001E+03  0.19959E-05
 0.13348001E+03 -0.34279E-05
 0.13353001E+03 -0.95119E-05
 0.13358000E+03 -0.16100E-04
 0.13363000E+03 -0.20418E-04
 0.13368001E+03 -0.23180E-04
 0.13373001E+03 -0.24155E-04
 0.13378001E+03 -0.23212E-04
 0.13383000E+03 -0.20997E-04
 0.13388000E+03 -0.17618E-04
 0.13393001E+03 -0.14883E-04
 0.13398001E+03 -0.11074E-04
 0.13403001E+03 -0.55601E-05
 0.13408000E+03  0.28756E-06
 0.13413000E+03  0.71978E-05
 0.13418001E+03  0.14709E-04
 0.13423001E+03  0.21466E-04
 0.13428001E+03  0.25725E-04
 0.13433000E+03  0.27527E-04
 0.13438000E+03  0.27365E-04
 0.13443001E+03  0.25778E-04
 0.13448001E+03  0.22828E-04
 0.13453001E+03  0.18590E-04
 0.13458000E+03  0.14520E-04
 0.13463000E+03  0.10543E-04
 0.13468001E+03  0.74722E-05
 0.13473001E+03  0.54940E-05
 0.13478001E+03  0.43404E-05
 0.13483000E+03  0.43916E-05
 0.13488000E+03  0.51375E-05
 0.13493001E+03  0.66999E-05
 0.13498001E+03  0.89704E-05
 0.13503001E+03  0.12154E-04
 0.13508000E+03  0.16130E-04
 0.13513000E+03  0.19291E-04
 0.13518001E+03  0.20948E-04
 0.13523001E+03  0.20685E-04
 0.13528001E+03  0.17748E-04
 0.13533000E+03  0.12961E-04
 0.13538000E+03  0.72884E-05
 0.13543001E+03  0.15794E-05
 0.13548001E+03 -0.28883E-05
 0.13553001E+03 -0.51629E-05
 0.13558000E+03 -0.53804E-05
 0.13563000E+03 -0.45012E-05
 0.13568001E+03 -0.32261E-05
 0.13573001E+03 -0.28337E-05
 0.13578001E+03 -0.34972E-05
 0.13583000E+03 -0.37755E-05
 0.13588000E+03 -0.39769E-05
 0.13593001E+03 -0.48762E-05
 0.13598001E+03 -0.63348E-05
 0.13603001E+03 -0.75692E-05
 0.13608000E+03 -0.87243E-05
 0.13613000E+03 -0.11100E-04
 0.13618001E+03 -0.13718E-04
 0.13623001E+03 -0.16940E-04
 0.13628001E+03 -0.20618E-04
 0.13633000E+03 -0.23096E-04
 0.13638000E+03 -0.25205E-04
 0.13643001E+03 -0.25937E-04
 0.13648001E+03 -0.24672E-04
 0.13653001E+03 -0.23279E-04
 0.13658000E+03 -0.22141E-04
 0.13663000E+03 -0.20182E-04
 0.13668001E+03 -0.16329E-04
 0.13673001E+03 -0.10842E-04
 0.13678001E+03 -0.47137E-05
 0.13683000E+03  0.21503E-05
 0.13688000E+03  0.91282E-05
 0.13693001E+03  0.14420E-04
 0.13698001E+03  0.17726E-04
 0.13703001E+03  0.18958E-04
 0.13708000E+03  0.18432E-04
 0.13713000E+03  0.16950E-04
 0.13718001E+03  0.15345E-04
 0.13723001E+03  0.14866E-04
 0.13728001E+03  0.13801E-04
 0.13733000E+03  0.11946E-04
 0.13738000E+03  0.99364E-05
 0.13743001E+03  0.71427E-05
 0.13748001E+03  0.36117E-05
 0.13753001E+03  0.17713E-05
 0.13758000E+03  0.13427E-05
 0.13763000E+03  0.25386E-06
 0.13768001E+03  0.34052E-06
 0.13773001E+03 -0.41678E-05
 0.13778001E+03 -0.84969E-05
 0.13783000E+03 -0.12621E-04
 0.13788000E+03 -0.17185E-04
 0.13793001E+03 -0.17158E-04
 0.13798001E+03 -0.22578E-04
 0.13803001E+03 -0.24403E-04
 0.13808000E+03 -0.26417E-04
 0.13813000E+03 -0.28735E-04
 0.13818001E+03 -0.25955E-04
 0.13823001E+03 -0.26972E-04
 0.13828001E+03 -0.22659E-04
 0.13833000E+03 -0.18722E-04
 0.13838000E+03 -0.12873E-04
 0.13843001E+03 -0.20202E-05
 0.13848001E+03  0.45525E-05
 0.13853001E+03  0.12501E-04
 0.13858000E+03  0.20091E-04
 0.13863000E+03  0.26046E-04
 0.13868001E+03  0.32858E-04
 0.13873001E+03  0.36077E-04
 0.13878001E+03  0.38458E-04
 0.13883000E+03  0.41650E-04
 0.13888000E+03  0.40614E-04
 0.13893001E+03  0.37931E-04
 0.13898001E+03  0.33714E-04
 0.13903001E+03  0.26528E-04
 0.13908000E+03  0.18515E-04
 0.13913000E+03  0.69012E-05
 0.13918001E+03 -0.51832E-05
 0.13923001E+03 -0.14590E-04
 0.13928001E+03 -0.24030E-04
 0.13933000E+03 -0.30212E-04
 0.13938000E+03 -0.30840E-04
 0.13943001E+03 -0.29631E-04
 0.13948001E+03 -0.27756E-04
 0.13953001E+03 -0.23629E-04
 0.13958000E+03 -0.19312E-04
 0.13963000E+03 -0.13424E-04
 0.13968001E+03 -0.83455E-05
 0.13973001E+03 -0.50324E-05
 0.13978001E+03 -0.14979E-05
 0.13983000E+03  0.33303E-06
 0.13988000E+03  0.42322E-05
 0.13993001E+03  0.74777E-05
 0.13998001E+03  0.11732E-04
 0.14003001E+03  0.14838E-04
 0.14008000E+03  0.14550E-04
 0.14013000E+03  0.17142E-04
 0.14018001E+03  0.18533E-04
 0.14023001E+03  0.18230E-04
 0.14028001E+03  0.16325E-04
 0.14033000E+03  0.14560E-04
 0.14038000E+03  0.12473E-04
 0.14043001E+03  0.77097E-05
 0.14048001E+03  0.36182E-05
 0.14053001E+03  0.12386E-05
 0.14058000E+03 -0.16173E-05
 0.14063000E+03 -0.49210E-05
 0.14068001E+03 -0.50908E-05
 0.14073001E+03 -0.44267E-05
 0.14078001E+03 -0.45286E-05
 0.14083000E+03 -0.40958E-05
 0.14088000E+03 -0.34474E-05
 0.14093001E+03 -0.33839E-05
 0.14098001E+03 -0.29536E-05
 0.14103001E+03 -0.42151E-05
 0.14108000E+03 -0.66746E-05
 0.14113000E+03 -0.77839E-05
 0.14118001E+03 -0.98823E-05
 0.14123001E+03 -0.11210E-04
 0.14128001E+03 -0.14880E-04
 0.14133000E+03 -0.17916E-04
 0.14138000E+03 -0.20178E-04
 0.14143001E+03 -0.26119E-04
 0.14148001E+03 -0.28025E-04
 0.14153001E+03 -0.31129E-04
 0.14158000E+03 -0.31801E-04
 0.14163000E+03 -0.26848E-04
 0.14168001E+03 -0.22266E-04
 0.14173001E+03 -0.12812E-04
 0.14178001E+03 -0.36660E-05
 0.14183000E+03  0.73112E-05
 0.14188000E+03  0.19680E-04
 0.14193001E+03  0.28828E-04
 0.14198001E+03  0.36761E-04
 0.14203001E+03  0.40311E-04
 0.14208000E+03  0.43060E-04
 0.14213000E+03  0.45154E-04
 0.14218001E+03  0.45290E-04
 0.14223001E+03  0.43683E-04
 0.14228001E+03  0.41365E-04
 0.14233000E+03  0.38195E-04
 0.14238000E+03  0.32924E-04
 0.14243001E+03  0.28605E-04
 0.14248001E+03  0.21575E-04
 0.14253001E+03  0.13517E-04
 0.14258000E+03  0.70172E-05
 0.14263000E+03 -0.92398E-06
 0.14268001E+03 -0.29937E-05
 0.14273001E+03 -0.53353E-05
 0.14278001E+03 -0.13305E-04
 0.14283000E+03 -0.19065E-04
 0.14288000E+03 -0.22267E-04
 0.14293001E+03 -0.22549E-04
 0.14298001E+03 -0.24880E-04
 0.14303001E+03 -0.24514E-04
 0.14308000E+03 -0.21217E-04
 0.14313000E+03 -0.19208E-04
 0.14318001E+03 -0.18937E-04
 0.14323001E+03 -0.18073E-04
 0.14328001E+03 -0.92168E-05
 0.14333000E+03 -0.61436E-05
 0.14338000E+03 -0.96332E-05
 0.14343001E+03 -0.82452E-05
 0.14348001E+03 -0.39087E-05
 0.14353001E+03 -0.68315E-05
 0.14358000E+03 -0.15105E-04
 0.14363000E+03 -0.14493E-04
 0.14368001E+03 -0.69566E-05
 0.14373001E+03 -0.48280E-05
 0.14378001E+03 -0.55763E-05
 0.14383000E+03  0.10908E-05
 0.14388000E+03  0.10141E-04
 0.14393001E+03  0.16731E-04
 0.14398001E+03  0.15476E-04
 0.14403001E+03  0.17234E-04
 0.14408000E+03  0.26011E-04
 0.14413000E+03  0.28645E-04
 0.14418001E+03  0.25986E-04
 0.14423001E+03  0.21708E-04
 0.14428001E+03  0.19538E-04
 0.14433000E+03  0.15513E-04
 0.14438000E+03  0.86672E-05
 0.14443001E+03 -0.30237E-05
 0.14448001E+03 -0.11643E-04
 0.14453001E+03 -0.17023E-04
 0.14458000E+03 -0.28370E-04
 0.14463000E+03 -0.35421E-04
 0.14468001E+03 -0.37656E-04
 0.14473001E+03 -0.39129E-04
 0.14478001E+03 -0.41054E-04
 0.14483000E+03 -0.40865E-04
 0.14488000E+03 -0.36726E-04
 0.14493001E+03 -0.30899E-04
 0.14498001E+03 -0.22573E-04
 0.14503001E+03 -0.12507E-04
 0.14508000E+03 -0.26591E-05
 0.14513000E+03  0.79166E-05
 0.14518001E+03  0.17525E-04
 0.14523001E+03  0.22587E-04
 0.14528001E+03  0.27777E-04
 0.14533000E+03  0.31994E-04
 0.14538000E+03  0.31461E-04
 0.14543001E+03  0.29487E-04
 0.14548001E+03  0.27212E-04
 0.14553001E+03  0.20549E-04
 0.14558000E+03  0.11304E-04
 0.14563000E+03  0.34308E-05
 0.14568001E+03 -0.34575E-05
 0.14573001E+03 -0.91477E-05
 0.14578001E+03 -0.14097E-04
 0.14583000E+03 -0.18055E-04
 0.14588000E+03 -0.21820E-04
 0.14593001E+03 -0.23007E-04
 0.14598001E+03 -0.24337E-04
 0.14603001E+03 -0.25147E-04
 0.14608000E+03 -0.22309E-04
 0.14613000E+03 -0.19614E-04
 0.14618001E+03 -0.17369E-04
 0.14623001E+03 -0.16411E-04
 0.14628001E+03 -0.12472E-04
 0.14633000E+03 -0.87930E-05
 0.14638000E+03 -0.89441E-05
 0.14643001E+03 -0.79516E-05
 0.14648001E+03 -0.60609E-05
 0.14653001E+03  0.60651E-06
 0.14658000E+03  0.83521E-05
 0.14663000E+03  0.14088E-04
 0.14668001E+03  0.21262E-04
 0.14673001E+03  0.26100E-04
 0.14678001E+03  0.29161E-04
 0.14683000E+03  0.28932E-04
 0.14688000E+03  0.25986E-04
 0.14693001E+03  0.23904E-04
 0.14698001E+03  0.19604E-04
 0.14703001E+03  0.14966E-04
 0.14708000E+03  0.12781E-04
 0.14713000E+03  0.13088E-04
 0.14718001E+03  0.12425E-04
 0.14723001E+03  0.10539E-04
 0.14728001E+03  0.10775E-04
 0.14733000E+03  0.10807E-04
 0.14738000E+03  0.10759E-04
 0.14743001E+03  0.11009E-04
 0.14748001E+03  0.12680E-04
 0.14753001E+03  0.15073E-04
 0.14758000E+03  0.16930E-04
 0.14763000E+03  0.17684E-04
 0.14768001E+03  0.17867E-04
 0.14773001E+03  0.18901E-04
 0.14778001E+03  0.19935E-04
 0.14783000E+03  0.21245E-04
 0.14788000E+03  0.21192E-04
 0.14793001E+03  0.20524E-04
 0.14798001E+03  0.15928E-04
 0.14803001E+03  0.97707E-05
 0.14808000E+03  0.38080E-05
 0.14813000E+03 -0.62201E-05
 0.14818001E+03 -0.16046E-04
 0.14823001E+03 -0.25181E-04
 0.14828001E+03 -0.33711E-04
 0.14833000E+03 -0.41828E-04
 0.14838000E+03 -0.48885E-04
 0.14843001E+03 -0.51221E-04
 0.14848001E+03 -0.48980E-04
 0.14853001E+03 -0.45174E-04
 0.14858000E+03 -0.40287E-04
 0.14863000E+03 -0.35715E-04
 0.14868001E+03 -0.31056E-04
 0.14873001E+03 -0.24419E-04
 0.14878001E+03 -0.18940E-04
 0.14883000E+03 -0.14334E-04
 0.14888000E+03 -0.10104E-04
 0.14893001E+03 -0.41806E-05
 0.14898001E+03  0.27303E-05
 0.14903001E+03  0.65668E-05
 0.14908000E+03  0.85368E-05
 0.14913000E+03  0.99601E-05
 0.14918001E+03  0.11059E-04
 0.14923001E+03  0.12888E-04
 0.14928001E+03  0.15472E-04
 0.14933000E+03  0.17981E-04
 0.14938000E+03  0.17642E-04
 0.14943001E+03  0.15238E-04
 0.14948001E+03  0.16200E-04
 0.14953001E+03  0.16161E-04
 0.14958000E+03  0.13862E-04
 0.14963000E+03  0.13494E-04
 0.14968001E+03  0.13256E-04
 0.14973001E+03  0.12444E-04
 0.14978001E+03  0.11879E-04
 0.14983000E+03  0.10870E-04
 0.14988000E+03  0.85713E-05
 0.14993001E+03  0.64241E-05
 0.14998001E+03  0.39902E-05
