-0.19999981E-01  0.22808E-05
 0.30000020E-01  0.29258E-04
 0.80000021E-01  0.14363E-04
 0.13000003E+00 -0.39247E-04
 0.18000002E+00 -0.16381E-04
 0.23000002E+00  0.33305E-05
 0.28000003E+00 -0.17872E-04
 0.33000001E+00  0.22197E-04
 0.38000003E+00  0.12534E-04
 0.43000004E+00 -0.58616E-05
 0.48000002E+00  0.94734E-04
 0.53000003E+00 -0.61013E-04
 0.58000004E+00 -0.64596E-04
 0.63000005E+00  0.48352E-04
 0.68000001E+00  0.87156E-05
 0.73000002E+00 -0.41656E-04
 0.78000003E+00 -0.55692E-04
 0.83000004E+00  0.53568E-04
 0.88000005E+00 -0.33622E-04
 0.93000001E+00  0.15755E-04
 0.98000002E+00  0.72273E-04
 0.10300001E+01  0.38494E-05
 0.10800000E+01 -0.49010E-05
 0.11300000E+01 -0.90331E-04
 0.11800001E+01  0.18827E-04
 0.12300000E+01  0.76131E-04
 0.12800001E+01  0.44067E-06
 0.13300000E+01 -0.10410E-03
 0.13800000E+01  0.21887E-04
 0.14300001E+01 -0.53951E-05
 0.14800000E+01 -0.46709E-04
 0.15300001E+01  0.13201E-03
 0.15800000E+01 -0.49381E-04
 0.16300000E+01 -0.31896E-05
 0.16800001E+01  0.47210E-04
 0.17300000E+01 -0.32450E-04
 0.17800001E+01 -0.21241E-04
 0.18300000E+01  0.63074E-05
 0.18800000E+01  0.38392E-04
 0.19300001E+01 -0.65364E-04
 0.19800000E+01 -0.11004E-04
 0.20300000E+01  0.39667E-04
 0.20800002E+01  0.46594E-04
 0.21300001E+01  0.15582E-04
 0.21800001E+01 -0.70848E-04
 0.22300000E+01 -0.25454E-04
 0.22800000E+01  0.69128E-04
 0.23300002E+01 -0.82078E-05
 0.23800001E+01 -0.25436E-04
 0.24300001E+01  0.98000E-04
 0.24800000E+01 -0.73207E-04
 0.25300000E+01 -0.76398E-04
 0.25800002E+01  0.86249E-04
 0.26300001E+01 -0.38346E-04
 0.26800001E+01 -0.21905E-04
 0.27300000E+01  0.18379E-04
 0.27800000E+01  0.14759E-04
 0.28300002E+01  0.20578E-04
 0.28800001E+01  0.37580E-04
 0.29300001E+01 -0.10496E-04
 0.29800000E+01 -0.38621E-04
 0.30300000E+01  0.26655E-04
 0.30800002E+01 -0.38083E-04
 0.31300001E+01  0.82014E-04
 0.31800001E+01 -0.11057E-03
 0.32300000E+01 -0.68508E-04
 0.32800000E+01  0.10201E-03
 0.33300002E+01 -0.48650E-04
 0.33800001E+01  0.50767E-04
 0.34300001E+01 -0.87280E-04
 0.34800000E+01  0.32655E-04
 0.35300000E+01  0.88299E-04
 0.35800002E+01  0.36681E-04
 0.36300001E+01 -0.18024E-04
 0.36800001E+01 -0.16172E-03
 0.37300000E+01  0.29594E-04
 0.37800000E+01 -0.31027E-04
 0.38300002E+01  0.76221E-04
 0.38800001E+01  0.12023E-03
 0.39300001E+01 -0.85723E-05
 0.39800000E+01  0.15837E-04
 0.40300002E+01 -0.16751E-03
 0.40799999E+01  0.36144E-04
 0.41300001E+01  0.46335E-04
 0.41800003E+01 -0.49467E-05
 0.42300000E+01  0.11552E-03
 0.42800002E+01 -0.16346E-03
 0.43299999E+01  0.13982E-04
 0.43800001E+01 -0.39180E-05
 0.44300003E+01 -0.33737E-04
 0.44800000E+01  0.87887E-04
 0.45300002E+01 -0.51958E-04
 0.45799999E+01  0.11622E-03
 0.46300001E+01 -0.37084E-04
 0.46800003E+01 -0.96984E-04
 0.47300000E+01  0.21621E-04
 0.47800002E+01 -0.14106E-04
 0.48299999E+01  0.23806E-04
 0.48800001E+01 -0.42613E-06
 0.49300003E+01  0.43759E-04
 0.49800000E+01 -0.60129E-04
 0.50300002E+01 -0.26794E-04
 0.50799999E+01  0.50835E-04
 0.51300001E+01 -0.20981E-04
 0.51800003E+01  0.93203E-04
 0.52300000E+01 -0.20129E-04
 0.52800002E+01 -0.12851E-04
 0.53299999E+01 -0.16479E-04
 0.53800001E+01 -0.92096E-04
 0.54300003E+01  0.96246E-04
 0.54800000E+01 -0.33449E-05
 0.55300002E+01  0.22589E-04
 0.55799999E+01 -0.16689E-04
 0.56300001E+01 -0.13940E-03
 0.56800003E+01  0.76095E-05
 0.57300000E+01  0.11807E-03
 0.57800002E+01  0.11974E-03
 0.58299999E+01 -0.21247E-04
 0.58800001E+01 -0.68927E-04
 0.59300003E+01 -0.97700E-04
 0.59800000E+01  0.35329E-04
 0.60300002E+01  0.67445E-04
 0.60799999E+01 -0.74068E-04
 0.61300001E+01  0.59372E-04
 0.61800003E+01  0.40116E-05
 0.62300000E+01 -0.84047E-04
 0.62800002E+01  0.77017E-04
 0.63299999E+01 -0.29198E-04
 0.63800001E+01 -0.73013E-05
 0.64300003E+01  0.63290E-04
 0.64800000E+01 -0.81192E-04
 0.65300002E+01 -0.69115E-05
 0.65799999E+01 -0.72160E-05
 0.66300001E+01  0.36072E-04
 0.66800003E+01 -0.30466E-04
 0.67300000E+01  0.22575E-04
 0.67800002E+01  0.69703E-04
 0.68299999E+01 -0.66093E-04
 0.68800001E+01  0.61046E-04
 0.69300003E+01 -0.52587E-04
 0.69800000E+01 -0.13243E-03
 0.70300002E+01  0.19131E-04
 0.70799999E+01  0.16330E-03
 0.71300001E+01  0.18798E-04
 0.71800003E+01 -0.53004E-04
 0.72300000E+01  0.20858E-04
 0.72800002E+01 -0.62158E-04
 0.73299999E+01  0.66804E-04
 0.73800001E+01  0.41552E-04
 0.74300003E+01 -0.15146E-03
 0.74800000E+01 -0.56620E-05
 0.75300002E+01  0.28610E-04
 0.75799999E+01  0.12291E-03
 0.76300001E+01  0.20550E-04
 0.76800003E+01 -0.12323E-03
 0.77300000E+01  0.89189E-04
 0.77800002E+01 -0.17161E-03
 0.78299999E+01  0.13940E-03
 0.78800001E+01  0.81432E-04
 0.79300003E+01 -0.13390E-03
 0.79800000E+01 -0.16884E-04
 0.80299997E+01  0.11022E-04
 0.80799999E+01  0.10078E-03
 0.81300001E+01 -0.19111E-03
 0.81800003E+01  0.31044E-03
 0.82300005E+01 -0.96077E-04
 0.82799997E+01 -0.28939E-03
 0.83299999E+01  0.24224E-03
 0.83800001E+01 -0.98463E-04
 0.84300003E+01  0.39759E-04
 0.84800005E+01  0.39407E-04
 0.85299997E+01 -0.92696E-04
 0.85799999E+01  0.76257E-04
 0.86300001E+01 -0.19242E-04
 0.86800003E+01  0.27383E-04
 0.87300005E+01 -0.53106E-04
 0.87799997E+01  0.37576E-04
 0.88299999E+01  0.62871E-04
 0.88800001E+01 -0.14980E-03
 0.89300003E+01  0.17725E-03
 0.89800005E+01 -0.25772E-03
 0.90299997E+01  0.14995E-03
 0.90799999E+01  0.56130E-04
 0.91300001E+01 -0.12607E-03
 0.91800003E+01  0.29325E-03
 0.92300005E+01 -0.24671E-03
 0.92799997E+01  0.18975E-03
 0.93299999E+01 -0.30105E-03
 0.93800001E+01  0.46318E-04
 0.94300003E+01  0.11242E-03
 0.94800005E+01 -0.13962E-03
 0.95299997E+01  0.31993E-03
 0.95799999E+01 -0.28590E-03
 0.96300001E+01  0.18234E-03
 0.96800003E+01 -0.87881E-04
 0.97300005E+01 -0.71323E-04
 0.97799997E+01  0.15022E-03
 0.98299999E+01 -0.18984E-03
 0.98800001E+01  0.99775E-04
 0.99300003E+01 -0.26553E-04
 0.99800005E+01 -0.97883E-06
 0.10030000E+02  0.58405E-04
 0.10080000E+02  0.22615E-05
 0.10130000E+02  0.31360E-04
 0.10180000E+02 -0.28620E-05
 0.10230000E+02 -0.76811E-04
 0.10280000E+02  0.50471E-05
 0.10330000E+02 -0.23070E-04
 0.10380000E+02  0.40962E-04
 0.10430000E+02  0.58219E-04
 0.10480000E+02 -0.13736E-04
 0.10530000E+02 -0.46849E-05
 0.10580000E+02 -0.93638E-04
 0.10630000E+02 -0.14455E-04
 0.10680000E+02  0.24433E-04
 0.10730000E+02  0.11083E-03
 0.10780000E+02  0.41690E-04
 0.10830000E+02 -0.33985E-04
 0.10880000E+02 -0.44347E-04
 0.10930000E+02 -0.75411E-04
 0.10980000E+02 -0.71994E-05
 0.11030000E+02  0.16608E-04
 0.11080000E+02  0.64119E-04
 0.11130000E+02  0.76382E-04
 0.11180000E+02 -0.18889E-04
 0.11230000E+02 -0.10645E-03
 0.11280000E+02 -0.96236E-04
 0.11330000E+02  0.37433E-04
 0.11380000E+02  0.12762E-03
 0.11430000E+02 -0.94694E-05
 0.11480000E+02 -0.16417E-04
 0.11530000E+02 -0.36343E-04
 0.11580000E+02 -0.16357E-04
 0.11630000E+02  0.79852E-04
 0.11680000E+02 -0.32743E-04
 0.11730000E+02 -0.38903E-04
 0.11780000E+02  0.61002E-04
 0.11830000E+02  0.79176E-06
 0.11880000E+02 -0.82657E-04
 0.11930000E+02  0.38347E-04
 0.11980000E+02 -0.10242E-04
 0.12030000E+02 -0.21929E-04
 0.12080000E+02  0.69338E-04
 0.12130000E+02 -0.30660E-04
 0.12180000E+02  0.13996E-04
 0.12230000E+02  0.98008E-05
 0.12280000E+02 -0.17927E-04
 0.12330000E+02 -0.17482E-04
 0.12380000E+02  0.25246E-04
 0.12430000E+02  0.13314E-04
 0.12480000E+02 -0.75619E-04
 0.12530000E+02  0.13321E-04
 0.12580000E+02  0.58706E-05
 0.12630000E+02 -0.25495E-04
 0.12680000E+02 -0.21179E-04
 0.12730000E+02  0.33656E-04
 0.12780001E+02  0.88506E-04
 0.12830000E+02  0.30766E-04
 0.12880000E+02 -0.46045E-04
 0.12930000E+02 -0.76664E-05
 0.12980000E+02 -0.12283E-04
 0.13030001E+02 -0.83275E-04
 0.13080000E+02  0.66286E-04
 0.13130000E+02  0.95180E-05
 0.13180000E+02 -0.38847E-04
 0.13230000E+02  0.35850E-04
 0.13280001E+02 -0.29180E-04
 0.13330000E+02  0.19130E-04
 0.13380000E+02  0.67230E-04
 0.13430000E+02 -0.19244E-04
 0.13480000E+02 -0.20928E-04
 0.13530001E+02 -0.18461E-04
 0.13580000E+02 -0.15396E-04
 0.13630000E+02  0.84806E-04
 0.13680000E+02 -0.64799E-04
 0.13730000E+02  0.30147E-05
 0.13780001E+02  0.35072E-04
 0.13830000E+02 -0.10761E-03
 0.13880000E+02  0.83740E-04
 0.13930000E+02  0.20035E-05
 0.13980000E+02 -0.48714E-04
 0.14030001E+02  0.66139E-05
 0.14080000E+02  0.58356E-04
 0.14130000E+02  0.75660E-04
 0.14180000E+02 -0.13943E-03
 0.14230000E+02 -0.55397E-04
 0.14280001E+02  0.36528E-04
 0.14330000E+02  0.19800E-04
 0.14380000E+02  0.24269E-04
 0.14430000E+02 -0.65254E-05
 0.14480000E+02  0.30210E-04
 0.14530001E+02  0.28434E-05
 0.14580000E+02  0.48486E-04
 0.14630000E+02 -0.47385E-04
 0.14680000E+02 -0.62162E-04
 0.14730000E+02  0.10497E-03
 0.14780001E+02 -0.36907E-04
 0.14830000E+02 -0.92818E-05
 0.14880000E+02 -0.57414E-05
 0.14930000E+02 -0.79490E-04
 0.14980000E+02  0.56808E-04
 0.15030001E+02  0.20275E-04
 0.15080000E+02  0.54908E-04
 0.15130000E+02  0.31670E-04
 0.15180000E+02 -0.82777E-04
 0.15230000E+02 -0.58124E-04
 0.15280001E+02 -0.30183E-04
 0.15330000E+02 -0.21030E-04
 0.15380000E+02  0.61145E-04
 0.15430000E+02  0.52975E-04
 0.15480000E+02 -0.33002E-04
 0.15530001E+02  0.56277E-04
 0.15580000E+02 -0.99907E-04
 0.15630000E+02 -0.35358E-04
 0.15680000E+02  0.46188E-04
 0.15730000E+02 -0.46991E-04
 0.15780001E+02  0.15445E-03
 0.15830000E+02  0.15673E-04
 0.15880000E+02 -0.87646E-04
 0.15930000E+02  0.45266E-04
 0.15980000E+02 -0.22358E-04
 0.16030001E+02 -0.95644E-04
 0.16080000E+02 -0.15578E-04
 0.16130001E+02  0.98581E-04
 0.16180000E+02  0.10419E-03
 0.16230000E+02 -0.14378E-04
 0.16280001E+02 -0.48225E-04
 0.16330000E+02 -0.39944E-04
 0.16380001E+02 -0.65000E-04
 0.16430000E+02  0.80933E-05
 0.16480000E+02  0.59918E-04
 0.16530001E+02 -0.25446E-04
 0.16580000E+02  0.37504E-04
 0.16630001E+02  0.54344E-04
 0.16680000E+02 -0.79124E-04
 0.16730000E+02  0.95166E-05
 0.16780001E+02 -0.23937E-04
 0.16830000E+02  0.13003E-05
 0.16880001E+02  0.43497E-04
 0.16930000E+02  0.73733E-05
 0.16980000E+02  0.48901E-04
 0.17030001E+02 -0.90681E-04
 0.17080000E+02 -0.60995E-04
 0.17130001E+02  0.43156E-04
 0.17180000E+02  0.37467E-04
 0.17230000E+02  0.84239E-05
 0.17280001E+02 -0.34181E-05
 0.17330000E+02  0.28435E-04
 0.17380001E+02 -0.63478E-04
 0.17430000E+02 -0.25924E-04
 0.17480000E+02  0.26360E-04
 0.17530001E+02 -0.31764E-04
 0.17580000E+02  0.58491E-04
 0.17630001E+02  0.72504E-04
 0.17680000E+02 -0.10141E-04
 0.17730000E+02 -0.45542E-04
 0.17780001E+02 -0.72050E-04
 0.17830000E+02  0.67976E-06
 0.17880001E+02  0.62193E-04
 0.17930000E+02 -0.17139E-04
 0.17980000E+02 -0.13542E-05
 0.18030001E+02  0.23801E-04
 0.18080000E+02 -0.30996E-04
 0.18130001E+02  0.90993E-05
 0.18180000E+02 -0.12551E-04
 0.18230000E+02 -0.19832E-04
 0.18280001E+02  0.14399E-04
 0.18330000E+02 -0.18899E-04
 0.18380001E+02  0.50801E-04
 0.18430000E+02 -0.31693E-04
 0.18480000E+02 -0.11170E-04
 0.18530001E+02  0.15585E-03
 0.18580000E+02 -0.16553E-03
 0.18630001E+02  0.46438E-04
 0.18680000E+02  0.22902E-03
 0.18730000E+02 -0.19832E-03
 0.18780001E+02  0.84500E-04
 0.18830000E+02 -0.16434E-03
 0.18880001E+02  0.47416E-04
 0.18930000E+02  0.33425E-03
 0.18980000E+02 -0.55326E-03
 0.19030001E+02  0.92167E-03
 0.19080000E+02 -0.36094E-03
 0.19130001E+02 -0.15097E-03
 0.19180000E+02  0.51440E-03
 0.19230000E+02 -0.18069E-02
 0.19280001E+02  0.23114E-02
 0.19330000E+02 -0.19652E-02
 0.19380001E+02  0.16927E-03
 0.19430000E+02  0.10340E-02
 0.19480000E+02 -0.34582E-02
 0.19530001E+02  0.39556E-02
 0.19580000E+02 -0.23109E-02
 0.19630001E+02  0.12595E-02
 0.19680000E+02  0.13011E-02
 0.19730000E+02 -0.19871E-02
 0.19780001E+02  0.29488E-02
 0.19830000E+02 -0.35426E-02
 0.19880001E+02  0.93186E-03
 0.19930000E+02  0.72345E-03
 0.19980000E+02 -0.16713E-02
 0.20030001E+02  0.14095E-02
 0.20080000E+02  0.81924E-03
 0.20130001E+02 -0.14186E-03
 0.20180000E+02  0.74916E-03
 0.20230000E+02  0.19717E-03
 0.20280001E+02 -0.13012E-02
 0.20330000E+02  0.88099E-03
 0.20380001E+02 -0.19966E-02
 0.20430000E+02  0.17464E-02
 0.20480000E+02  0.93205E-04
 0.20530001E+02 -0.49236E-02
 0.20580000E+02  0.35511E-02
 0.20630001E+02  0.11725E-02
 0.20680000E+02  0.78948E-03
 0.20730000E+02  0.56249E-03
 0.20780001E+02 -0.58708E-03
 0.20830000E+02  0.19891E-02
 0.20880001E+02 -0.30100E-02
 0.20930000E+02  0.66079E-03
 0.20980000E+02 -0.36098E-02
 0.21030001E+02 -0.15109E-02
 0.21080000E+02 -0.40913E-02
 0.21130001E+02 -0.92200E-03
 0.21180000E+02  0.44939E-02
 0.21230000E+02 -0.30935E-02
 0.21280001E+02  0.10706E-01
 0.21330000E+02  0.15195E-02
 0.21380001E+02 -0.18957E-02
 0.21430000E+02  0.18078E-02
 0.21480000E+02 -0.20824E-02
 0.21530001E+02 -0.22911E-02
 0.21580000E+02 -0.10806E-02
 0.21630001E+02 -0.41142E-03
 0.21680000E+02  0.58056E-03
 0.21730000E+02  0.44215E-02
 0.21780001E+02 -0.25249E-02
 0.21830000E+02  0.79594E-02
 0.21880001E+02 -0.83143E-02
 0.21930000E+02 -0.25618E-03
 0.21980000E+02  0.36715E-02
 0.22030001E+02 -0.99265E-02
 0.22080000E+02  0.72074E-02
 0.22130001E+02 -0.15267E-01
 0.22180000E+02  0.98335E-02
 0.22230000E+02  0.16625E-02
 0.22280001E+02 -0.42189E-02
 0.22330000E+02  0.20099E-01
 0.22380001E+02 -0.16307E-01
 0.22430000E+02  0.10302E-01
 0.22480000E+02 -0.33085E-02
 0.22530001E+02 -0.28533E-02
 0.22580000E+02  0.77484E-02
 0.22630001E+02 -0.14067E-01
 0.22680000E+02  0.14814E-01
 0.22730000E+02 -0.84665E-02
 0.22780001E+02 -0.82607E-02
 0.22830000E+02 -0.16973E-02
 0.22880001E+02  0.64322E-03
 0.22930000E+02  0.50343E-02
 0.22980000E+02 -0.98723E-03
 0.23030001E+02  0.81696E-03
 0.23080000E+02 -0.29341E-02
 0.23130001E+02  0.66832E-02
 0.23180000E+02 -0.13006E-01
 0.23230000E+02  0.87917E-02
 0.23280001E+02  0.64728E-02
 0.23330000E+02 -0.33298E-02
 0.23380001E+02  0.15115E-01
 0.23430000E+02 -0.68071E-02
 0.23480000E+02  0.96571E-03
 0.23530001E+02 -0.65036E-02
 0.23580000E+02 -0.45132E-02
 0.23630001E+02  0.94653E-02
 0.23680000E+02 -0.39832E-02
 0.23730000E+02 -0.19636E-02
 0.23780001E+02 -0.70356E-02
 0.23830000E+02 -0.29614E-02
 0.23880001E+02 -0.11104E-02
 0.23930000E+02 -0.46541E-02
 0.23980000E+02  0.72508E-02
 0.24030001E+02  0.54448E-03
 0.24080000E+02  0.41518E-02
 0.24130001E+02  0.54696E-02
 0.24180000E+02 -0.71131E-03
 0.24230000E+02  0.40166E-02
 0.24280001E+02 -0.47797E-03
 0.24330000E+02  0.28914E-02
 0.24380001E+02  0.39770E-02
 0.24430000E+02  0.16937E-02
 0.24480000E+02 -0.93139E-02
 0.24530001E+02 -0.12934E-01
 0.24580000E+02 -0.44024E-02
 0.24630001E+02  0.70842E-02
 0.24680000E+02  0.63515E-02
 0.24730000E+02 -0.41514E-02
 0.24780001E+02  0.76515E-03
 0.24830000E+02 -0.43433E-02
 0.24880001E+02  0.59922E-02
 0.24930000E+02  0.59875E-02
 0.24980000E+02  0.34030E-02
 0.25030001E+02  0.13583E-02
 0.25080000E+02  0.40230E-02
 0.25130001E+02  0.69571E-02
 0.25180000E+02 -0.16589E-01
 0.25230000E+02 -0.33157E-02
 0.25280001E+02 -0.15009E-01
 0.25330000E+02 -0.49021E-02
 0.25380001E+02  0.13407E-01
 0.25430000E+02 -0.10572E-01
 0.25480000E+02  0.69142E-02
 0.25530001E+02 -0.84654E-02
 0.25580000E+02 -0.30076E-02
 0.25630001E+02  0.17594E-01
 0.25680000E+02 -0.29621E-02
 0.25730000E+02  0.12866E-01
 0.25780001E+02 -0.29723E-04
 0.25830000E+02  0.12696E-02
 0.25880001E+02  0.34857E-02
 0.25930000E+02 -0.93278E-02
 0.25980000E+02  0.73676E-02
 0.26030001E+02 -0.11225E-01
 0.26080000E+02 -0.42595E-02
 0.26130001E+02  0.68474E-02
 0.26180000E+02  0.35380E-02
 0.26230000E+02 -0.76341E-02
 0.26280001E+02 -0.60699E-02
 0.26330000E+02  0.75702E-02
 0.26380001E+02  0.33483E-02
 0.26430000E+02  0.28245E-02
 0.26480000E+02 -0.99080E-02
 0.26530001E+02  0.14885E-01
 0.26580000E+02 -0.22428E-02
 0.26630001E+02 -0.13312E-01
 0.26680000E+02  0.15565E-01
 0.26730000E+02 -0.18898E-01
 0.26780001E+02  0.72972E-02
 0.26830000E+02  0.64284E-02
 0.26880001E+02 -0.82551E-02
 0.26930000E+02  0.16506E-01
 0.26980000E+02 -0.21963E-01
 0.27030001E+02  0.34075E-02
 0.27080000E+02  0.24002E-02
 0.27130001E+02 -0.85229E-02
 0.27180000E+02  0.19992E-01
 0.27230000E+02 -0.23298E-01
 0.27280001E+02 -0.78010E-02
 0.27330000E+02  0.95731E-02
 0.27380001E+02  0.58996E-03
 0.27430000E+02  0.33544E-01
 0.27480000E+02  0.83678E-02
 0.27530001E+02 -0.15635E-01
 0.27580000E+02 -0.80523E-03
 0.27630001E+02  0.97866E-03
 0.27680000E+02 -0.12898E-01
 0.27730000E+02 -0.16278E-01
 0.27780001E+02  0.93773E-02
 0.27830000E+02  0.42233E-02
 0.27880001E+02 -0.73884E-02
 0.27930000E+02  0.50254E-02
 0.27980000E+02  0.75908E-04
 0.28030001E+02 -0.54829E-02
 0.28080000E+02  0.68761E-03
 0.28130001E+02 -0.42334E-02
 0.28180000E+02  0.98323E-02
 0.28230000E+02  0.20544E-01
 0.28280001E+02 -0.61468E-02
 0.28330000E+02  0.48753E-02
 0.28380001E+02  0.11161E-01
 0.28430000E+02 -0.23980E-01
 0.28480000E+02 -0.72222E-02
 0.28530001E+02  0.15930E-02
 0.28580000E+02  0.59901E-02
 0.28630001E+02  0.15251E-01
 0.28680000E+02 -0.10874E-01
 0.28730000E+02 -0.13406E-01
 0.28780001E+02 -0.13949E-01
 0.28830000E+02  0.44660E-02
 0.28880001E+02 -0.11524E-02
 0.28930000E+02 -0.58943E-02
 0.28980000E+02  0.87518E-02
 0.29030001E+02  0.21607E-02
 0.29080000E+02  0.22398E-01
 0.29130001E+02  0.72069E-02
 0.29180000E+02 -0.30010E-02
 0.29230000E+02  0.51349E-02
 0.29280001E+02 -0.11946E-01
 0.29330000E+02 -0.89228E-02
 0.29380001E+02 -0.15282E-01
 0.29430000E+02 -0.12534E-01
 0.29480000E+02  0.20705E-01
 0.29530001E+02  0.75851E-02
 0.29580000E+02 -0.13032E-01
 0.29630001E+02  0.46527E-02
 0.29680000E+02 -0.52364E-03
 0.29730000E+02  0.70346E-02
 0.29780001E+02  0.11114E-01
 0.29830000E+02 -0.85031E-02
 0.29880001E+02  0.14618E-01
 0.29930000E+02  0.14009E-01
 0.29980000E+02 -0.18992E-01
 0.30030001E+02 -0.13929E-01
 0.30080000E+02 -0.46155E-02
 0.30130001E+02  0.16374E-01
 0.30180000E+02  0.28705E-03
 0.30230000E+02 -0.17362E-01
 0.30280001E+02  0.15575E-01
 0.30330000E+02 -0.65131E-03
 0.30380001E+02  0.86573E-02
 0.30430000E+02  0.80001E-02
 0.30480000E+02 -0.13309E-01
 0.30530001E+02 -0.13135E-02
 0.30580000E+02 -0.22650E-02
 0.30630001E+02 -0.17292E-01
 0.30680000E+02 -0.46367E-02
 0.30730000E+02  0.17801E-01
 0.30780001E+02 -0.26149E-01
 0.30830000E+02 -0.14684E-01
 0.30880001E+02  0.92329E-02
 0.30930000E+02  0.19879E-01
 0.30980000E+02  0.11956E-01
 0.31030001E+02 -0.16585E-01
 0.31080000E+02  0.14670E-01
 0.31130001E+02  0.18073E-02
 0.31180000E+02  0.75334E-02
 0.31230000E+02  0.26503E-02
 0.31280001E+02 -0.12442E-01
 0.31330000E+02  0.34780E-03
 0.31380001E+02 -0.24741E-01
 0.31430000E+02  0.43438E-02
 0.31480000E+02  0.30656E-01
 0.31530001E+02  0.25961E-02
 0.31580000E+02 -0.96862E-02
 0.31630001E+02  0.86603E-02
 0.31680000E+02  0.51569E-02
 0.31730000E+02 -0.26707E-01
 0.31780001E+02 -0.14787E-01
 0.31830000E+02  0.19901E-01
 0.31880001E+02  0.24334E-01
 0.31930000E+02  0.44459E-02
 0.31980000E+02 -0.11103E-01
 0.32029999E+02 -0.51426E-02
 0.32080002E+02  0.30012E-02
 0.32130001E+02  0.10556E-03
 0.32180000E+02  0.60597E-02
 0.32230000E+02 -0.21347E-02
 0.32279999E+02 -0.99812E-02
 0.32330002E+02  0.10843E-02
 0.32380001E+02 -0.10261E-01
 0.32430000E+02 -0.15678E-01
 0.32480000E+02 -0.79284E-03
 0.32529999E+02  0.84306E-03
 0.32580002E+02  0.18055E-01
 0.32630001E+02  0.14198E-01
 0.32680000E+02 -0.25765E-01
 0.32730000E+02 -0.19961E-01
 0.32779999E+02  0.90574E-02
 0.32830002E+02  0.24061E-01
 0.32880001E+02 -0.10880E-01
 0.32930000E+02 -0.50157E-02
 0.32980000E+02  0.30294E-01
 0.33029999E+02  0.17419E-02
 0.33080002E+02 -0.93904E-02
 0.33130001E+02 -0.18779E-01
 0.33180000E+02  0.26016E-01
 0.33230000E+02  0.60697E-01
 0.33279999E+02 -0.12768E-02
 0.33330002E+02 -0.50865E-01
 0.33380001E+02 -0.53880E-01
 0.33430000E+02 -0.51076E-01
 0.33480000E+02 -0.60486E-01
 0.33529999E+02  0.42439E-02
 0.33580002E+02  0.66754E-01
 0.33630001E+02  0.58274E-01
 0.33680000E+02  0.29585E-01
 0.33730000E+02 -0.30455E-01
 0.33779999E+02  0.32973E-02
 0.33830002E+02  0.64584E-01
 0.33880001E+02  0.54018E-01
 0.33930000E+02  0.26883E-01
 0.33980000E+02 -0.11012E-01
 0.34029999E+02 -0.12191E-01
 0.34080002E+02 -0.75231E-01
 0.34130001E+02 -0.10107E+00
 0.34180000E+02  0.39246E-02
 0.34230000E+02  0.49131E-01
 0.34279999E+02 -0.79629E-02
 0.34330002E+02  0.26901E-01
 0.34380001E+02  0.12997E+00
 0.34430000E+02 -0.50350E-01
 0.34480000E+02 -0.11315E+00
 0.34529999E+02 -0.44768E-03
 0.34580002E+02 -0.99932E-01
 0.34630001E+02 -0.74138E-01
 0.34680000E+02  0.36957E-02
 0.34730000E+02  0.11562E+00
 0.34779999E+02  0.26354E+00
 0.34830002E+02  0.19888E+00
 0.34880001E+02 -0.77526E-01
 0.34930000E+02 -0.27283E+00
 0.34980000E+02 -0.24745E+00
 0.35029999E+02 -0.97279E-01
 0.35080002E+02  0.23260E+00
 0.35130001E+02  0.18961E+00
 0.35180000E+02 -0.17613E-01
 0.35230000E+02  0.13400E+00
 0.35279999E+02 -0.41057E-01
 0.35330002E+02 -0.34332E+00
 0.35380001E+02 -0.18563E+00
 0.35430000E+02 -0.32220E-01
 0.35480000E+02  0.84534E-01
 0.35529999E+02  0.24337E+00
 0.35580002E+02  0.30108E+00
 0.35630001E+02  0.39976E-01
 0.35680000E+02 -0.17485E+00
 0.35730000E+02  0.23337E-01
 0.35779999E+02 -0.93757E-01
 0.35830002E+02 -0.11271E+00
 0.35880001E+02 -0.65473E-01
 0.35930000E+02 -0.40989E-01
 0.35980000E+02  0.12000E+00
 0.36029999E+02  0.10205E+00
 0.36080002E+02  0.18215E+00
 0.36130001E+02  0.64078E-01
 0.36180000E+02 -0.71334E-01
 0.36230000E+02 -0.21215E+00
 0.36279999E+02 -0.22292E+00
 0.36330002E+02 -0.47325E-01
 0.36380001E+02 -0.31550E-01
 0.36430000E+02  0.10730E+00
 0.36480000E+02  0.13275E+00
 0.36529999E+02  0.12469E-01
 0.36580002E+02  0.40659E-01
 0.36630001E+02  0.12090E+00
 0.36680000E+02  0.58894E-01
 0.36730000E+02 -0.25984E-01
 0.36779999E+02  0.41452E-01
 0.36830002E+02  0.29990E-01
 0.36880001E+02 -0.11635E+00
 0.36930000E+02 -0.62622E-01
 0.36980000E+02 -0.38436E-01
 0.37029999E+02 -0.13662E+00
 0.37080002E+02 -0.13650E+00
 0.37130001E+02 -0.38071E-01
 0.37180000E+02  0.16491E+00
 0.37230000E+02  0.11877E+00
 0.37279999E+02  0.79037E-01
 0.37330002E+02  0.12531E+00
 0.37380001E+02 -0.57851E-01
 0.37430000E+02 -0.10369E+00
 0.37480000E+02  0.54519E-01
 0.37529999E+02  0.56210E-01
 0.37580002E+02 -0.15890E+00
 0.37630001E+02 -0.16625E+00
 0.37680000E+02  0.63923E-01
 0.37730000E+02  0.80415E-01
 0.37779999E+02 -0.15102E-01
 0.37830002E+02 -0.10901E-01
 0.37880001E+02 -0.24977E-01
 0.37930000E+02 -0.15091E-01
 0.37980000E+02  0.66139E-01
 0.38029999E+02  0.14606E+00
 0.38080002E+02  0.81495E-01
 0.38130001E+02 -0.27893E-01
 0.38180000E+02 -0.36611E-01
 0.38230000E+02 -0.71720E-01
 0.38279999E+02 -0.86398E-01
 0.38330002E+02 -0.32313E-01
 0.38380001E+02 -0.47331E-01
 0.38430000E+02 -0.68376E-01
 0.38480000E+02  0.10117E+00
 0.38529999E+02  0.17105E+00
 0.38580002E+02  0.12845E-01
 0.38630001E+02 -0.48875E-03
 0.38680000E+02 -0.33675E-02
 0.38730000E+02 -0.52348E-01
 0.38779999E+02  0.93121E-01
 0.38830002E+02 -0.23341E-02
 0.38880001E+02 -0.16295E+00
 0.38930000E+02 -0.86809E-01
 0.38980000E+02 -0.50321E-01
 0.39029999E+02  0.63084E-01
 0.39080002E+02  0.11791E+00
 0.39130001E+02  0.75236E-01
 0.39180000E+02 -0.18071E-01
 0.39230000E+02 -0.26321E-01
 0.39279999E+02  0.30583E-01
 0.39330002E+02 -0.61715E-01
 0.39380001E+02 -0.39120E-01
 0.39430000E+02  0.40788E-01
 0.39480000E+02  0.31458E-01
 0.39529999E+02 -0.42647E-01
 0.39580002E+02 -0.12131E+00
 0.39630001E+02 -0.67800E-01
 0.39680000E+02 -0.94409E-02
 0.39730000E+02  0.54210E-01
 0.39779999E+02  0.72198E-01
 0.39830002E+02  0.50683E-01
 0.39880001E+02  0.12201E+00
 0.39930000E+02  0.93680E-01
 0.39980000E+02 -0.18919E-01
 0.40029999E+02 -0.45317E-01
 0.40080002E+02 -0.58479E-01
 0.40130001E+02 -0.17882E+00
 0.40180000E+02 -0.14308E+00
 0.40230000E+02  0.50849E-02
 0.40279999E+02  0.43342E-01
 0.40330002E+02  0.62178E-01
 0.40380001E+02  0.17832E-01
 0.40430000E+02  0.12204E+00
 0.40480000E+02  0.25515E+00
 0.40529999E+02  0.16596E+00
 0.40580002E+02 -0.42191E-01
 0.40630001E+02 -0.14461E+00
 0.40680000E+02 -0.12678E+00
 0.40730000E+02 -0.97591E-01
 0.40779999E+02 -0.46109E-01
 0.40830002E+02 -0.13808E+00
 0.40880001E+02 -0.89946E-01
 0.40930000E+02  0.31178E-01
 0.40980000E+02  0.10557E+00
 0.41029999E+02  0.19400E+00
 0.41080002E+02  0.81161E-01
 0.41130001E+02 -0.32810E-01
 0.41180000E+02 -0.25224E-01
 0.41230000E+02  0.44495E-01
 0.41279999E+02 -0.16436E-01
 0.41330002E+02 -0.10192E+00
 0.41380001E+02 -0.92738E-01
 0.41430000E+02 -0.80634E-01
 0.41480000E+02 -0.72362E-02
 0.41529999E+02  0.23983E-01
 0.41580002E+02 -0.30725E-01
 0.41630001E+02 -0.43758E-02
 0.41680000E+02  0.88449E-01
 0.41730000E+02  0.66469E-01
 0.41779999E+02  0.50028E-01
 0.41830002E+02  0.20474E-01
 0.41880001E+02 -0.22716E-01
 0.41930000E+02  0.89256E-01
 0.41980000E+02  0.13489E+00
 0.42029999E+02  0.28535E-03
 0.42080002E+02 -0.95362E-01
 0.42130001E+02 -0.11942E+00
 0.42180000E+02 -0.83399E-01
 0.42230000E+02 -0.21707E-01
 0.42279999E+02 -0.33076E-01
 0.42330002E+02 -0.34008E-01
 0.42380001E+02 -0.28112E-01
 0.42430000E+02  0.74268E-01
 0.42480000E+02  0.14370E+00
 0.42529999E+02  0.28367E-01
 0.42580002E+02 -0.69222E-01
 0.42630001E+02 -0.74247E-01
 0.42680000E+02  0.93330E-02
 0.42730000E+02  0.54248E-01
 0.42779999E+02  0.11931E-01
 0.42830002E+02 -0.79762E-01
 0.42880001E+02 -0.67631E-01
 0.42930000E+02  0.10531E-01
 0.42980000E+02 -0.26944E-02
 0.43029999E+02  0.31164E-01
 0.43080002E+02  0.55992E-01
 0.43130001E+02  0.83585E-01
 0.43180000E+02  0.14086E+00
 0.43230000E+02  0.69399E-01
 0.43279999E+02 -0.36523E-01
 0.43330002E+02 -0.94488E-01
 0.43380001E+02 -0.92587E-01
 0.43430000E+02 -0.34679E-01
 0.43480000E+02 -0.16297E-01
 0.43529999E+02  0.14967E-01
 0.43580002E+02  0.27679E-01
 0.43630001E+02 -0.10844E-01
 0.43680000E+02 -0.47697E-01
 0.43730000E+02 -0.43082E-01
 0.43779999E+02  0.25470E-01
 0.43830002E+02  0.11990E-02
 0.43880001E+02 -0.41444E-01
 0.43930000E+02  0.16394E-01
 0.43980000E+02  0.40381E-01
 0.44029999E+02  0.14292E-01
 0.44080002E+02 -0.20556E-01
 0.44130001E+02 -0.16479E-01
 0.44180000E+02 -0.20489E-02
 0.44230000E+02 -0.58757E-02
 0.44279999E+02  0.25954E-01
 0.44330002E+02  0.35303E-01
 0.44380001E+02  0.26263E-01
 0.44430000E+02  0.24013E-02
 0.44480000E+02 -0.24678E-03
 0.44529999E+02  0.28033E-01
 0.44580002E+02 -0.65444E-02
 0.44630001E+02 -0.31681E-01
 0.44680000E+02 -0.23823E-01
 0.44730000E+02 -0.12739E-01
 0.44779999E+02  0.40485E-01
 0.44830002E+02  0.34777E-01
 0.44880001E+02 -0.34340E-01
 0.44930000E+02 -0.28467E-01
 0.44980000E+02  0.19438E-01
 0.45030003E+02  0.65146E-01
 0.45080002E+02  0.55420E-01
 0.45130001E+02 -0.77398E-02
 0.45180000E+02 -0.45204E-01
 0.45230000E+02 -0.45218E-01
 0.45280003E+02 -0.20090E-01
 0.45330002E+02 -0.32251E-01
 0.45380001E+02 -0.40362E-01
 0.45430000E+02 -0.36265E-01
 0.45480000E+02 -0.21410E-01
 0.45530003E+02  0.34623E-01
 0.45580002E+02  0.91384E-02
 0.45630001E+02 -0.87238E-02
 0.45680000E+02  0.17392E-01
 0.45730000E+02  0.26699E-01
 0.45780003E+02  0.64247E-01
 0.45830002E+02  0.39223E-01
 0.45880001E+02  0.18081E-01
 0.45930000E+02  0.51300E-02
 0.45980000E+02 -0.42110E-01
 0.46030003E+02 -0.84237E-01
 0.46080002E+02 -0.82034E-01
 0.46130001E+02 -0.56860E-02
 0.46180000E+02  0.17295E-01
 0.46230000E+02  0.26576E-01
 0.46280003E+02  0.40864E-01
 0.46330002E+02  0.45587E-01
 0.46380001E+02  0.59477E-01
 0.46430000E+02  0.33329E-01
 0.46480000E+02  0.17164E-01
 0.46530003E+02 -0.11286E-01
 0.46580002E+02 -0.31902E-01
 0.46630001E+02 -0.54418E-02
 0.46680000E+02  0.21776E-01
 0.46730000E+02  0.19804E-01
 0.46780003E+02 -0.40276E-01
 0.46830002E+02 -0.63979E-01
 0.46880001E+02 -0.64824E-03
 0.46930000E+02  0.44291E-01
 0.46980000E+02  0.42740E-02
 0.47030003E+02 -0.57647E-01
 0.47080002E+02 -0.38744E-01
 0.47130001E+02 -0.23220E-01
 0.47180000E+02 -0.64474E-01
 0.47230000E+02 -0.39258E-01
 0.47280003E+02  0.20084E-01
 0.47330002E+02  0.18818E-01
 0.47380001E+02  0.25199E-01
 0.47430000E+02  0.43541E-01
 0.47480000E+02  0.35664E-01
 0.47530003E+02  0.40120E-01
 0.47580002E+02  0.27908E-01
 0.47630001E+02 -0.32318E-02
 0.47680000E+02 -0.21579E-02
 0.47730000E+02  0.11497E-02
 0.47780003E+02 -0.30600E-01
 0.47830002E+02 -0.33157E-01
 0.47880001E+02 -0.20351E-01
 0.47930000E+02 -0.27113E-01
 0.47980000E+02  0.24361E-01
 0.48030003E+02  0.79883E-01
 0.48080002E+02  0.74943E-01
 0.48130001E+02  0.51953E-01
 0.48180000E+02  0.27936E-01
 0.48230000E+02  0.24215E-02
 0.48280003E+02 -0.30791E-01
 0.48330002E+02 -0.44197E-01
 0.48380001E+02 -0.36646E-01
 0.48430000E+02 -0.28201E-01
 0.48480000E+02 -0.26152E-01
 0.48530003E+02 -0.59282E-01
 0.48580002E+02 -0.52507E-01
 0.48630001E+02 -0.86781E-02
 0.48680000E+02  0.44315E-02
 0.48730000E+02  0.19454E-01
 0.48780003E+02 -0.13330E-02
 0.48830002E+02 -0.36858E-01
 0.48880001E+02 -0.41813E-01
 0.48930000E+02  0.58959E-03
 0.48980000E+02  0.67854E-01
 0.49030003E+02  0.84563E-01
 0.49080002E+02  0.62009E-01
 0.49130001E+02  0.17128E-01
 0.49180000E+02  0.30065E-02
 0.49230000E+02 -0.18520E-01
 0.49280003E+02 -0.72245E-01
 0.49330002E+02 -0.78973E-01
 0.49380001E+02 -0.59728E-01
 0.49430000E+02 -0.95011E-02
 0.49480000E+02  0.42057E-01
 0.49530003E+02  0.78667E-01
 0.49580002E+02  0.93738E-01
 0.49630001E+02  0.69332E-01
 0.49680000E+02  0.49086E-01
 0.49730000E+02  0.63843E-02
 0.49780003E+02 -0.24922E-01
 0.49830002E+02 -0.37502E-01
 0.49880001E+02 -0.57865E-01
 0.49930000E+02 -0.46517E-01
 0.49980000E+02 -0.25039E-01
 0.50030003E+02 -0.83158E-02
 0.50080002E+02 -0.79413E-02
 0.50130001E+02  0.20134E-01
 0.50180000E+02  0.58376E-01
 0.50230000E+02  0.32274E-01
 0.50280003E+02 -0.20825E-01
 0.50330002E+02 -0.45719E-01
 0.50380001E+02 -0.37870E-01
 0.50430000E+02 -0.28857E-01
 0.50480000E+02 -0.14894E-01
 0.50530003E+02 -0.12112E-01
 0.50580002E+02  0.12821E-01
 0.50630001E+02  0.31876E-01
 0.50680000E+02  0.80602E-02
 0.50730000E+02 -0.17056E-01
 0.50780003E+02 -0.51642E-01
 0.50830002E+02 -0.48328E-01
 0.50880001E+02 -0.57581E-02
 0.50930000E+02  0.19721E-01
 0.50980000E+02  0.28989E-01
 0.51030003E+02  0.49379E-01
 0.51080002E+02  0.63427E-01
 0.51130001E+02  0.55282E-01
 0.51180000E+02  0.41636E-01
 0.51230000E+02  0.43815E-01
 0.51280003E+02  0.26461E-01
 0.51330002E+02 -0.11609E-01
 0.51380001E+02 -0.26353E-01
 0.51430000E+02 -0.49969E-01
 0.51480000E+02 -0.82186E-01
 0.51530003E+02 -0.67183E-01
 0.51580002E+02 -0.24909E-02
 0.51630001E+02  0.80292E-02
 0.51680000E+02  0.44835E-02
 0.51730000E+02  0.48295E-01
 0.51780003E+02  0.69778E-01
 0.51830002E+02  0.61293E-01
 0.51880001E+02  0.56425E-02
 0.51930000E+02 -0.69162E-01
 0.51980000E+02 -0.96538E-01
 0.52030003E+02 -0.93273E-01
 0.52080002E+02 -0.73913E-01
 0.52130001E+02 -0.15088E-01
 0.52180000E+02  0.40450E-01
 0.52230000E+02  0.68412E-01
 0.52280003E+02  0.54255E-01
 0.52330002E+02  0.15869E-01
 0.52380001E+02  0.29708E-01
 0.52430000E+02  0.42743E-01
 0.52480000E+02  0.37436E-01
 0.52530003E+02  0.23565E-01
 0.52580002E+02 -0.90363E-02
 0.52630001E+02 -0.45364E-02
 0.52680000E+02 -0.97790E-02
 0.52730000E+02 -0.42976E-01
 0.52780003E+02 -0.44410E-01
 0.52830002E+02 -0.23010E-01
 0.52880001E+02  0.49628E-02
 0.52930000E+02  0.18429E-01
 0.52980000E+02  0.14297E-01
 0.53030003E+02  0.17821E-01
 0.53080002E+02  0.10739E-01
 0.53130001E+02  0.18731E-02
 0.53180000E+02  0.14330E-01
 0.53230000E+02 -0.14336E-01
 0.53280003E+02 -0.56013E-01
 0.53330002E+02 -0.71011E-01
 0.53380001E+02 -0.70103E-01
 0.53430000E+02 -0.28589E-01
 0.53480000E+02  0.77273E-02
 0.53530003E+02  0.37559E-01
 0.53580002E+02  0.66900E-01
 0.53630001E+02  0.76203E-01
 0.53680000E+02  0.67737E-01
 0.53730000E+02  0.40312E-01
 0.53780003E+02  0.15186E-01
 0.53830002E+02  0.56105E-02
 0.53880001E+02  0.12653E-01
 0.53930000E+02  0.30617E-01
 0.53980000E+02  0.24340E-01
 0.54030003E+02 -0.16621E-01
 0.54080002E+02 -0.32692E-01
 0.54130001E+02 -0.50906E-01
 0.54180000E+02 -0.78458E-01
 0.54230000E+02 -0.61267E-01
 0.54280003E+02 -0.43948E-01
 0.54330002E+02 -0.20178E-01
 0.54380001E+02  0.24330E-01
 0.54430000E+02  0.51784E-01
 0.54480000E+02  0.55433E-01
 0.54530003E+02  0.31706E-01
 0.54580002E+02 -0.45670E-02
 0.54630001E+02 -0.24423E-01
 0.54680000E+02 -0.35270E-01
 0.54730000E+02 -0.58371E-01
 0.54780003E+02 -0.72440E-01
 0.54830002E+02 -0.63562E-01
 0.54880001E+02 -0.29997E-01
 0.54930000E+02 -0.59347E-04
 0.54980000E+02  0.12490E-01
 0.55030003E+02  0.48371E-01
 0.55080002E+02  0.75818E-01
 0.55130001E+02  0.72194E-01
 0.55180000E+02  0.71027E-01
 0.55230000E+02  0.72725E-01
 0.55280003E+02  0.61668E-01
 0.55330002E+02  0.20977E-01
 0.55380001E+02 -0.27057E-01
 0.55430000E+02 -0.39168E-01
 0.55480000E+02 -0.41349E-01
 0.55530003E+02 -0.58156E-01
 0.55580002E+02 -0.69034E-01
 0.55630001E+02 -0.74325E-01
 0.55680000E+02 -0.56790E-01
 0.55730000E+02 -0.15724E-01
 0.55780003E+02  0.12015E-01
 0.55830002E+02  0.40412E-01
 0.55880001E+02  0.71322E-01
 0.55930000E+02  0.85854E-01
 0.55980000E+02  0.85267E-01
 0.56030003E+02  0.62417E-01
 0.56080002E+02  0.37428E-01
 0.56130001E+02  0.62133E-02
 0.56180000E+02 -0.39247E-01
 0.56230000E+02 -0.58920E-01
 0.56280003E+02 -0.64701E-01
 0.56330002E+02 -0.80761E-01
 0.56380001E+02 -0.79353E-01
 0.56430000E+02 -0.37559E-01
 0.56480000E+02  0.10062E-01
 0.56530003E+02  0.24065E-01
 0.56580002E+02  0.37060E-01
 0.56630001E+02  0.54493E-01
 0.56680000E+02  0.52509E-01
 0.56730000E+02  0.33044E-01
 0.56780003E+02  0.12612E-01
 0.56830002E+02  0.46056E-02
 0.56880001E+02 -0.14826E-01
 0.56930000E+02 -0.28991E-01
 0.56980000E+02 -0.23967E-01
 0.57030003E+02 -0.19634E-01
 0.57080002E+02 -0.22061E-01
 0.57130001E+02 -0.24468E-01
 0.57180000E+02 -0.93838E-02
 0.57230000E+02  0.12287E-01
 0.57280003E+02  0.30994E-01
 0.57330002E+02  0.33919E-01
 0.57380001E+02  0.24958E-01
 0.57430000E+02  0.11005E-01
 0.57480000E+02 -0.15581E-01
 0.57530003E+02 -0.29155E-01
 0.57580002E+02 -0.35266E-01
 0.57630001E+02 -0.32361E-01
 0.57680000E+02 -0.17642E-01
 0.57730000E+02 -0.10700E-01
 0.57780003E+02 -0.43605E-03
 0.57830002E+02  0.82955E-02
 0.57880001E+02  0.17044E-01
 0.57930000E+02  0.32784E-01
 0.57980000E+02  0.45895E-01
 0.58030003E+02  0.37455E-01
 0.58080002E+02  0.13959E-01
 0.58130001E+02  0.36348E-02
 0.58180000E+02 -0.12676E-02
 0.58230000E+02 -0.86227E-02
 0.58280003E+02 -0.19448E-01
 0.58330002E+02 -0.21747E-01
 0.58380001E+02 -0.15233E-01
 0.58430000E+02 -0.11725E-01
 0.58480000E+02 -0.40209E-02
 0.58530003E+02 -0.10738E-01
 0.58580002E+02 -0.11570E-01
 0.58630001E+02 -0.15625E-01
 0.58680000E+02 -0.47367E-01
 0.58730000E+02 -0.43924E-01
 0.58780003E+02 -0.33269E-01
 0.58830002E+02 -0.33628E-01
 0.58880001E+02 -0.89091E-02
 0.58930000E+02  0.12070E-01
 0.58980000E+02  0.36561E-01
 0.59030003E+02  0.59742E-01
 0.59080002E+02  0.77945E-01
 0.59130001E+02  0.84921E-01
 0.59180000E+02  0.69394E-01
 0.59230000E+02  0.61589E-01
 0.59280003E+02  0.28769E-01
 0.59330002E+02 -0.15165E-01
 0.59380001E+02 -0.40516E-01
 0.59430000E+02 -0.44455E-01
 0.59480000E+02 -0.18715E-01
 0.59530003E+02 -0.34797E-02
 0.59580002E+02  0.46388E-02
 0.59630001E+02 -0.37098E-02
 0.59680000E+02 -0.21647E-01
 0.59730000E+02 -0.42531E-01
 0.59780003E+02 -0.65893E-01
 0.59830002E+02 -0.49264E-01
 0.59880001E+02 -0.18841E-01
 0.59930000E+02  0.87275E-02
 0.59980000E+02  0.38181E-01
 0.60030003E+02  0.48656E-01
 0.60080002E+02  0.43613E-01
 0.60130001E+02  0.31646E-01
 0.60180000E+02 -0.62521E-02
 0.60230000E+02 -0.50084E-01
 0.60280003E+02 -0.58061E-01
 0.60330002E+02 -0.45804E-01
 0.60380001E+02 -0.25032E-01
 0.60430000E+02 -0.10495E-01
 0.60480000E+02 -0.37703E-02
 0.60530003E+02  0.14108E-01
 0.60580002E+02  0.27909E-01
 0.60630001E+02  0.39107E-01
 0.60680000E+02  0.44041E-01
 0.60730000E+02  0.25829E-01
 0.60780003E+02  0.54044E-02
 0.60830002E+02 -0.15014E-01
 0.60880001E+02 -0.34928E-01
 0.60930000E+02 -0.19016E-01
 0.60980000E+02  0.90414E-02
 0.61030003E+02  0.18391E-01
 0.61080002E+02  0.34119E-01
 0.61130001E+02  0.37537E-01
 0.61180000E+02  0.23672E-01
 0.61230000E+02  0.22877E-01
 0.61280003E+02  0.24350E-01
 0.61330002E+02  0.22883E-01
 0.61380001E+02  0.85646E-02
 0.61430000E+02 -0.21807E-01
 0.61480000E+02 -0.56785E-01
 0.61530003E+02 -0.79469E-01
 0.61580002E+02 -0.78372E-01
 0.61630001E+02 -0.62255E-01
 0.61680000E+02 -0.28162E-01
 0.61730000E+02  0.76450E-02
 0.61780003E+02  0.36808E-01
 0.61830002E+02  0.64866E-01
 0.61880001E+02  0.92174E-01
 0.61930000E+02  0.80396E-01
 0.61980000E+02  0.17360E-01
 0.62030003E+02 -0.25911E-01
 0.62080002E+02 -0.47585E-01
 0.62130001E+02 -0.62221E-01
 0.62180000E+02 -0.54408E-01
 0.62230000E+02 -0.39985E-01
 0.62280003E+02 -0.20745E-01
 0.62330002E+02 -0.20347E-02
 0.62380001E+02  0.12927E-01
 0.62430000E+02  0.26959E-01
 0.62480000E+02  0.36344E-01
 0.62530003E+02  0.47534E-01
 0.62580002E+02  0.42631E-01
 0.62630001E+02  0.28586E-01
 0.62680000E+02  0.24653E-01
 0.62730000E+02  0.42583E-02
 0.62780003E+02 -0.23704E-01
 0.62830002E+02 -0.35412E-01
 0.62880001E+02 -0.32909E-01
 0.62930000E+02 -0.26080E-01
 0.62980000E+02 -0.14808E-01
 0.63030003E+02 -0.32231E-02
 0.63080002E+02 -0.10532E-01
 0.63130001E+02 -0.77401E-02
 0.63180000E+02  0.41372E-02
 0.63230000E+02 -0.30717E-02
 0.63280003E+02 -0.21301E-02
 0.63330002E+02  0.13061E-01
 0.63380001E+02  0.28216E-01
 0.63430000E+02  0.35915E-01
 0.63480000E+02  0.32614E-01
 0.63530003E+02  0.15092E-01
 0.63580002E+02 -0.13052E-01
 0.63630001E+02 -0.38819E-01
 0.63680000E+02 -0.50171E-01
 0.63730000E+02 -0.36794E-01
 0.63780003E+02 -0.92399E-02
 0.63830002E+02  0.20932E-01
 0.63880001E+02  0.44386E-01
 0.63930000E+02  0.55862E-01
 0.63980000E+02  0.49065E-01
 0.64029999E+02  0.21191E-01
 0.64080002E+02 -0.11475E-01
 0.64129997E+02 -0.35086E-01
 0.64180000E+02 -0.51455E-01
 0.64230003E+02 -0.57657E-01
 0.64279999E+02 -0.41166E-01
 0.64330002E+02 -0.98415E-02
 0.64379997E+02  0.26599E-01
 0.64430000E+02  0.53906E-01
 0.64480003E+02  0.53131E-01
 0.64529999E+02  0.32808E-01
 0.64580002E+02  0.25777E-02
 0.64629997E+02 -0.32295E-01
 0.64680000E+02 -0.45271E-01
 0.64730003E+02 -0.43247E-01
 0.64779999E+02 -0.44404E-01
 0.64830002E+02 -0.21862E-01
 0.64879997E+02  0.76065E-02
 0.64930000E+02  0.15621E-01
 0.64980003E+02  0.26951E-01
 0.65029999E+02  0.29047E-01
 0.65080002E+02  0.44777E-02
 0.65129997E+02 -0.11888E-01
 0.65180000E+02 -0.89212E-02
 0.65230003E+02  0.67450E-03
 0.65279999E+02  0.14415E-01
 0.65330002E+02  0.33143E-01
 0.65379997E+02  0.46867E-01
 0.65430000E+02  0.44182E-01
 0.65480003E+02  0.29581E-01
 0.65529999E+02 -0.10589E-02
 0.65580002E+02 -0.29905E-01
 0.65629997E+02 -0.33940E-01
 0.65680000E+02 -0.39284E-01
 0.65730003E+02 -0.40525E-01
 0.65779999E+02 -0.19022E-01
 0.65830002E+02  0.25797E-02
 0.65879997E+02  0.19088E-01
 0.65930000E+02  0.22028E-01
 0.65980003E+02  0.16656E-01
 0.66029999E+02  0.69309E-02
 0.66080002E+02 -0.99416E-02
 0.66129997E+02 -0.66211E-02
 0.66180000E+02 -0.46647E-02
 0.66230003E+02 -0.78703E-02
 0.66279999E+02  0.23404E-02
 0.66330002E+02  0.46942E-02
 0.66379997E+02  0.43717E-02
 0.66430000E+02  0.53042E-02
 0.66480003E+02  0.20083E-02
 0.66529999E+02 -0.10018E-02
 0.66580002E+02 -0.79350E-02
 0.66629997E+02 -0.13764E-01
 0.66680000E+02 -0.32315E-02
 0.66730003E+02  0.62234E-02
 0.66779999E+02  0.16209E-02
 0.66830002E+02  0.23089E-02
 0.66879997E+02  0.39655E-02
 0.66930000E+02  0.23964E-02
 0.66980003E+02  0.17198E-02
 0.67029999E+02 -0.18420E-01
 0.67080002E+02 -0.40811E-01
 0.67129997E+02 -0.22210E-01
 0.67180000E+02  0.39750E-02
 0.67230003E+02  0.13516E-01
 0.67279999E+02  0.15806E-01
 0.67330002E+02  0.35323E-02
 0.67379997E+02  0.97686E-03
 0.67430000E+02  0.67527E-02
 0.67480003E+02  0.88196E-02
 0.67529999E+02  0.92371E-02
 0.67580002E+02  0.75429E-02
 0.67629997E+02  0.13946E-01
 0.67680000E+02  0.81129E-02
 0.67730003E+02 -0.32415E-02
 0.67779999E+02 -0.35181E-02
 0.67830002E+02 -0.11874E-02
 0.67879997E+02  0.22737E-02
 0.67930000E+02 -0.44882E-02
 0.67980003E+02 -0.85173E-03
 0.68029999E+02  0.12419E-01
 0.68080002E+02  0.86779E-02
 0.68129997E+02 -0.14955E-02
 0.68180000E+02 -0.70010E-02
 0.68230003E+02 -0.15717E-01
 0.68279999E+02 -0.29031E-01
 0.68330002E+02 -0.36477E-01
 0.68379997E+02 -0.35060E-01
 0.68430000E+02 -0.21709E-01
 0.68480003E+02 -0.84698E-02
 0.68529999E+02  0.10066E-01
 0.68580002E+02  0.32719E-01
 0.68629997E+02  0.48043E-01
 0.68680000E+02  0.66694E-01
 0.68730003E+02  0.71203E-01
 0.68779999E+02  0.49244E-01
 0.68830002E+02  0.14586E-01
 0.68879997E+02 -0.97337E-02
 0.68930000E+02 -0.26752E-01
 0.68980003E+02 -0.54007E-01
 0.69029999E+02 -0.70024E-01
 0.69080002E+02 -0.60324E-01
 0.69129997E+02 -0.30644E-01
 0.69180000E+02  0.11505E-01
 0.69230003E+02  0.34499E-01
 0.69279999E+02  0.43420E-01
 0.69330002E+02  0.52919E-01
 0.69379997E+02  0.34227E-01
 0.69430000E+02  0.52474E-03
 0.69480003E+02 -0.16777E-01
 0.69529999E+02 -0.17313E-01
 0.69580002E+02 -0.13040E-01
 0.69629997E+02 -0.20252E-01
 0.69680000E+02 -0.32125E-01
 0.69730003E+02 -0.32935E-01
 0.69779999E+02 -0.33494E-01
 0.69830002E+02 -0.34731E-01
 0.69879997E+02 -0.30086E-01
 0.69930000E+02 -0.12824E-01
 0.69980003E+02  0.15472E-01
 0.70029999E+02  0.33776E-01
 0.70080002E+02  0.38526E-01
 0.70129997E+02  0.30491E-01
 0.70180000E+02  0.21720E-01
 0.70230003E+02  0.13906E-01
 0.70279999E+02  0.14572E-02
 0.70330002E+02 -0.23571E-02
 0.70380005E+02  0.53601E-02
 0.70430000E+02  0.19642E-01
 0.70480003E+02  0.23591E-01
 0.70529999E+02  0.19656E-01
 0.70580002E+02  0.17605E-01
 0.70630005E+02  0.12325E-01
 0.70680000E+02  0.52724E-02
 0.70730003E+02 -0.99174E-02
 0.70779999E+02 -0.28628E-01
 0.70830002E+02 -0.38155E-01
 0.70880005E+02 -0.32712E-01
 0.70930000E+02 -0.23126E-01
 0.70980003E+02 -0.20334E-01
 0.71029999E+02 -0.72412E-02
 0.71080002E+02  0.97772E-02
 0.71130005E+02  0.16993E-01
 0.71180000E+02  0.16801E-01
 0.71230003E+02  0.88961E-02
 0.71279999E+02  0.55368E-02
 0.71330002E+02  0.80911E-03
 0.71380005E+02 -0.38531E-02
 0.71430000E+02 -0.48025E-02
 0.71480003E+02 -0.80234E-02
 0.71529999E+02 -0.51355E-02
 0.71580002E+02 -0.81964E-02
 0.71630005E+02 -0.11833E-01
 0.71680000E+02 -0.33765E-02
 0.71730003E+02  0.34804E-02
 0.71779999E+02  0.84808E-02
 0.71830002E+02  0.23493E-01
 0.71880005E+02  0.32007E-01
 0.71930000E+02  0.25000E-01
 0.71980003E+02  0.14297E-01
 0.72029999E+02 -0.88689E-02
 0.72080002E+02 -0.33186E-01
 0.72130005E+02 -0.36682E-01
 0.72180000E+02 -0.29089E-01
 0.72230003E+02 -0.21524E-01
 0.72279999E+02 -0.14963E-01
 0.72330002E+02 -0.87556E-02
 0.72380005E+02 -0.17770E-03
 0.72430000E+02  0.74515E-02
 0.72480003E+02  0.16172E-01
 0.72529999E+02  0.16111E-01
 0.72580002E+02  0.21119E-01
 0.72630005E+02  0.35810E-01
 0.72680000E+02  0.30650E-01
 0.72730003E+02  0.28178E-01
 0.72779999E+02  0.26249E-01
 0.72830002E+02  0.18314E-01
 0.72880005E+02  0.12431E-01
 0.72930000E+02 -0.43262E-02
 0.72980003E+02 -0.13657E-01
 0.73029999E+02 -0.17874E-01
 0.73080002E+02 -0.27952E-01
 0.73130005E+02 -0.33693E-01
 0.73180000E+02 -0.37359E-01
 0.73230003E+02 -0.35470E-01
 0.73279999E+02 -0.26304E-01
 0.73330002E+02 -0.20891E-01
 0.73380005E+02 -0.14582E-01
 0.73430000E+02 -0.51928E-02
 0.73480003E+02  0.55327E-02
 0.73529999E+02  0.20598E-01
 0.73580002E+02  0.31014E-01
 0.73630005E+02  0.35415E-01
 0.73680000E+02  0.41681E-01
 0.73730003E+02  0.44135E-01
 0.73779999E+02  0.32816E-01
 0.73830002E+02  0.11726E-01
 0.73880005E+02 -0.83480E-02
 0.73930000E+02 -0.22040E-01
 0.73980003E+02 -0.33015E-01
 0.74029999E+02 -0.39845E-01
 0.74080002E+02 -0.36354E-01
 0.74130005E+02 -0.23224E-01
 0.74180000E+02 -0.15593E-01
 0.74230003E+02 -0.12664E-01
 0.74279999E+02 -0.37789E-02
 0.74330002E+02 -0.16436E-03
 0.74380005E+02  0.47152E-02
 0.74430000E+02  0.94954E-02
 0.74480003E+02  0.16102E-01
 0.74529999E+02  0.23651E-01
 0.74580002E+02  0.15309E-01
 0.74630005E+02  0.11628E-01
 0.74680000E+02  0.83030E-02
 0.74730003E+02  0.41940E-02
 0.74779999E+02  0.39080E-02
 0.74830002E+02 -0.69180E-02
 0.74880005E+02 -0.73885E-02
 0.74930000E+02  0.39593E-02
 0.74980003E+02  0.14337E-01
 0.75029999E+02  0.15873E-01
 0.75080002E+02  0.12805E-01
 0.75130005E+02  0.16704E-01
 0.75180000E+02  0.12930E-01
 0.75230003E+02  0.23005E-02
 0.75279999E+02 -0.37595E-02
 0.75330002E+02 -0.17853E-02
 0.75380005E+02 -0.20545E-02
 0.75430000E+02 -0.10436E-01
 0.75480003E+02 -0.14320E-01
 0.75529999E+02 -0.15538E-01
 0.75580002E+02 -0.12735E-01
 0.75630005E+02 -0.14673E-01
 0.75680000E+02 -0.22911E-01
 0.75730003E+02 -0.26453E-01
 0.75779999E+02 -0.28070E-01
 0.75830002E+02 -0.18912E-01
 0.75880005E+02 -0.87220E-02
 0.75930000E+02  0.12545E-02
 0.75980003E+02  0.16079E-01
 0.76029999E+02  0.26076E-01
 0.76080002E+02  0.32967E-01
 0.76130005E+02  0.28098E-01
 0.76180000E+02  0.15467E-01
 0.76230003E+02  0.37714E-02
 0.76279999E+02 -0.48030E-02
 0.76330002E+02 -0.58815E-02
 0.76380005E+02 -0.66260E-04
 0.76430000E+02  0.87985E-02
 0.76480003E+02  0.86921E-02
 0.76529999E+02  0.21391E-02
 0.76580002E+02 -0.57013E-02
 0.76630005E+02 -0.89175E-02
 0.76680000E+02 -0.74863E-02
 0.76730003E+02 -0.13501E-01
 0.76779999E+02 -0.14142E-01
 0.76830002E+02 -0.86363E-02
 0.76880005E+02 -0.52712E-02
 0.76930000E+02 -0.21653E-02
 0.76980003E+02 -0.22025E-02
 0.77029999E+02  0.36792E-02
 0.77080002E+02  0.92638E-02
 0.77130005E+02  0.84918E-02
 0.77180000E+02  0.71074E-02
 0.77230003E+02  0.70588E-02
 0.77279999E+02  0.15383E-01
 0.77330002E+02  0.17887E-01
 0.77380005E+02  0.12225E-01
 0.77430000E+02  0.12030E-01
 0.77480003E+02  0.66658E-02
 0.77529999E+02 -0.33542E-02
 0.77580002E+02 -0.13505E-01
 0.77630005E+02 -0.21573E-01
 0.77680000E+02 -0.23118E-01
 0.77730003E+02 -0.28952E-01
 0.77779999E+02 -0.29455E-01
 0.77830002E+02 -0.15726E-01
 0.77880005E+02  0.38848E-02
 0.77930000E+02  0.18547E-01
 0.77980003E+02  0.21950E-01
 0.78029999E+02  0.29851E-01
 0.78080002E+02  0.35386E-01
 0.78130005E+02  0.27190E-01
 0.78180000E+02  0.15098E-01
 0.78230003E+02  0.19221E-02
 0.78279999E+02 -0.68433E-02
 0.78330002E+02 -0.10760E-01
 0.78380005E+02 -0.19517E-01
 0.78430000E+02 -0.33299E-01
 0.78480003E+02 -0.38618E-01
 0.78529999E+02 -0.31880E-01
 0.78580002E+02 -0.21345E-01
 0.78630005E+02 -0.96629E-02
 0.78680000E+02 -0.12789E-02
 0.78730003E+02  0.55776E-02
 0.78779999E+02  0.16257E-01
 0.78830002E+02  0.22138E-01
 0.78880005E+02  0.21587E-01
 0.78930000E+02  0.20998E-01
 0.78980003E+02  0.20272E-01
 0.79029999E+02  0.15229E-01
 0.79080002E+02  0.57980E-02
 0.79130005E+02  0.71630E-03
 0.79180000E+02 -0.21807E-02
 0.79230003E+02 -0.47644E-02
 0.79279999E+02 -0.33433E-02
 0.79330002E+02 -0.35576E-03
 0.79380005E+02  0.35476E-02
 0.79430000E+02  0.23038E-02
 0.79480003E+02 -0.44840E-02
 0.79529999E+02 -0.54440E-02
 0.79580002E+02 -0.15783E-02
 0.79630005E+02 -0.49843E-02
 0.79680000E+02 -0.83987E-02
 0.79730003E+02 -0.48288E-02
 0.79779999E+02 -0.85303E-03
 0.79830002E+02  0.42911E-02
 0.79880005E+02  0.48392E-02
 0.79930000E+02  0.15078E-02
 0.79980003E+02 -0.41599E-02
 0.80029999E+02 -0.10393E-01
 0.80080002E+02 -0.10120E-01
 0.80130005E+02 -0.13398E-01
 0.80180000E+02 -0.16655E-01
 0.80230003E+02 -0.11009E-01
 0.80279999E+02 -0.54502E-02
 0.80330002E+02 -0.45044E-02
 0.80380005E+02  0.69473E-03
 0.80430000E+02  0.94315E-02
 0.80480003E+02  0.12927E-01
 0.80529999E+02  0.13835E-01
 0.80580002E+02  0.10269E-01
 0.80630005E+02  0.95677E-02
 0.80680000E+02  0.14214E-01
 0.80730003E+02  0.16445E-01
 0.80779999E+02  0.19271E-01
 0.80830002E+02  0.22293E-01
 0.80880005E+02  0.24676E-01
 0.80930000E+02  0.20225E-01
 0.80980003E+02  0.75323E-02
 0.81029999E+02 -0.58991E-02
 0.81080002E+02 -0.17160E-01
 0.81130005E+02 -0.29270E-01
 0.81180000E+02 -0.40888E-01
 0.81230003E+02 -0.43532E-01
 0.81279999E+02 -0.35558E-01
 0.81330002E+02 -0.20628E-01
 0.81380005E+02 -0.39594E-02
 0.81430000E+02  0.10123E-01
 0.81480003E+02  0.18573E-01
 0.81529999E+02  0.23239E-01
 0.81580002E+02  0.21869E-01
 0.81630005E+02  0.14803E-01
 0.81680000E+02  0.64668E-02
 0.81730003E+02 -0.36708E-02
 0.81779999E+02 -0.10836E-01
 0.81830002E+02 -0.16132E-01
 0.81880005E+02 -0.14469E-01
 0.81930000E+02 -0.37647E-02
 0.81980003E+02  0.11157E-02
 0.82029999E+02  0.29660E-02
 0.82080002E+02  0.83950E-02
 0.82130005E+02  0.10497E-01
 0.82180000E+02  0.12639E-01
 0.82230003E+02  0.11291E-01
 0.82279999E+02  0.52748E-02
 0.82330002E+02  0.24939E-02
 0.82380005E+02  0.15994E-02
 0.82430000E+02  0.21899E-02
 0.82480003E+02 -0.25860E-02
 0.82529999E+02 -0.67713E-02
 0.82580002E+02 -0.73558E-02
 0.82630005E+02 -0.10587E-01
 0.82680000E+02 -0.11341E-01
 0.82730003E+02 -0.10814E-01
 0.82779999E+02 -0.61343E-02
 0.82830002E+02  0.27695E-02
 0.82880005E+02  0.44278E-02
 0.82930000E+02 -0.34854E-03
 0.82980003E+02 -0.41542E-02
 0.83029999E+02 -0.65467E-02
 0.83080002E+02 -0.80272E-02
 0.83130005E+02 -0.91675E-02
 0.83180000E+02 -0.55379E-02
 0.83230003E+02  0.21985E-02
 0.83279999E+02  0.11129E-01
 0.83330002E+02  0.20914E-01
 0.83380005E+02  0.24893E-01
 0.83430000E+02  0.26503E-01
 0.83480003E+02  0.27350E-01
 0.83529999E+02  0.22293E-01
 0.83580002E+02  0.12967E-01
 0.83630005E+02  0.49333E-02
 0.83680000E+02  0.19024E-03
 0.83730003E+02 -0.39657E-02
 0.83779999E+02 -0.91461E-02
 0.83830002E+02 -0.15810E-01
 0.83880005E+02 -0.19045E-01
 0.83930000E+02 -0.21919E-01
 0.83980003E+02 -0.24138E-01
 0.84029999E+02 -0.20475E-01
 0.84080002E+02 -0.16442E-01
 0.84130005E+02 -0.12523E-01
 0.84180000E+02 -0.11768E-01
 0.84230003E+02 -0.13264E-01
 0.84279999E+02 -0.12868E-01
 0.84330002E+02 -0.10676E-01
 0.84380005E+02 -0.39708E-02
 0.84430000E+02  0.45321E-02
 0.84480003E+02  0.14054E-01
 0.84529999E+02  0.21855E-01
 0.84580002E+02  0.26036E-01
 0.84630005E+02  0.26385E-01
 0.84680000E+02  0.23133E-01
 0.84730003E+02  0.18591E-01
 0.84779999E+02  0.10565E-01
 0.84830002E+02  0.67531E-02
 0.84880005E+02  0.10317E-01
 0.84930000E+02  0.10215E-01
 0.84980003E+02  0.31037E-02
 0.85029999E+02 -0.52744E-03
 0.85080002E+02 -0.33810E-02
 0.85130005E+02 -0.11731E-01
 0.85180000E+02 -0.16659E-01
 0.85230003E+02 -0.18890E-01
 0.85279999E+02 -0.20510E-01
 0.85330002E+02 -0.22351E-01
 0.85380005E+02 -0.18716E-01
 0.85430000E+02 -0.89171E-02
 0.85480003E+02 -0.41624E-02
 0.85529999E+02  0.50106E-03
 0.85580002E+02  0.69307E-02
 0.85630005E+02  0.10190E-01
 0.85680000E+02  0.11146E-01
 0.85730003E+02  0.90491E-02
 0.85779999E+02  0.40784E-02
 0.85830002E+02  0.83515E-03
 0.85880005E+02  0.69142E-03
 0.85930000E+02  0.51922E-02
 0.85980003E+02  0.11590E-01
 0.86029999E+02  0.10868E-01
 0.86080002E+02  0.91804E-02
 0.86130005E+02  0.83009E-02
 0.86180000E+02  0.39064E-02
 0.86230003E+02 -0.16154E-02
 0.86279999E+02 -0.83474E-02
 0.86330002E+02 -0.14134E-01
 0.86380005E+02 -0.18669E-01
 0.86430000E+02 -0.21189E-01
 0.86480003E+02 -0.20299E-01
 0.86529999E+02 -0.11877E-01
 0.86580002E+02 -0.52715E-03
 0.86630005E+02  0.51694E-02
 0.86680000E+02  0.96257E-02
 0.86730003E+02  0.11643E-01
 0.86779999E+02  0.10691E-01
 0.86830002E+02  0.79226E-02
 0.86880005E+02  0.41490E-02
 0.86930000E+02  0.23488E-02
 0.86980003E+02  0.24698E-02
 0.87029999E+02  0.36194E-02
 0.87080002E+02  0.55709E-03
 0.87130005E+02 -0.70737E-03
 0.87180000E+02  0.21760E-02
 0.87230003E+02  0.36658E-02
 0.87279999E+02  0.74886E-02
 0.87330002E+02  0.93406E-02
 0.87380005E+02  0.79686E-02
 0.87430000E+02  0.29155E-02
 0.87480003E+02 -0.28950E-02
 0.87529999E+02 -0.24418E-02
 0.87580002E+02 -0.23188E-02
 0.87630005E+02  0.85827E-03
 0.87680000E+02  0.90704E-02
 0.87730003E+02  0.12185E-01
 0.87779999E+02  0.10335E-01
 0.87830002E+02  0.51490E-02
 0.87880005E+02 -0.44424E-02
 0.87930000E+02 -0.15096E-01
 0.87980003E+02 -0.23716E-01
 0.88029999E+02 -0.28859E-01
 0.88080002E+02 -0.26368E-01
 0.88130005E+02 -0.18407E-01
 0.88180000E+02 -0.12738E-01
 0.88230003E+02 -0.79518E-02
 0.88279999E+02 -0.11415E-02
 0.88330002E+02  0.43235E-02
 0.88380005E+02  0.58060E-02
 0.88430000E+02  0.89411E-02
 0.88480003E+02  0.12030E-01
 0.88529999E+02  0.13225E-01
 0.88580002E+02  0.14472E-01
 0.88630005E+02  0.11412E-01
 0.88680000E+02  0.81131E-02
 0.88730003E+02  0.27749E-02
 0.88779999E+02 -0.13902E-02
 0.88830002E+02 -0.19110E-02
 0.88880005E+02 -0.28749E-02
 0.88930000E+02 -0.93049E-03
 0.88980003E+02 -0.47047E-03
 0.89029999E+02  0.11122E-02
 0.89080002E+02  0.33977E-02
 0.89130005E+02  0.31878E-02
 0.89180000E+02  0.25117E-02
 0.89230003E+02 -0.30277E-02
 0.89279999E+02 -0.76412E-02
 0.89330002E+02 -0.73784E-02
 0.89380005E+02 -0.70778E-02
 0.89430000E+02 -0.86090E-02
 0.89480003E+02 -0.10838E-01
 0.89529999E+02 -0.94451E-02
 0.89580002E+02 -0.48572E-02
 0.89630005E+02  0.74196E-03
 0.89680000E+02  0.61014E-02
 0.89730003E+02  0.10660E-01
 0.89779999E+02  0.14526E-01
 0.89830002E+02  0.18608E-01
 0.89880005E+02  0.20193E-01
 0.89930000E+02  0.17896E-01
 0.89980003E+02  0.14729E-01
 0.90029999E+02  0.66843E-02
 0.90080002E+02 -0.35803E-02
 0.90130005E+02 -0.12698E-01
 0.90180000E+02 -0.20882E-01
 0.90230003E+02 -0.22015E-01
 0.90279999E+02 -0.17477E-01
 0.90330002E+02 -0.14265E-01
 0.90380005E+02 -0.10720E-01
 0.90430000E+02 -0.43466E-02
 0.90480003E+02  0.47908E-02
 0.90529999E+02  0.14202E-01
 0.90580002E+02  0.17060E-01
 0.90630005E+02  0.16710E-01
 0.90680000E+02  0.15905E-01
 0.90730003E+02  0.12250E-01
 0.90779999E+02  0.10166E-01
 0.90830002E+02  0.66395E-02
 0.90880005E+02 -0.76479E-03
 0.90930000E+02 -0.47582E-02
 0.90980003E+02 -0.64708E-02
 0.91029999E+02 -0.11224E-01
 0.91080002E+02 -0.15900E-01
 0.91130005E+02 -0.15708E-01
 0.91180000E+02 -0.14002E-01
 0.91230003E+02 -0.10095E-01
 0.91279999E+02 -0.66143E-02
 0.91330002E+02 -0.68760E-02
 0.91380005E+02 -0.59898E-02
 0.91430000E+02 -0.66414E-02
 0.91480003E+02 -0.54849E-02
 0.91529999E+02 -0.21574E-02
 0.91580002E+02  0.61638E-03
 0.91630005E+02  0.43660E-02
 0.91680000E+02  0.86679E-02
 0.91730003E+02  0.16082E-01
 0.91779999E+02  0.21118E-01
 0.91830002E+02  0.22239E-01
 0.91880005E+02  0.22082E-01
 0.91930000E+02  0.19489E-01
 0.91980003E+02  0.15606E-01
 0.92029999E+02  0.89010E-02
 0.92080002E+02  0.27126E-02
 0.92130005E+02  0.15234E-03
 0.92180000E+02 -0.34960E-02
 0.92230003E+02 -0.97633E-02
 0.92279999E+02 -0.13858E-01
 0.92330002E+02 -0.14605E-01
 0.92380005E+02 -0.17809E-01
 0.92430000E+02 -0.22384E-01
 0.92480003E+02 -0.23793E-01
 0.92529999E+02 -0.20511E-01
 0.92580002E+02 -0.13024E-01
 0.92630005E+02 -0.68995E-02
 0.92680000E+02 -0.13878E-02
 0.92730003E+02  0.49914E-02
 0.92779999E+02  0.81781E-02
 0.92830002E+02  0.11926E-01
 0.92880005E+02  0.14249E-01
 0.92930000E+02  0.10615E-01
 0.92980003E+02  0.60254E-02
 0.93029999E+02  0.34184E-02
 0.93080002E+02  0.44247E-02
 0.93130005E+02  0.50989E-02
 0.93180000E+02  0.58305E-02
 0.93230003E+02  0.66335E-02
 0.93279999E+02  0.41048E-02
 0.93330002E+02  0.15806E-02
 0.93380005E+02 -0.31686E-02
 0.93430000E+02 -0.71538E-02
 0.93480003E+02 -0.89484E-02
 0.93529999E+02 -0.12574E-01
 0.93580002E+02 -0.14915E-01
 0.93630005E+02 -0.15247E-01
 0.93680000E+02 -0.99383E-02
 0.93730003E+02 -0.24785E-02
 0.93779999E+02  0.88772E-03
 0.93830002E+02  0.62248E-02
 0.93880005E+02  0.10297E-01
 0.93930000E+02  0.11783E-01
 0.93980003E+02  0.10890E-01
 0.94029999E+02  0.60123E-02
 0.94080002E+02  0.37757E-02
 0.94130005E+02  0.27207E-02
 0.94180000E+02  0.37020E-02
 0.94230003E+02  0.73880E-02
 0.94279999E+02  0.90354E-02
 0.94330002E+02  0.90826E-02
 0.94380005E+02  0.53575E-02
 0.94430000E+02 -0.11498E-02
 0.94480003E+02 -0.46470E-02
 0.94529999E+02 -0.82328E-02
 0.94580002E+02 -0.12708E-01
 0.94630005E+02 -0.12560E-01
 0.94680000E+02 -0.10525E-01
 0.94730003E+02 -0.69550E-02
 0.94779999E+02 -0.25714E-02
 0.94830002E+02 -0.12415E-02
 0.94880005E+02  0.73526E-03
 0.94930000E+02  0.54751E-02
 0.94980003E+02  0.10206E-01
 0.95029999E+02  0.10224E-01
 0.95080002E+02  0.90787E-02
 0.95130005E+02  0.90176E-02
 0.95180000E+02  0.59279E-02
 0.95230003E+02  0.37480E-02
 0.95279999E+02  0.25917E-02
 0.95330002E+02  0.28015E-03
 0.95380005E+02 -0.30268E-02
 0.95430000E+02 -0.41864E-02
 0.95480003E+02 -0.31687E-02
 0.95529999E+02 -0.66264E-02
 0.95580002E+02 -0.10321E-01
 0.95630005E+02 -0.10979E-01
 0.95680000E+02 -0.93527E-02
 0.95730003E+02 -0.66950E-02
 0.95779999E+02 -0.34173E-02
 0.95830002E+02  0.14011E-02
 0.95880005E+02  0.40431E-02
 0.95930000E+02  0.63902E-02
 0.95980003E+02  0.71434E-02
 0.96029999E+02  0.54671E-02
 0.96080002E+02  0.24175E-02
 0.96130005E+02 -0.12994E-02
 0.96180000E+02 -0.42989E-02
 0.96230003E+02 -0.57151E-02
 0.96279999E+02 -0.22935E-02
 0.96330002E+02  0.35937E-03
 0.96380005E+02  0.26914E-03
 0.96430000E+02  0.35380E-03
 0.96480003E+02  0.26946E-02
 0.96529999E+02  0.46286E-02
 0.96580002E+02  0.21170E-02
 0.96630005E+02  0.20579E-02
 0.96680000E+02  0.47479E-02
 0.96730003E+02  0.56813E-02
 0.96779999E+02  0.54468E-02
 0.96830002E+02  0.49446E-02
 0.96880005E+02  0.52587E-02
 0.96930000E+02  0.56384E-02
 0.96980003E+02  0.51230E-02
 0.97029999E+02  0.23570E-02
 0.97080002E+02  0.10265E-03
 0.97130005E+02 -0.99749E-04
 0.97180000E+02 -0.57822E-02
 0.97230003E+02 -0.14284E-01
 0.97279999E+02 -0.19701E-01
 0.97330002E+02 -0.20483E-01
 0.97380005E+02 -0.16703E-01
 0.97430000E+02 -0.11232E-01
 0.97480003E+02 -0.28399E-02
 0.97529999E+02  0.31360E-02
 0.97580002E+02  0.48867E-02
 0.97630005E+02  0.62382E-02
 0.97680000E+02  0.49511E-02
 0.97730003E+02  0.12880E-02
 0.97779999E+02 -0.12469E-02
 0.97830002E+02 -0.18137E-02
 0.97880005E+02  0.49606E-03
 0.97930000E+02  0.33926E-02
 0.97980003E+02  0.50113E-02
 0.98029999E+02  0.70198E-02
 0.98080002E+02  0.57257E-02
 0.98130005E+02  0.41224E-02
 0.98180000E+02  0.55237E-02
 0.98230003E+02  0.71539E-02
 0.98279999E+02  0.87346E-02
 0.98330002E+02  0.10664E-01
 0.98380005E+02  0.12755E-01
 0.98430000E+02  0.12294E-01
 0.98480003E+02  0.84139E-02
 0.98529999E+02  0.11849E-02
 0.98580002E+02 -0.53337E-02
 0.98630005E+02 -0.79518E-02
 0.98680000E+02 -0.10486E-01
 0.98730003E+02 -0.13849E-01
 0.98779999E+02 -0.15345E-01
 0.98830002E+02 -0.12549E-01
 0.98880005E+02 -0.86329E-02
 0.98930000E+02 -0.70430E-02
 0.98980003E+02 -0.64014E-02
 0.99029999E+02 -0.53618E-02
 0.99080002E+02 -0.15372E-02
 0.99130005E+02  0.33150E-02
 0.99180000E+02  0.60562E-02
 0.99230003E+02  0.78519E-02
 0.99279999E+02  0.88765E-02
 0.99330002E+02  0.83094E-02
 0.99380005E+02  0.54184E-02
 0.99430000E+02  0.17113E-02
 0.99480003E+02 -0.16320E-02
 0.99529999E+02 -0.31564E-02
 0.99580002E+02 -0.18342E-02
 0.99630005E+02  0.38303E-03
 0.99680000E+02  0.27685E-02
 0.99730003E+02  0.30501E-02
 0.99779999E+02  0.17806E-02
 0.99830002E+02  0.29499E-02
 0.99880005E+02  0.48694E-02
 0.99930000E+02  0.39595E-02
 0.99980003E+02  0.28546E-02
 0.10003000E+03  0.22766E-02
 0.10008000E+03  0.12101E-02
 0.10013000E+03  0.24976E-03
 0.10018000E+03 -0.27403E-02
 0.10023000E+03 -0.77918E-02
 0.10028000E+03 -0.11710E-01
 0.10033000E+03 -0.11148E-01
 0.10038000E+03 -0.90335E-02
 0.10043000E+03 -0.63625E-02
 0.10048000E+03 -0.37242E-02
 0.10053000E+03 -0.27981E-02
 0.10058000E+03  0.10109E-02
 0.10063000E+03  0.55867E-02
 0.10068000E+03  0.77985E-02
 0.10073000E+03  0.80551E-02
 0.10078000E+03  0.64870E-02
 0.10083000E+03  0.30388E-02
 0.10088000E+03 -0.97816E-03
 0.10093000E+03 -0.28640E-02
 0.10098000E+03 -0.47817E-02
 0.10103000E+03 -0.62282E-02
 0.10108000E+03 -0.45234E-02
 0.10113000E+03  0.13250E-03
 0.10118000E+03  0.62212E-02
 0.10123000E+03  0.97029E-02
 0.10128000E+03  0.88789E-02
 0.10133000E+03  0.72975E-02
 0.10138000E+03  0.52793E-02
 0.10143000E+03  0.74779E-03
 0.10148000E+03 -0.25338E-02
 0.10153000E+03 -0.45058E-02
 0.10158000E+03 -0.75762E-02
 0.10163000E+03 -0.85692E-02
 0.10168000E+03 -0.81615E-02
 0.10173000E+03 -0.77722E-02
 0.10178000E+03 -0.61669E-02
 0.10183000E+03 -0.46364E-02
 0.10188000E+03 -0.38774E-02
 0.10193000E+03 -0.33141E-02
 0.10198000E+03 -0.20357E-02
 0.10203000E+03  0.12441E-02
 0.10208000E+03  0.54656E-02
 0.10213000E+03  0.80436E-02
 0.10218000E+03  0.93475E-02
 0.10223000E+03  0.95335E-02
 0.10228000E+03  0.79487E-02
 0.10233000E+03  0.62079E-02
 0.10238000E+03  0.52661E-02
 0.10243000E+03  0.50972E-02
 0.10248000E+03  0.52210E-02
 0.10253000E+03  0.50247E-02
 0.10258000E+03  0.48626E-02
 0.10263000E+03  0.38699E-02
 0.10268000E+03  0.16782E-02
 0.10273000E+03 -0.32865E-03
 0.10278000E+03 -0.21116E-02
 0.10283000E+03 -0.38205E-02
 0.10288000E+03 -0.75214E-02
 0.10293000E+03 -0.99194E-02
 0.10298000E+03 -0.88716E-02
 0.10303000E+03 -0.10537E-01
 0.10308000E+03 -0.11008E-01
 0.10313000E+03 -0.91075E-02
 0.10318000E+03 -0.73545E-02
 0.10323000E+03 -0.32760E-02
 0.10328000E+03  0.58466E-05
 0.10333000E+03  0.35950E-02
 0.10338000E+03  0.74419E-02
 0.10343000E+03  0.89437E-02
 0.10348000E+03  0.10587E-01
 0.10353000E+03  0.11705E-01
 0.10358000E+03  0.11426E-01
 0.10363000E+03  0.94818E-02
 0.10368000E+03  0.50241E-02
 0.10373000E+03  0.92212E-03
 0.10378000E+03 -0.20178E-02
 0.10383000E+03 -0.52783E-02
 0.10388000E+03 -0.69025E-02
 0.10393000E+03 -0.91525E-02
 0.10398000E+03 -0.12515E-01
 0.10403000E+03 -0.12892E-01
 0.10408000E+03 -0.10508E-01
 0.10413000E+03 -0.52574E-02
 0.10418000E+03 -0.20009E-02
 0.10423000E+03 -0.12252E-02
 0.10428000E+03  0.19449E-02
 0.10433000E+03  0.49150E-02
 0.10438000E+03  0.64399E-02
 0.10443000E+03  0.61264E-02
 0.10448000E+03  0.48139E-02
 0.10453000E+03  0.26434E-02
 0.10458000E+03  0.32643E-03
 0.10463000E+03 -0.45271E-03
 0.10468000E+03 -0.28654E-02
 0.10473000E+03 -0.55256E-02
 0.10478000E+03 -0.56686E-02
 0.10483000E+03 -0.35292E-02
 0.10488000E+03 -0.13868E-03
 0.10493000E+03  0.19257E-02
 0.10498000E+03  0.29085E-02
 0.10503000E+03  0.40718E-02
 0.10508000E+03  0.60763E-02
 0.10513000E+03  0.70455E-02
 0.10518000E+03  0.50379E-02
 0.10523000E+03  0.35937E-02
 0.10528000E+03  0.35130E-02
 0.10533000E+03  0.33953E-02
 0.10538000E+03  0.37168E-02
 0.10543000E+03  0.37494E-02
 0.10548000E+03  0.33516E-02
 0.10553000E+03  0.19579E-02
 0.10558000E+03  0.23712E-03
 0.10563000E+03 -0.10031E-02
 0.10568000E+03 -0.23801E-02
 0.10573000E+03 -0.32773E-02
 0.10578000E+03 -0.44456E-02
 0.10583000E+03 -0.57966E-02
 0.10588000E+03 -0.55986E-02
 0.10593000E+03 -0.53781E-02
 0.10598000E+03 -0.66831E-02
 0.10603000E+03 -0.53249E-02
 0.10608000E+03 -0.17447E-02
 0.10613000E+03 -0.50590E-03
 0.10618000E+03  0.17208E-02
 0.10623000E+03  0.39601E-02
 0.10628000E+03  0.29106E-02
 0.10633000E+03 -0.91103E-04
 0.10638000E+03 -0.45347E-02
 0.10643000E+03 -0.69699E-02
 0.10648000E+03 -0.73022E-02
 0.10653000E+03 -0.55501E-02
 0.10658000E+03 -0.59309E-03
 0.10663000E+03  0.48368E-02
 0.10668000E+03  0.97140E-02
 0.10673000E+03  0.11948E-01
 0.10678000E+03  0.10863E-01
 0.10683000E+03  0.90318E-02
 0.10688000E+03  0.73406E-02
 0.10693000E+03  0.50171E-02
 0.10698000E+03  0.31108E-02
 0.10703000E+03  0.26568E-02
 0.10708000E+03  0.18836E-02
 0.10713000E+03 -0.16009E-02
 0.10718000E+03 -0.67849E-02
 0.10723000E+03 -0.10686E-01
 0.10728000E+03 -0.12615E-01
 0.10733000E+03 -0.12357E-01
 0.10738000E+03 -0.10718E-01
 0.10743000E+03 -0.81918E-02
 0.10748000E+03 -0.54156E-02
 0.10753000E+03 -0.39742E-02
 0.10758000E+03 -0.34132E-02
 0.10763000E+03 -0.26188E-02
 0.10768000E+03 -0.10259E-02
 0.10773000E+03  0.21972E-02
 0.10778000E+03  0.62255E-02
 0.10783000E+03  0.99580E-02
 0.10788000E+03  0.14270E-01
 0.10793000E+03  0.16114E-01
 0.10798000E+03  0.14313E-01
 0.10803000E+03  0.12454E-01
 0.10808000E+03  0.97495E-02
 0.10813000E+03  0.53928E-02
 0.10818000E+03  0.55557E-03
 0.10823000E+03 -0.35428E-02
 0.10828000E+03 -0.69686E-02
 0.10833000E+03 -0.11316E-01
 0.10838000E+03 -0.13916E-01
 0.10843000E+03 -0.13549E-01
 0.10848000E+03 -0.11289E-01
 0.10853000E+03 -0.77444E-02
 0.10858000E+03 -0.42389E-02
 0.10863000E+03  0.22827E-03
 0.10868000E+03  0.39386E-02
 0.10873000E+03  0.55300E-02
 0.10878000E+03  0.49759E-02
 0.10883000E+03  0.37973E-02
 0.10888000E+03  0.40627E-02
 0.10893000E+03  0.32593E-02
 0.10898000E+03  0.27172E-02
 0.10903000E+03  0.25989E-02
 0.10908000E+03  0.10458E-02
 0.10913000E+03 -0.62558E-03
 0.10918000E+03 -0.23841E-02
 0.10923000E+03 -0.41039E-02
 0.10928000E+03 -0.54573E-02
 0.10933000E+03 -0.58384E-02
 0.10938000E+03 -0.48621E-02
 0.10943000E+03 -0.36401E-02
 0.10948000E+03 -0.26424E-02
 0.10953000E+03 -0.18741E-02
 0.10958000E+03 -0.55183E-03
 0.10963000E+03  0.32356E-02
 0.10968000E+03  0.64997E-02
 0.10973000E+03  0.70264E-02
 0.10978000E+03  0.74004E-02
 0.10983000E+03  0.78535E-02
 0.10988000E+03  0.84552E-02
 0.10993000E+03  0.79734E-02
 0.10998000E+03  0.54328E-02
 0.11003000E+03  0.25648E-02
 0.11008000E+03 -0.71369E-03
 0.11013000E+03 -0.31283E-02
 0.11018000E+03 -0.51308E-02
 0.11023000E+03 -0.80958E-02
 0.11028000E+03 -0.76627E-02
 0.11033000E+03 -0.46390E-02
 0.11038000E+03 -0.26163E-02
 0.11043000E+03 -0.83646E-03
 0.11048000E+03  0.30859E-04
 0.11053000E+03  0.97450E-03
 0.11058000E+03  0.11638E-02
 0.11063000E+03 -0.79307E-03
 0.11068000E+03 -0.30644E-02
 0.11073000E+03 -0.52432E-02
 0.11078000E+03 -0.58219E-02
 0.11083000E+03 -0.44365E-02
 0.11088000E+03 -0.29061E-02
 0.11093000E+03 -0.10924E-02
 0.11098000E+03  0.23766E-02
 0.11103000E+03  0.59177E-02
 0.11108000E+03  0.78496E-02
 0.11113000E+03  0.92489E-02
 0.11118000E+03  0.87990E-02
 0.11123000E+03  0.57648E-02
 0.11128000E+03  0.24118E-02
 0.11133000E+03 -0.57433E-04
 0.11138000E+03 -0.11757E-02
 0.11143000E+03 -0.22237E-02
 0.11148000E+03 -0.46088E-02
 0.11153000E+03 -0.65796E-02
 0.11158000E+03 -0.67200E-02
 0.11163000E+03 -0.60240E-02
 0.11168000E+03 -0.49724E-02
 0.11173000E+03 -0.35030E-02
 0.11178000E+03 -0.19808E-02
 0.11183000E+03  0.61707E-03
 0.11188000E+03  0.20229E-02
 0.11193000E+03  0.57947E-03
 0.11198000E+03 -0.10811E-02
 0.11203000E+03 -0.21470E-02
 0.11208000E+03 -0.16956E-02
 0.11213000E+03 -0.13624E-05
 0.11218000E+03  0.25086E-02
 0.11223000E+03  0.59053E-02
 0.11228000E+03  0.89227E-02
 0.11233000E+03  0.10154E-01
 0.11238000E+03  0.85333E-02
 0.11243000E+03  0.56443E-02
 0.11248000E+03  0.22131E-02
 0.11253000E+03 -0.93002E-03
 0.11258000E+03 -0.25727E-02
 0.11263000E+03 -0.41956E-02
 0.11268000E+03 -0.54814E-02
 0.11273000E+03 -0.67946E-02
 0.11278000E+03 -0.79025E-02
 0.11283000E+03 -0.67862E-02
 0.11288000E+03 -0.53423E-02
 0.11293000E+03 -0.31831E-02
 0.11298000E+03 -0.28161E-03
 0.11303000E+03  0.17138E-02
 0.11308000E+03  0.36319E-02
 0.11313000E+03  0.32720E-02
 0.11318000E+03  0.15491E-02
 0.11323000E+03  0.10322E-02
 0.11328000E+03  0.32302E-03
 0.11333000E+03  0.11460E-03
 0.11338000E+03  0.66004E-03
 0.11343000E+03  0.13504E-02
 0.11348000E+03  0.30129E-02
 0.11353000E+03  0.34211E-02
 0.11358000E+03  0.19810E-02
 0.11363000E+03  0.80133E-03
 0.11368000E+03 -0.28268E-03
 0.11373000E+03  0.14164E-03
 0.11378000E+03  0.12567E-02
 0.11383000E+03  0.16770E-02
 0.11388000E+03  0.21848E-02
 0.11393000E+03  0.17773E-02
 0.11398000E+03  0.20801E-02
 0.11403000E+03  0.30903E-02
 0.11408000E+03  0.19510E-02
 0.11413000E+03  0.10057E-02
 0.11418000E+03  0.20703E-02
 0.11423000E+03  0.20196E-02
 0.11428000E+03  0.83067E-03
 0.11433000E+03 -0.15487E-02
 0.11438000E+03 -0.45359E-02
 0.11443000E+03 -0.47443E-02
 0.11448000E+03 -0.49053E-02
 0.11453000E+03 -0.60416E-02
 0.11458000E+03 -0.56339E-02
 0.11463000E+03 -0.45748E-02
 0.11468000E+03 -0.28528E-02
 0.11473000E+03 -0.12449E-02
 0.11478000E+03 -0.60248E-03
 0.11483000E+03 -0.53190E-03
 0.11488000E+03 -0.69760E-03
 0.11493000E+03 -0.69187E-03
 0.11498000E+03 -0.17276E-02
 0.11503000E+03 -0.16020E-02
 0.11508000E+03 -0.63922E-03
 0.11513000E+03 -0.73517E-03
 0.11518000E+03  0.36107E-03
 0.11523000E+03  0.23185E-02
 0.11528000E+03  0.45479E-02
 0.11533000E+03  0.56591E-02
 0.11538000E+03  0.52959E-02
 0.11543000E+03  0.37254E-02
 0.11548000E+03  0.13910E-02
 0.11553000E+03 -0.30740E-03
 0.11558000E+03 -0.14597E-02
 0.11563000E+03 -0.12233E-02
 0.11568000E+03 -0.11358E-02
 0.11573000E+03 -0.10462E-02
 0.11578000E+03  0.30964E-03
 0.11583000E+03  0.97713E-03
 0.11588000E+03  0.13211E-02
 0.11593000E+03  0.18927E-02
 0.11598000E+03  0.23683E-02
 0.11603000E+03  0.21791E-02
 0.11608000E+03  0.10637E-02
 0.11613000E+03 -0.66601E-03
 0.11618000E+03 -0.34641E-02
 0.11623000E+03 -0.63142E-02
 0.11628000E+03 -0.84071E-02
 0.11633000E+03 -0.96803E-02
 0.11638000E+03 -0.89823E-02
 0.11643000E+03 -0.50673E-02
 0.11648000E+03  0.15071E-03
 0.11653000E+03  0.42369E-02
 0.11658000E+03  0.63158E-02
 0.11663000E+03  0.69421E-02
 0.11668000E+03  0.78457E-02
 0.11673000E+03  0.79758E-02
 0.11678000E+03  0.69541E-02
 0.11683000E+03  0.56301E-02
 0.11688000E+03  0.44108E-02
 0.11693000E+03  0.31830E-02
 0.11698000E+03  0.17742E-02
 0.11703000E+03  0.52938E-04
 0.11708000E+03 -0.60012E-03
 0.11713000E+03 -0.45591E-03
 0.11718000E+03 -0.19086E-02
 0.11723000E+03 -0.21106E-02
 0.11728000E+03 -0.16901E-02
 0.11733000E+03 -0.20270E-02
 0.11738000E+03 -0.20411E-02
 0.11743000E+03 -0.19925E-02
 0.11748000E+03 -0.31266E-03
 0.11753000E+03  0.87748E-03
 0.11758000E+03  0.39883E-03
 0.11763000E+03 -0.40926E-04
 0.11768000E+03  0.12615E-03
 0.11773000E+03  0.16113E-04
 0.11778000E+03 -0.12813E-02
 0.11783000E+03 -0.21522E-02
 0.11788000E+03 -0.24876E-02
 0.11793000E+03 -0.21316E-02
 0.11798000E+03 -0.15511E-02
 0.11803000E+03 -0.14086E-02
 0.11808000E+03 -0.81979E-03
 0.11813000E+03  0.98295E-05
 0.11818000E+03  0.46651E-03
 0.11823000E+03 -0.64541E-03
 0.11828000E+03 -0.20360E-02
 0.11833000E+03 -0.31971E-02
 0.11838000E+03 -0.39853E-02
 0.11843000E+03 -0.23967E-02
 0.11848000E+03 -0.34210E-03
 0.11853000E+03  0.15291E-02
 0.11858000E+03  0.34757E-02
 0.11863000E+03  0.33536E-02
 0.11868000E+03  0.24519E-02
 0.11873000E+03  0.16263E-02
 0.11878000E+03  0.10799E-02
 0.11883000E+03  0.19149E-02
 0.11888000E+03  0.18508E-02
 0.11893000E+03  0.87565E-03
 0.11898000E+03  0.14820E-03
 0.11903000E+03 -0.11883E-02
 0.11908000E+03 -0.22112E-02
 0.11913000E+03 -0.29582E-02
 0.11918000E+03 -0.35933E-02
 0.11923000E+03 -0.32791E-02
 0.11928000E+03 -0.25008E-02
 0.11933000E+03 -0.15471E-02
 0.11938000E+03 -0.68987E-03
 0.11943000E+03  0.55702E-03
 0.11948000E+03  0.24498E-02
 0.11953000E+03  0.37263E-02
 0.11958000E+03  0.42885E-02
 0.11963000E+03  0.45807E-02
 0.11968000E+03  0.36595E-02
 0.11973000E+03  0.97835E-03
 0.11978000E+03 -0.19390E-02
 0.11983000E+03 -0.40386E-02
 0.11988000E+03 -0.53741E-02
 0.11993000E+03 -0.56888E-02
 0.11998000E+03 -0.41018E-02
 0.12003000E+03 -0.17975E-02
 0.12008000E+03 -0.33756E-03
 0.12013000E+03  0.14579E-02
 0.12018000E+03  0.33914E-02
 0.12023000E+03  0.43497E-02
 0.12028000E+03  0.44134E-02
 0.12033000E+03  0.35438E-02
 0.12038000E+03  0.15897E-02
 0.12043000E+03 -0.36401E-03
 0.12048000E+03 -0.16586E-02
 0.12053000E+03 -0.27736E-02
 0.12058000E+03 -0.33684E-02
 0.12063000E+03 -0.23899E-02
 0.12068000E+03  0.78615E-04
 0.12073000E+03  0.25360E-02
 0.12078000E+03  0.50405E-02
 0.12083000E+03  0.70067E-02
 0.12088000E+03  0.68170E-02
 0.12093000E+03  0.47672E-02
 0.12098000E+03  0.17676E-02
 0.12103000E+03 -0.83911E-03
 0.12108000E+03 -0.15351E-02
 0.12113000E+03 -0.11512E-02
 0.12118000E+03 -0.13049E-02
 0.12123000E+03 -0.13939E-02
 0.12128000E+03 -0.80914E-03
 0.12133000E+03  0.39194E-03
 0.12138000E+03  0.10823E-02
 0.12143000E+03  0.30206E-03
 0.12148000E+03 -0.65910E-03
 0.12153000E+03 -0.14278E-02
 0.12158000E+03 -0.20747E-02
 0.12163000E+03 -0.23005E-02
 0.12168000E+03 -0.26038E-02
 0.12173000E+03 -0.28447E-02
 0.12178000E+03 -0.24088E-02
 0.12183000E+03 -0.10534E-02
 0.12188000E+03 -0.26921E-03
 0.12193000E+03 -0.44791E-03
 0.12198000E+03 -0.47990E-03
 0.12203000E+03 -0.80136E-03
 0.12208000E+03 -0.16781E-02
 0.12213000E+03 -0.27585E-02
 0.12218000E+03 -0.27262E-02
 0.12223000E+03 -0.19119E-02
 0.12228000E+03 -0.37796E-03
 0.12233000E+03  0.20893E-02
 0.12238000E+03  0.37408E-02
 0.12243000E+03  0.44360E-02
 0.12248000E+03  0.30127E-02
 0.12253000E+03  0.55952E-03
 0.12258000E+03 -0.75657E-03
 0.12263000E+03 -0.12750E-02
 0.12268000E+03 -0.12719E-02
 0.12273000E+03 -0.14941E-02
 0.12278000E+03 -0.99437E-03
 0.12283000E+03  0.83183E-04
 0.12288000E+03  0.12451E-02
 0.12293000E+03  0.22503E-02
 0.12298000E+03  0.19028E-02
 0.12303000E+03  0.11932E-02
 0.12308000E+03 -0.25633E-04
 0.12313000E+03 -0.17566E-02
 0.12318000E+03 -0.28245E-02
 0.12323000E+03 -0.36108E-02
 0.12328000E+03 -0.36758E-02
 0.12333000E+03 -0.29615E-02
 0.12338000E+03 -0.21255E-02
 0.12343000E+03 -0.11780E-02
 0.12348000E+03 -0.63394E-04
 0.12353000E+03  0.17907E-02
 0.12358000E+03  0.24256E-02
 0.12363000E+03  0.90495E-03
 0.12368000E+03 -0.62612E-03
 0.12373000E+03 -0.19103E-02
 0.12378000E+03 -0.21533E-02
 0.12383000E+03 -0.15337E-02
 0.12388000E+03 -0.13451E-02
 0.12393000E+03 -0.84001E-03
 0.12398000E+03  0.70048E-03
 0.12403000E+03  0.27887E-02
 0.12408000E+03  0.40607E-02
 0.12413000E+03  0.46771E-02
 0.12418000E+03  0.54280E-02
 0.12423000E+03  0.62513E-02
 0.12428000E+03  0.69805E-02
 0.12433000E+03  0.73443E-02
 0.12438000E+03  0.69989E-02
 0.12443000E+03  0.48982E-02
 0.12448000E+03  0.15195E-02
 0.12453000E+03 -0.12152E-02
 0.12458000E+03 -0.31999E-02
 0.12463000E+03 -0.43164E-02
 0.12468000E+03 -0.40235E-02
 0.12473000E+03 -0.35535E-02
 0.12478000E+03 -0.39440E-02
 0.12483000E+03 -0.48029E-02
 0.12488000E+03 -0.52440E-02
 0.12493000E+03 -0.50366E-02
 0.12498000E+03 -0.39897E-02
 0.12503000E+03 -0.17834E-02
 0.12508000E+03  0.15352E-03
 0.12513000E+03  0.18255E-02
 0.12518000E+03  0.37511E-02
 0.12523000E+03  0.44814E-02
 0.12528000E+03  0.42316E-02
 0.12533000E+03  0.33789E-02
 0.12538000E+03  0.27844E-02
 0.12543000E+03  0.25432E-02
 0.12548000E+03  0.21021E-02
 0.12553000E+03  0.19638E-02
 0.12558000E+03  0.10476E-02
 0.12563000E+03  0.68178E-03
 0.12568000E+03 -0.92616E-04
 0.12573000E+03 -0.18839E-02
 0.12578000E+03 -0.16782E-02
 0.12583000E+03 -0.15252E-02
 0.12588000E+03 -0.15079E-02
 0.12593000E+03 -0.18104E-02
 0.12598000E+03 -0.34892E-02
 0.12603000E+03 -0.41439E-02
 0.12608000E+03 -0.43577E-02
 0.12613000E+03 -0.42810E-02
 0.12618000E+03 -0.40744E-02
 0.12623000E+03 -0.41854E-02
 0.12628000E+03 -0.39595E-02
 0.12633000E+03 -0.30489E-02
 0.12638000E+03 -0.17573E-02
 0.12643000E+03 -0.17055E-02
 0.12648000E+03 -0.17480E-02
 0.12653000E+03 -0.83827E-03
 0.12658000E+03 -0.45714E-04
 0.12663000E+03  0.17713E-03
 0.12668000E+03  0.91394E-03
 0.12673000E+03  0.11153E-02
 0.12678000E+03 -0.11728E-03
 0.12683000E+03 -0.40407E-03
 0.12688000E+03  0.55062E-03
 0.12693000E+03  0.21092E-02
 0.12698000E+03  0.34673E-02
 0.12703000E+03  0.42164E-02
 0.12708000E+03  0.37277E-02
 0.12713000E+03  0.23481E-02
 0.12718000E+03  0.67958E-03
 0.12723000E+03 -0.97859E-03
 0.12728000E+03 -0.84609E-03
 0.12733000E+03 -0.32193E-03
 0.12738000E+03  0.13337E-03
 0.12743000E+03  0.90526E-03
 0.12748000E+03  0.12511E-02
 0.12753000E+03  0.20663E-02
 0.12758000E+03  0.26396E-02
 0.12763000E+03  0.28549E-02
 0.12768000E+03  0.31217E-02
 0.12773000E+03  0.30496E-02
 0.12778000E+03  0.38384E-02
 0.12783000E+03  0.49033E-02
 0.12788000E+03  0.47429E-02
 0.12793000E+03  0.35147E-02
 0.12798000E+03  0.23103E-02
 0.12803000E+03  0.14903E-02
 0.12808000E+03  0.14147E-03
 0.12813000E+03 -0.11510E-02
 0.12818001E+03 -0.20982E-02
 0.12823000E+03 -0.31546E-02
 0.12828000E+03 -0.43230E-02
 0.12833000E+03 -0.48799E-02
 0.12838000E+03 -0.38265E-02
 0.12843001E+03 -0.28809E-02
 0.12848000E+03 -0.28880E-02
 0.12853000E+03 -0.28060E-02
 0.12858000E+03 -0.26978E-02
 0.12863000E+03 -0.23090E-02
 0.12868001E+03 -0.20365E-02
 0.12873000E+03 -0.11516E-02
 0.12878000E+03  0.31619E-03
 0.12883000E+03  0.51025E-03
 0.12888000E+03  0.75974E-03
 0.12893001E+03  0.10807E-02
 0.12898000E+03  0.10113E-02
 0.12903000E+03  0.10180E-02
 0.12908000E+03  0.94241E-03
 0.12913000E+03  0.19729E-02
 0.12918001E+03  0.31935E-02
 0.12923000E+03  0.38764E-02
 0.12928000E+03  0.43407E-02
 0.12933000E+03  0.32246E-02
 0.12938000E+03  0.12312E-02
 0.12943001E+03 -0.41099E-03
 0.12948000E+03 -0.20561E-02
 0.12953000E+03 -0.27912E-02
 0.12958000E+03 -0.27027E-02
 0.12963000E+03 -0.21023E-02
 0.12968001E+03 -0.96830E-03
 0.12973000E+03 -0.45045E-03
 0.12978000E+03 -0.37314E-03
 0.12983000E+03 -0.88397E-04
 0.12988000E+03  0.16662E-03
 0.12993001E+03 -0.25029E-03
 0.12998000E+03 -0.56659E-03
 0.13003000E+03 -0.65491E-03
 0.13008000E+03 -0.12465E-02
 0.13013000E+03 -0.13878E-02
 0.13018001E+03 -0.18612E-02
 0.13023000E+03 -0.27466E-02
 0.13028000E+03 -0.24204E-02
 0.13033000E+03 -0.18302E-02
 0.13038000E+03 -0.18810E-02
 0.13043001E+03 -0.24770E-02
 0.13048000E+03 -0.30687E-02
 0.13053000E+03 -0.23026E-02
 0.13058000E+03 -0.14304E-02
 0.13063000E+03 -0.16757E-02
 0.13068001E+03 -0.14168E-02
 0.13073000E+03 -0.10754E-02
 0.13078000E+03 -0.91735E-03
 0.13083000E+03 -0.25545E-03
 0.13088000E+03  0.62794E-03
 0.13093001E+03  0.23472E-02
 0.13098000E+03  0.35225E-02
 0.13103000E+03  0.39914E-02
 0.13108000E+03  0.47027E-02
 0.13113000E+03  0.47271E-02
 0.13118001E+03  0.52005E-02
 0.13123000E+03  0.60824E-02
 0.13128000E+03  0.63255E-02
 0.13133000E+03  0.62922E-02
 0.13138000E+03  0.57299E-02
 0.13143001E+03  0.46068E-02
 0.13148000E+03  0.31359E-02
 0.13153000E+03  0.16888E-02
 0.13158000E+03  0.20341E-03
 0.13163000E+03 -0.20396E-02
 0.13168001E+03 -0.47656E-02
 0.13173000E+03 -0.66030E-02
 0.13178000E+03 -0.73816E-02
 0.13183000E+03 -0.80453E-02
 0.13188000E+03 -0.85838E-02
 0.13193001E+03 -0.77528E-02
 0.13198000E+03 -0.53435E-02
 0.13203000E+03 -0.28523E-02
 0.13208000E+03 -0.48073E-03
 0.13213000E+03  0.12039E-02
 0.13218001E+03  0.20570E-02
 0.13223000E+03  0.30974E-02
 0.13228000E+03  0.40736E-02
 0.13233000E+03  0.52902E-02
 0.13238000E+03  0.65893E-02
 0.13243001E+03  0.69175E-02
 0.13248000E+03  0.57216E-02
 0.13253000E+03  0.33926E-02
 0.13258000E+03  0.12345E-02
 0.13263000E+03 -0.49490E-03
 0.13268001E+03 -0.18423E-02
 0.13273000E+03 -0.22898E-02
 0.13278000E+03 -0.23854E-02
 0.13283000E+03 -0.25051E-02
 0.13288000E+03 -0.29961E-02
 0.13293001E+03 -0.35946E-02
 0.13298000E+03 -0.38015E-02
 0.13303000E+03 -0.35039E-02
 0.13308000E+03 -0.19477E-02
 0.13313000E+03 -0.78018E-03
 0.13318001E+03 -0.21491E-03
 0.13323000E+03  0.63870E-03
 0.13328000E+03  0.11143E-02
 0.13333000E+03  0.14157E-02
 0.13338000E+03  0.13628E-02
 0.13343001E+03  0.13593E-02
 0.13348000E+03  0.16918E-02
 0.13353000E+03  0.16889E-02
 0.13358000E+03  0.14693E-02
 0.13363000E+03  0.11284E-02
 0.13368001E+03  0.22589E-03
 0.13373000E+03 -0.74416E-03
 0.13378000E+03 -0.14464E-02
 0.13383000E+03 -0.19746E-02
 0.13388000E+03 -0.18544E-02
 0.13393001E+03 -0.13486E-02
 0.13398000E+03 -0.38975E-03
 0.13403000E+03  0.72843E-03
 0.13408000E+03  0.95616E-03
 0.13413000E+03  0.86498E-03
 0.13418001E+03  0.49079E-03
 0.13423000E+03 -0.11880E-03
 0.13428000E+03 -0.94978E-03
 0.13433000E+03 -0.18746E-02
 0.13438000E+03 -0.16960E-02
 0.13443001E+03 -0.13240E-02
 0.13448000E+03 -0.10256E-02
 0.13453000E+03 -0.66796E-03
 0.13458000E+03 -0.53041E-03
 0.13463000E+03  0.66769E-04
 0.13468001E+03  0.57125E-03
 0.13473000E+03  0.90114E-03
 0.13478000E+03  0.10478E-02
 0.13483000E+03  0.82076E-03
 0.13488000E+03  0.62228E-03
 0.13493001E+03  0.83113E-04
 0.13498000E+03 -0.12946E-03
 0.13503000E+03 -0.48332E-04
 0.13508000E+03 -0.20694E-03
 0.13513000E+03  0.67981E-04
 0.13518001E+03  0.91597E-03
 0.13523000E+03  0.19347E-02
 0.13528000E+03  0.19830E-02
 0.13533000E+03  0.15992E-02
 0.13538000E+03  0.94848E-03
 0.13543001E+03 -0.23338E-03
 0.13548000E+03 -0.11424E-02
 0.13553000E+03 -0.21578E-02
 0.13558000E+03 -0.23913E-02
 0.13563000E+03 -0.17352E-02
 0.13568001E+03 -0.81692E-03
 0.13573000E+03 -0.20566E-04
 0.13578000E+03  0.46385E-03
 0.13583000E+03  0.12652E-02
 0.13588000E+03  0.20561E-02
 0.13593001E+03  0.26501E-02
 0.13598000E+03  0.30942E-02
 0.13603000E+03  0.33729E-02
 0.13608000E+03  0.30252E-02
 0.13613000E+03  0.24939E-02
 0.13618001E+03  0.18166E-02
 0.13623000E+03  0.40992E-03
 0.13628000E+03 -0.10811E-02
 0.13633000E+03 -0.25082E-02
 0.13638000E+03 -0.29945E-02
 0.13643001E+03 -0.25528E-02
 0.13648000E+03 -0.18331E-02
 0.13653000E+03 -0.99485E-03
 0.13658000E+03 -0.63847E-03
 0.13663000E+03 -0.67614E-04
 0.13668001E+03  0.63038E-03
 0.13673000E+03  0.99942E-03
 0.13678000E+03  0.15028E-02
 0.13683000E+03  0.17459E-02
 0.13688000E+03  0.19220E-02
 0.13693001E+03  0.23133E-02
 0.13698000E+03  0.18487E-02
 0.13703000E+03  0.46059E-04
 0.13708000E+03 -0.22666E-02
 0.13713000E+03 -0.40023E-02
 0.13718001E+03 -0.49377E-02
 0.13723000E+03 -0.53946E-02
 0.13728000E+03 -0.53960E-02
 0.13733000E+03 -0.44393E-02
 0.13738000E+03 -0.23219E-02
 0.13743001E+03 -0.58893E-03
 0.13748000E+03  0.47840E-03
 0.13753000E+03  0.18203E-02
 0.13758000E+03  0.27735E-02
 0.13763000E+03  0.33672E-02
 0.13768001E+03  0.34457E-02
 0.13773000E+03  0.28686E-02
 0.13778000E+03  0.23240E-02
 0.13783000E+03  0.16761E-02
 0.13788000E+03  0.56816E-03
 0.13793001E+03 -0.49585E-03
 0.13798000E+03 -0.98545E-03
 0.13803000E+03 -0.13397E-02
 0.13808000E+03 -0.14014E-02
 0.13813000E+03 -0.97028E-03
 0.13818001E+03 -0.51136E-03
 0.13823000E+03 -0.83070E-03
 0.13828000E+03 -0.15620E-02
 0.13833000E+03 -0.18626E-02
 0.13838000E+03 -0.19207E-02
 0.13843001E+03 -0.16693E-02
 0.13848000E+03 -0.12957E-02
 0.13853000E+03 -0.67962E-03
 0.13858000E+03  0.98404E-04
 0.13863000E+03  0.44585E-03
 0.13868001E+03  0.58250E-03
 0.13873000E+03  0.93487E-03
 0.13878000E+03  0.13077E-02
 0.13883000E+03  0.14623E-02
 0.13888000E+03  0.13060E-02
 0.13893001E+03  0.10467E-02
 0.13898000E+03  0.71051E-03
 0.13903000E+03  0.30910E-03
 0.13908000E+03  0.50250E-03
 0.13913000E+03  0.85852E-03
 0.13918001E+03  0.15868E-02
 0.13923000E+03  0.26614E-02
 0.13928000E+03  0.39352E-02
 0.13933000E+03  0.59413E-02
 0.13938000E+03  0.71201E-02
 0.13943001E+03  0.68377E-02
 0.13948000E+03  0.60103E-02
 0.13953000E+03  0.46611E-02
 0.13958000E+03  0.26528E-02
 0.13963000E+03  0.40360E-03
 0.13968001E+03 -0.21085E-02
 0.13973000E+03 -0.46228E-02
 0.13978000E+03 -0.66251E-02
 0.13983000E+03 -0.80933E-02
 0.13988000E+03 -0.91273E-02
 0.13993001E+03 -0.92474E-02
 0.13998000E+03 -0.82570E-02
 0.14003000E+03 -0.69548E-02
 0.14008000E+03 -0.55553E-02
 0.14013000E+03 -0.40734E-02
 0.14018001E+03 -0.23257E-02
 0.14023000E+03 -0.44157E-03
 0.14028000E+03  0.12034E-02
 0.14033000E+03  0.24153E-02
 0.14038000E+03  0.30322E-02
 0.14043001E+03  0.31917E-02
 0.14048000E+03  0.30637E-02
 0.14053000E+03  0.28418E-02
 0.14058000E+03  0.26186E-02
 0.14063000E+03  0.22315E-02
 0.14068001E+03  0.15391E-02
 0.14073000E+03  0.10031E-02
 0.14078000E+03  0.91074E-03
 0.14083000E+03  0.99103E-03
 0.14088000E+03  0.11438E-02
 0.14093001E+03  0.11947E-02
 0.14098000E+03  0.94113E-03
 0.14103000E+03  0.10704E-02
 0.14108000E+03  0.12072E-02
 0.14113000E+03  0.82670E-03
 0.14118001E+03  0.63567E-03
 0.14123000E+03  0.55349E-03
 0.14128000E+03  0.92453E-03
 0.14133000E+03  0.17057E-02
 0.14138000E+03  0.26684E-02
 0.14143001E+03  0.33886E-02
 0.14148000E+03  0.33992E-02
 0.14153000E+03  0.27487E-02
 0.14158000E+03  0.99517E-03
 0.14163000E+03 -0.53771E-03
 0.14168001E+03 -0.16511E-02
 0.14173000E+03 -0.28183E-02
 0.14178000E+03 -0.35139E-02
 0.14183000E+03 -0.41348E-02
 0.14188000E+03 -0.42438E-02
 0.14193001E+03 -0.44148E-02
 0.14198000E+03 -0.45746E-02
 0.14203000E+03 -0.39944E-02
 0.14208000E+03 -0.29693E-02
 0.14213000E+03 -0.13963E-02
 0.14218001E+03  0.27603E-05
 0.14223000E+03  0.12673E-02
 0.14228000E+03  0.17694E-02
 0.14233000E+03  0.16621E-02
 0.14238000E+03  0.17152E-02
 0.14243001E+03  0.13056E-02
 0.14248000E+03  0.12384E-02
 0.14253000E+03  0.15509E-02
 0.14258000E+03  0.16435E-02
 0.14263000E+03  0.17090E-02
 0.14268001E+03  0.17890E-02
 0.14273000E+03  0.10474E-02
 0.14278000E+03  0.97833E-04
 0.14283000E+03 -0.41086E-03
 0.14288000E+03 -0.11443E-02
 0.14293001E+03 -0.13904E-02
 0.14298000E+03 -0.13302E-02
 0.14303000E+03 -0.12686E-02
 0.14308000E+03 -0.12131E-02
 0.14313000E+03 -0.16079E-02
 0.14318001E+03 -0.14782E-02
 0.14323000E+03 -0.95361E-03
 0.14328000E+03 -0.80730E-03
 0.14333000E+03 -0.13376E-03
 0.14338000E+03  0.73427E-03
 0.14343001E+03  0.13682E-02
 0.14348000E+03  0.20938E-02
 0.14353000E+03  0.29022E-02
 0.14358000E+03  0.36762E-02
 0.14363000E+03  0.40992E-02
 0.14368001E+03  0.38174E-02
 0.14373000E+03  0.31659E-02
 0.14378000E+03  0.24041E-02
 0.14383000E+03  0.85318E-03
 0.14388000E+03 -0.79952E-03
 0.14393001E+03 -0.23773E-02
 0.14398000E+03 -0.35209E-02
 0.14403000E+03 -0.38633E-02
 0.14408000E+03 -0.38416E-02
 0.14413000E+03 -0.32672E-02
 0.14418001E+03 -0.26401E-02
 0.14423000E+03 -0.19531E-02
 0.14428000E+03 -0.12138E-02
 0.14433000E+03 -0.20936E-03
 0.14438000E+03  0.11045E-02
 0.14443001E+03  0.16440E-02
 0.14448000E+03  0.15333E-02
 0.14453000E+03  0.15126E-02
 0.14458000E+03  0.12360E-02
 0.14463000E+03  0.67025E-03
 0.14468001E+03  0.21063E-03
 0.14473000E+03 -0.43239E-04
 0.14478000E+03  0.23764E-03
 0.14483000E+03  0.78297E-03
 0.14488000E+03  0.68741E-03
 0.14493001E+03  0.25378E-03
 0.14498000E+03 -0.29467E-03
 0.14503000E+03 -0.99209E-03
 0.14508000E+03 -0.13056E-02
 0.14513000E+03 -0.10511E-02
 0.14518001E+03 -0.17665E-03
 0.14523000E+03  0.53454E-03
 0.14528000E+03  0.97383E-03
 0.14533000E+03  0.11344E-02
 0.14538000E+03  0.97842E-03
 0.14543001E+03  0.79230E-03
 0.14548000E+03  0.19144E-03
 0.14553000E+03 -0.10671E-03
 0.14558000E+03 -0.17183E-03
 0.14563000E+03 -0.39753E-03
 0.14568001E+03 -0.75471E-03
 0.14573000E+03 -0.13485E-02
 0.14578000E+03 -0.16079E-02
 0.14583000E+03 -0.16582E-02
 0.14588000E+03 -0.12867E-02
 0.14593001E+03 -0.45826E-03
 0.14598000E+03  0.17518E-03
 0.14603000E+03  0.72032E-03
 0.14608000E+03  0.11744E-02
 0.14613000E+03  0.15018E-02
 0.14618001E+03  0.13337E-02
 0.14623000E+03  0.58159E-03
 0.14628000E+03 -0.79978E-04
 0.14633000E+03 -0.63775E-03
 0.14638000E+03 -0.47044E-03
 0.14643001E+03  0.77579E-04
 0.14648000E+03  0.41536E-03
 0.14653000E+03  0.70495E-03
 0.14658000E+03  0.73892E-03
 0.14663000E+03  0.74238E-03
 0.14668001E+03  0.60475E-03
 0.14673000E+03  0.91932E-03
 0.14678000E+03  0.96328E-03
 0.14683000E+03  0.70703E-03
 0.14688000E+03  0.81792E-03
 0.14693001E+03  0.70022E-03
 0.14698000E+03  0.93037E-03
 0.14703000E+03  0.85400E-03
 0.14708000E+03  0.35215E-03
 0.14713000E+03 -0.19200E-03
 0.14718001E+03 -0.11281E-02
 0.14723000E+03 -0.22161E-02
 0.14728000E+03 -0.30642E-02
 0.14733000E+03 -0.37275E-02
 0.14738000E+03 -0.41296E-02
 0.14743001E+03 -0.37219E-02
 0.14748000E+03 -0.27715E-02
 0.14753000E+03 -0.12696E-02
 0.14758000E+03  0.57716E-03
 0.14763000E+03  0.18477E-02
 0.14768001E+03  0.23835E-02
 0.14773000E+03  0.25712E-02
 0.14778000E+03  0.24047E-02
 0.14783000E+03  0.18101E-02
 0.14788000E+03  0.11565E-02
 0.14793001E+03  0.48951E-03
 0.14798000E+03 -0.16969E-03
 0.14803000E+03 -0.22952E-04
 0.14808000E+03  0.68112E-03
 0.14813000E+03  0.12253E-02
 0.14818001E+03  0.15673E-02
 0.14823000E+03  0.12821E-02
 0.14828000E+03  0.47197E-03
 0.14833000E+03 -0.63580E-03
 0.14838000E+03 -0.17354E-02
 0.14843001E+03 -0.22863E-02
 0.14848000E+03 -0.20344E-02
 0.14853000E+03 -0.13382E-02
 0.14858000E+03 -0.58272E-03
 0.14863000E+03  0.19485E-03
 0.14868001E+03  0.49695E-03
 0.14873000E+03  0.24040E-03
 0.14878000E+03 -0.53291E-03
 0.14883000E+03 -0.16986E-02
 0.14888000E+03 -0.26605E-02
 0.14893001E+03 -0.29350E-02
 0.14898000E+03 -0.24425E-02
 0.14903000E+03 -0.15069E-02
 0.14908000E+03 -0.25610E-03
 0.14913000E+03  0.11431E-02
 0.14918001E+03  0.21203E-02
 0.14923000E+03  0.27538E-02
 0.14928000E+03  0.35247E-02
 0.14933000E+03  0.41612E-02
 0.14938000E+03  0.43751E-02
 0.14943001E+03  0.39370E-02
 0.14948000E+03  0.27801E-02
 0.14953000E+03  0.15685E-02
 0.14958000E+03  0.58156E-03
 0.14963000E+03 -0.24738E-03
 0.14968001E+03 -0.78340E-03
 0.14973000E+03 -0.75273E-03
 0.14978000E+03 -0.41516E-03
 0.14983000E+03 -0.40222E-03
 0.14988000E+03 -0.55747E-03
 0.14993001E+03 -0.12726E-02
 0.14998000E+03 -0.23155E-02
