-0.19996643E-01  0.15263E-02
 0.30003358E-01  0.85581E-03
 0.80003358E-01  0.35691E-03
 0.13000336E+00  0.81422E-05
 0.18000336E+00 -0.21594E-03
 0.23000336E+00 -0.34224E-03
 0.28000337E+00 -0.39576E-03
 0.33000335E+00 -0.39824E-03
 0.38000336E+00 -0.36812E-03
 0.43000337E+00 -0.31919E-03
 0.48000336E+00 -0.26202E-03
 0.53000337E+00 -0.20430E-03
 0.58000338E+00 -0.15082E-03
 0.63000339E+00 -0.10441E-03
 0.68000335E+00 -0.66456E-04
 0.73000336E+00 -0.36894E-04
 0.78000337E+00 -0.14718E-04
 0.83000338E+00  0.81949E-06
 0.88000339E+00  0.10717E-04
 0.93000335E+00  0.15972E-04
 0.98000336E+00  0.17973E-04
 0.10300034E+01  0.17993E-04
 0.10800034E+01  0.16416E-04
 0.11300033E+01  0.14357E-04
 0.11800034E+01  0.11970E-04
 0.12300034E+01  0.90002E-05
 0.12800034E+01  0.64144E-05
 0.13300034E+01  0.45765E-05
 0.13800033E+01  0.28822E-05
 0.14300034E+01  0.14509E-05
 0.14800034E+01  0.69574E-06
 0.15300034E+01 -0.61313E-07
 0.15800034E+01 -0.46601E-06
 0.16300033E+01 -0.67570E-06
 0.16800034E+01 -0.10372E-05
 0.17300034E+01 -0.71458E-06
 0.17800034E+01 -0.57885E-06
 0.18300034E+01 -0.80899E-06
 0.18800033E+01 -0.62147E-06
 0.19300034E+01 -0.43054E-06
 0.19800034E+01 -0.21460E-06
 0.20300033E+01 -0.15678E-06
 0.20800035E+01 -0.20973E-06
 0.21300035E+01 -0.16310E-06
 0.21800034E+01 -0.15004E-06
 0.22300034E+01  0.24720E-08
 0.22800033E+01 -0.28017E-07
 0.23300035E+01  0.19166E-07
 0.23800035E+01  0.40308E-07
 0.24300034E+01 -0.20194E-07
 0.24800034E+01  0.59669E-07
 0.25300033E+01  0.43599E-07
 0.25800035E+01  0.36499E-07
 0.26300035E+01 -0.26278E-07
 0.26800034E+01  0.42910E-09
 0.27300034E+01  0.82755E-07
 0.27800033E+01  0.68894E-07
 0.28300035E+01  0.49251E-07
 0.28800035E+01  0.18639E-06
 0.29300034E+01  0.83687E-07
 0.29800034E+01 -0.70290E-07
 0.30300033E+01 -0.67181E-08
 0.30800035E+01 -0.15712E-06
 0.31300035E+01  0.32385E-07
 0.31800034E+01  0.18425E-06
 0.32300034E+01  0.48543E-07
 0.32800033E+01  0.97884E-07
 0.33300035E+01  0.59895E-08
 0.33800035E+01 -0.38767E-07
 0.34300034E+01 -0.11195E-06
 0.34800034E+01 -0.16989E-06
 0.35300033E+01  0.54102E-07
 0.35800035E+01  0.13775E-06
 0.36300035E+01  0.10977E-07
 0.36800034E+01 -0.12588E-06
 0.37300034E+01 -0.15347E-06
 0.37800033E+01 -0.63285E-07
 0.38300035E+01  0.97920E-07
 0.38800035E+01  0.12262E-06
 0.39300034E+01  0.20389E-07
 0.39800034E+01 -0.16597E-06
 0.40300035E+01 -0.13114E-06
 0.40800033E+01  0.11222E-06
 0.41300035E+01  0.13317E-06
 0.41800036E+01  0.20151E-06
 0.42300034E+01 -0.46293E-09
 0.42800035E+01 -0.21594E-06
 0.43300033E+01 -0.95995E-07
 0.43800035E+01  0.22938E-07
 0.44300036E+01  0.22585E-06
 0.44800034E+01  0.19694E-06
 0.45300035E+01 -0.27646E-07
 0.45800033E+01 -0.50817E-08
 0.46300035E+01 -0.83389E-07
 0.46800036E+01 -0.69882E-07
 0.47300034E+01  0.15649E-06
 0.47800035E+01 -0.10092E-06
 0.48300033E+01 -0.23168E-06
 0.48800035E+01 -0.21228E-07
 0.49300036E+01  0.15497E-06
 0.49800034E+01  0.23688E-06
 0.50300035E+01  0.74073E-07
 0.50800033E+01 -0.19061E-06
 0.51300035E+01 -0.13768E-06
 0.51800036E+01  0.42382E-07
 0.52300034E+01 -0.13069E-06
 0.52800035E+01  0.20778E-06
 0.53300033E+01  0.32927E-06
 0.53800035E+01 -0.95884E-07
 0.54300036E+01 -0.14764E-06
 0.54800034E+01 -0.19967E-06
 0.55300035E+01  0.17465E-07
 0.55800033E+01  0.20428E-06
 0.56300035E+01 -0.35626E-07
 0.56800036E+01 -0.24403E-06
 0.57300034E+01  0.42994E-07
 0.57800035E+01  0.87445E-07
 0.58300033E+01 -0.10428E-06
 0.58800035E+01  0.14170E-06
 0.59300036E+01 -0.77214E-07
 0.59800034E+01 -0.22856E-06
 0.60300035E+01 -0.55782E-07
 0.60800033E+01 -0.11556E-06
 0.61300035E+01  0.15781E-06
 0.61800036E+01  0.45092E-06
 0.62300034E+01  0.33746E-07
 0.62800035E+01 -0.52230E-06
 0.63300033E+01 -0.49664E-06
 0.63800035E+01  0.77589E-07
 0.64300036E+01  0.41156E-06
 0.64800034E+01  0.11594E-06
 0.65300035E+01 -0.77751E-07
 0.65800033E+01 -0.71603E-07
 0.66300035E+01 -0.49483E-07
 0.66800036E+01  0.10697E-06
 0.67300034E+01  0.83413E-07
 0.67800035E+01 -0.25992E-07
 0.68300033E+01 -0.37040E-07
 0.68800035E+01  0.49462E-08
 0.69300036E+01  0.20381E-06
 0.69800034E+01  0.13855E-06
 0.70300035E+01  0.29149E-07
 0.70800033E+01 -0.46958E-07
 0.71300035E+01 -0.17264E-06
 0.71800036E+01 -0.68402E-07
 0.72300034E+01  0.27053E-07
 0.72800035E+01  0.15643E-06
 0.73300033E+01  0.13899E-06
 0.73800035E+01 -0.12953E-07
 0.74300036E+01 -0.68547E-08
 0.74800034E+01 -0.55323E-07
 0.75300035E+01 -0.61587E-07
 0.75800033E+01  0.28463E-06
 0.76300035E+01  0.64149E-06
 0.76800036E+01  0.19161E-06
 0.77300034E+01  0.18390E-06
 0.77800035E+01  0.66019E-06
 0.78300033E+01 -0.24646E-05
 0.78800035E+01  0.21663E-05
 0.79300036E+01 -0.19920E-05
 0.79800034E+01 -0.15407E-07
 0.80300035E+01  0.24392E-05
 0.80800037E+01 -0.52489E-05
 0.81300039E+01  0.91623E-05
 0.81800032E+01 -0.11553E-04
 0.82300034E+01  0.12964E-04
 0.82800035E+01 -0.11619E-04
 0.83300037E+01  0.75572E-05
 0.83800039E+01  0.16048E-05
 0.84300032E+01 -0.11356E-04
 0.84800034E+01  0.29232E-04
 0.85300035E+01 -0.49725E-04
 0.85800037E+01  0.32930E-04
 0.86300039E+01 -0.30680E-03
 0.86800032E+01 -0.33829E-03
 0.87300034E+01 -0.83921E-03
 0.87800035E+01 -0.11391E-02
 0.88300037E+01 -0.42757E-03
 0.88800039E+01 -0.10881E-02
 0.89300032E+01  0.82297E-03
 0.89800034E+01  0.22082E-02
 0.90300035E+01  0.18441E-04
 0.90800037E+01  0.11025E-02
 0.91300039E+01  0.77920E-03
 0.91800032E+01 -0.14031E-02
 0.92300034E+01  0.41769E-04
 0.92800035E+01 -0.52830E-03
 0.93300037E+01 -0.89584E-03
 0.93800039E+01 -0.17641E-03
 0.94300032E+01 -0.99225E-03
 0.94800034E+01  0.59704E-03
 0.95300035E+01  0.18922E-02
 0.95800037E+01  0.22274E-02
 0.96300039E+01  0.38586E-02
 0.96800032E+01  0.48247E-02
 0.97300034E+01  0.42834E-03
 0.97800035E+01 -0.44379E-02
 0.98300037E+01 -0.41782E-02
 0.98800039E+01 -0.34496E-02
 0.99300032E+01 -0.26281E-02
 0.99800034E+01 -0.99497E-03
 0.10030004E+02  0.12113E-02
 0.10080004E+02  0.31177E-02
 0.10130004E+02  0.36685E-02
 0.10180003E+02  0.16279E-02
 0.10230003E+02  0.64451E-04
 0.10280004E+02 -0.13934E-03
 0.10330004E+02 -0.98346E-03
 0.10380004E+02 -0.44994E-04
 0.10430003E+02 -0.79983E-03
 0.10480003E+02 -0.32121E-02
 0.10530004E+02 -0.25509E-02
 0.10580004E+02 -0.82088E-03
 0.10630004E+02 -0.99675E-04
 0.10680003E+02  0.26904E-02
 0.10730003E+02  0.32602E-02
 0.10780004E+02 -0.88128E-03
 0.10830004E+02 -0.13196E-02
 0.10880004E+02 -0.21880E-03
 0.10930003E+02 -0.12782E-02
 0.10980003E+02  0.18155E-02
 0.11030004E+02  0.42715E-02
 0.11080004E+02  0.19287E-03
 0.11130004E+02 -0.86409E-03
 0.11180003E+02 -0.15592E-02
 0.11230003E+02 -0.53130E-02
 0.11280004E+02 -0.38548E-02
 0.11330004E+02 -0.23321E-02
 0.11380004E+02 -0.10374E-02
 0.11430003E+02  0.40249E-02
 0.11480003E+02  0.41754E-02
 0.11530004E+02  0.24235E-02
 0.11580004E+02  0.49071E-02
 0.11630004E+02  0.22988E-02
 0.11680003E+02 -0.23055E-02
 0.11730003E+02 -0.12129E-02
 0.11780004E+02 -0.21488E-02
 0.11830004E+02 -0.47638E-02
 0.11880004E+02 -0.35690E-02
 0.11930003E+02 -0.33741E-02
 0.11980003E+02 -0.34419E-02
 0.12030004E+02  0.15817E-02
 0.12080004E+02  0.54352E-02
 0.12130004E+02  0.58619E-02
 0.12180003E+02  0.59481E-02
 0.12230003E+02  0.26589E-02
 0.12280004E+02 -0.23741E-03
 0.12330004E+02 -0.35061E-03
 0.12380004E+02 -0.27933E-02
 0.12430003E+02 -0.42618E-02
 0.12480003E+02 -0.21269E-02
 0.12530004E+02 -0.18193E-02
 0.12580004E+02 -0.14862E-02
 0.12630004E+02  0.12306E-02
 0.12680003E+02  0.18581E-02
 0.12730003E+02  0.17903E-02
 0.12780004E+02  0.28043E-02
 0.12830004E+02  0.23702E-02
 0.12880004E+02  0.15540E-02
 0.12930003E+02  0.70916E-03
 0.12980003E+02 -0.20203E-02
 0.13030004E+02 -0.34374E-02
 0.13080004E+02 -0.25070E-02
 0.13130004E+02 -0.17239E-02
 0.13180003E+02  0.93432E-04
 0.13230003E+02  0.89349E-03
 0.13280004E+02  0.97015E-03
 0.13330004E+02  0.19047E-02
 0.13380004E+02  0.19392E-02
 0.13430003E+02  0.11397E-02
 0.13480003E+02 -0.15078E-02
 0.13530004E+02 -0.16199E-02
 0.13580004E+02  0.51196E-03
 0.13630004E+02 -0.15555E-02
 0.13680003E+02 -0.23272E-02
 0.13730003E+02  0.22665E-03
 0.13780004E+02  0.14277E-02
 0.13830004E+02  0.19499E-02
 0.13880004E+02  0.96319E-03
 0.13930003E+02 -0.43697E-03
 0.13980003E+02 -0.85800E-03
 0.14030004E+02 -0.19823E-02
 0.14080004E+02 -0.15026E-02
 0.14130004E+02 -0.48068E-03
 0.14180003E+02 -0.52946E-03
 0.14230003E+02  0.47904E-03
 0.14280004E+02  0.51660E-03
 0.14330004E+02  0.15015E-03
 0.14380004E+02  0.24942E-03
 0.14430003E+02  0.23671E-03
 0.14480003E+02  0.16720E-03
 0.14530004E+02 -0.72452E-03
 0.14580004E+02 -0.16470E-02
 0.14630004E+02 -0.25267E-02
 0.14680003E+02 -0.23885E-02
 0.14730003E+02 -0.14206E-02
 0.14780004E+02 -0.72946E-04
 0.14830004E+02 -0.32318E-02
 0.14880004E+02 -0.60038E-02
 0.14930003E+02 -0.20997E-02
 0.14980003E+02  0.60313E-04
 0.15030004E+02  0.65254E-02
 0.15080004E+02  0.13603E-01
 0.15130004E+02  0.14704E-01
 0.15180003E+02  0.13157E-01
 0.15230003E+02  0.28327E-02
 0.15280004E+02 -0.73638E-02
 0.15330004E+02 -0.15067E-01
 0.15380004E+02 -0.13642E-01
 0.15430003E+02 -0.28282E-02
 0.15480003E+02 -0.35156E-02
 0.15530004E+02 -0.57313E-02
 0.15580004E+02 -0.17689E-02
 0.15630004E+02  0.57800E-03
 0.15680003E+02  0.12656E-02
 0.15730003E+02  0.58410E-02
 0.15780004E+02  0.75894E-02
 0.15830004E+02  0.14933E-02
 0.15880004E+02 -0.49195E-03
 0.15930003E+02 -0.37158E-03
 0.15980003E+02  0.36915E-03
 0.16030005E+02  0.24093E-03
 0.16080004E+02  0.20473E-02
 0.16130003E+02  0.83061E-02
 0.16180004E+02  0.75165E-02
 0.16230003E+02  0.10797E-02
 0.16280005E+02 -0.30289E-02
 0.16330004E+02 -0.28792E-02
 0.16380003E+02 -0.29828E-02
 0.16430004E+02 -0.45129E-02
 0.16480003E+02 -0.18794E-02
 0.16530005E+02  0.17438E-02
 0.16580004E+02  0.18598E-02
 0.16630003E+02 -0.18900E-03
 0.16680004E+02 -0.46287E-02
 0.16730003E+02 -0.59253E-02
 0.16780005E+02 -0.28213E-02
 0.16830004E+02 -0.10933E-02
 0.16880003E+02  0.15513E-03
 0.16930004E+02  0.32539E-02
 0.16980003E+02  0.60935E-02
 0.17030005E+02  0.44987E-02
 0.17080004E+02  0.22692E-02
 0.17130003E+02  0.18243E-02
 0.17180004E+02  0.50584E-03
 0.17230003E+02 -0.28840E-02
 0.17280005E+02 -0.54019E-02
 0.17330004E+02 -0.39185E-02
 0.17380003E+02 -0.19927E-02
 0.17430004E+02 -0.67221E-03
 0.17480003E+02  0.13106E-03
 0.17530005E+02  0.83951E-03
 0.17580004E+02  0.76736E-03
 0.17630003E+02  0.17762E-02
 0.17680004E+02  0.40591E-02
 0.17730003E+02  0.38165E-02
 0.17780005E+02  0.21682E-02
 0.17830004E+02 -0.19212E-02
 0.17880003E+02 -0.35095E-02
 0.17930004E+02 -0.17158E-02
 0.17980003E+02 -0.13583E-02
 0.18030005E+02 -0.43011E-03
 0.18080004E+02 -0.26969E-03
 0.18130003E+02  0.34749E-03
 0.18180004E+02  0.14323E-02
 0.18230003E+02  0.81440E-04
 0.18280005E+02 -0.94972E-04
 0.18330004E+02  0.25336E-03
 0.18380003E+02  0.59749E-04
 0.18430004E+02  0.38672E-03
 0.18480003E+02 -0.93709E-04
 0.18530005E+02  0.24453E-02
 0.18580004E+02  0.28882E-02
 0.18630003E+02 -0.12733E-02
 0.18680004E+02 -0.20073E-02
 0.18730003E+02 -0.11737E-02
 0.18780005E+02 -0.42321E-03
 0.18830004E+02  0.12577E-03
 0.18880003E+02  0.29157E-03
 0.18930004E+02  0.21329E-03
 0.18980003E+02 -0.79746E-03
 0.19030005E+02 -0.58191E-03
 0.19080004E+02 -0.19097E-03
 0.19130003E+02 -0.11118E-03
 0.19180004E+02  0.20373E-02
 0.19230003E+02  0.45695E-02
 0.19280005E+02  0.42791E-02
 0.19330004E+02  0.14637E-02
 0.19380003E+02 -0.17638E-02
 0.19430004E+02 -0.25396E-02
 0.19480003E+02 -0.14448E-02
 0.19530005E+02 -0.85193E-03
 0.19580004E+02 -0.67614E-03
 0.19630003E+02  0.11290E-02
 0.19680004E+02  0.50564E-02
 0.19730003E+02  0.57764E-02
 0.19780005E+02  0.22586E-02
 0.19830004E+02 -0.21537E-02
 0.19880003E+02 -0.51758E-02
 0.19930004E+02 -0.38048E-02
 0.19980003E+02  0.53200E-03
 0.20030005E+02  0.15185E-02
 0.20080004E+02 -0.20824E-02
 0.20130003E+02 -0.56652E-02
 0.20180004E+02 -0.76106E-02
 0.20230003E+02 -0.64026E-02
 0.20280005E+02 -0.25880E-02
 0.20330004E+02  0.18533E-02
 0.20380003E+02  0.60589E-02
 0.20430004E+02  0.70385E-02
 0.20480003E+02  0.47667E-02
 0.20530005E+02  0.19102E-02
 0.20580004E+02 -0.31538E-03
 0.20630003E+02 -0.23927E-02
 0.20680004E+02 -0.45281E-02
 0.20730003E+02 -0.62097E-02
 0.20780005E+02 -0.58227E-02
 0.20830004E+02 -0.27597E-02
 0.20880003E+02 -0.25489E-05
 0.20930004E+02  0.84982E-03
 0.20980003E+02  0.24968E-02
 0.21030005E+02  0.45511E-02
 0.21080004E+02  0.50629E-02
 0.21130003E+02  0.46620E-02
 0.21180004E+02  0.21627E-02
 0.21230003E+02 -0.68560E-03
 0.21280005E+02 -0.22041E-02
 0.21330004E+02 -0.29872E-02
 0.21380003E+02 -0.22975E-02
 0.21430004E+02 -0.13844E-02
 0.21480003E+02 -0.63590E-05
 0.21530005E+02  0.16643E-02
 0.21580004E+02  0.17395E-02
 0.21630003E+02  0.12418E-02
 0.21680004E+02  0.70825E-03
 0.21730003E+02  0.25981E-03
 0.21780005E+02  0.54322E-03
 0.21830004E+02  0.11621E-02
 0.21880003E+02  0.23374E-02
 0.21930004E+02  0.30352E-02
 0.21980003E+02  0.20673E-02
 0.22030005E+02 -0.52294E-03
 0.22080004E+02 -0.34083E-02
 0.22130003E+02 -0.39674E-02
 0.22180004E+02 -0.18509E-02
 0.22230003E+02  0.19651E-02
 0.22280005E+02  0.48044E-02
 0.22330004E+02  0.42077E-02
 0.22380003E+02  0.58935E-03
 0.22430004E+02 -0.30753E-02
 0.22480003E+02 -0.47179E-02
 0.22530005E+02 -0.46551E-02
 0.22580004E+02 -0.22710E-02
 0.22630003E+02  0.58929E-03
 0.22680004E+02  0.13746E-02
 0.22730003E+02  0.22154E-03
 0.22780005E+02 -0.13537E-02
 0.22830004E+02 -0.18323E-02
 0.22880003E+02 -0.39277E-03
 0.22930004E+02  0.19082E-02
 0.22980003E+02  0.36893E-02
 0.23030005E+02  0.42801E-02
 0.23080004E+02  0.23899E-02
 0.23130003E+02 -0.55958E-04
 0.23180004E+02 -0.15160E-02
 0.23230003E+02 -0.19701E-02
 0.23280005E+02 -0.19413E-02
 0.23330004E+02 -0.23835E-02
 0.23380003E+02 -0.20534E-02
 0.23430004E+02 -0.10664E-02
 0.23480003E+02  0.29278E-03
 0.23530005E+02  0.11959E-02
 0.23580004E+02  0.19921E-02
 0.23630003E+02  0.32972E-02
 0.23680004E+02  0.28314E-02
 0.23730003E+02  0.42521E-03
 0.23780005E+02 -0.25907E-02
 0.23830004E+02 -0.37637E-02
 0.23880003E+02 -0.28140E-02
 0.23930004E+02 -0.12530E-02
 0.23980003E+02  0.49688E-03
 0.24030005E+02  0.76921E-03
 0.24080004E+02 -0.62934E-03
 0.24130003E+02 -0.15546E-02
 0.24180004E+02 -0.30912E-03
 0.24230003E+02  0.13258E-02
 0.24280005E+02  0.13588E-02
 0.24330004E+02  0.67662E-03
 0.24380003E+02  0.82380E-03
 0.24430004E+02  0.17279E-02
 0.24480003E+02  0.18298E-02
 0.24530005E+02  0.74770E-03
 0.24580004E+02 -0.14715E-02
 0.24630003E+02 -0.35008E-02
 0.24680004E+02 -0.32443E-02
 0.24730003E+02 -0.89166E-03
 0.24780005E+02  0.17135E-02
 0.24830004E+02  0.30624E-02
 0.24880003E+02  0.31299E-02
 0.24930004E+02  0.19446E-02
 0.24980003E+02  0.24987E-03
 0.25030005E+02 -0.47049E-03
 0.25080004E+02 -0.20949E-03
 0.25130003E+02  0.24240E-03
 0.25180004E+02 -0.29793E-03
 0.25230003E+02 -0.13225E-02
 0.25280005E+02 -0.14916E-02
 0.25330004E+02 -0.13175E-02
 0.25380003E+02 -0.13015E-02
 0.25430004E+02 -0.13188E-02
 0.25480003E+02 -0.15229E-02
 0.25530005E+02 -0.16090E-02
 0.25580004E+02 -0.50370E-03
 0.25630003E+02  0.15302E-02
 0.25680004E+02  0.29519E-02
 0.25730003E+02  0.27755E-02
 0.25780005E+02  0.25573E-02
 0.25830004E+02  0.30817E-02
 0.25880003E+02  0.26819E-02
 0.25930004E+02  0.19142E-02
 0.25980003E+02  0.13779E-02
 0.26030005E+02  0.44231E-03
 0.26080004E+02 -0.66156E-03
 0.26130003E+02 -0.21269E-02
 0.26180004E+02 -0.40413E-02
 0.26230003E+02 -0.42695E-02
 0.26280005E+02 -0.20157E-02
 0.26330004E+02 -0.78885E-03
 0.26380003E+02 -0.10136E-02
 0.26430004E+02  0.51196E-04
 0.26480003E+02  0.10036E-02
 0.26530005E+02  0.94534E-03
 0.26580004E+02  0.63559E-03
 0.26630003E+02 -0.15835E-03
 0.26680004E+02 -0.52145E-03
 0.26730003E+02 -0.11959E-03
 0.26780005E+02  0.15670E-03
 0.26830004E+02 -0.10022E-03
 0.26880003E+02 -0.16654E-03
 0.26930004E+02  0.67439E-04
 0.26980003E+02  0.10183E-03
 0.27030005E+02 -0.16704E-03
 0.27080004E+02 -0.71882E-03
 0.27130003E+02 -0.11094E-02
 0.27180004E+02 -0.18776E-02
 0.27230003E+02 -0.22632E-02
 0.27280005E+02 -0.44744E-03
 0.27330004E+02  0.16722E-02
 0.27380003E+02  0.29104E-02
 0.27430004E+02  0.47060E-02
 0.27480003E+02  0.55689E-02
 0.27530005E+02  0.44150E-02
 0.27580004E+02  0.21088E-02
 0.27630003E+02 -0.11257E-02
 0.27680004E+02 -0.40807E-02
 0.27730003E+02 -0.57251E-02
 0.27780005E+02 -0.53236E-02
 0.27830004E+02 -0.28114E-02
 0.27880003E+02  0.53049E-03
 0.27930004E+02  0.31203E-02
 0.27980003E+02  0.39375E-02
 0.28030005E+02  0.33236E-02
 0.28080004E+02  0.20069E-02
 0.28130003E+02  0.30559E-03
 0.28180004E+02 -0.13315E-02
 0.28230003E+02 -0.24737E-02
 0.28280005E+02 -0.31563E-02
 0.28330004E+02 -0.32840E-02
 0.28380003E+02 -0.33190E-02
 0.28430004E+02 -0.25858E-02
 0.28480003E+02 -0.84855E-03
 0.28530005E+02  0.28486E-03
 0.28580004E+02  0.99230E-03
 0.28630003E+02  0.18906E-02
 0.28680004E+02  0.28858E-02
 0.28730003E+02  0.30443E-02
 0.28780005E+02  0.23979E-02
 0.28830004E+02  0.19400E-02
 0.28880003E+02  0.90828E-03
 0.28930004E+02 -0.34599E-03
 0.28980003E+02 -0.12476E-02
 0.29030005E+02 -0.17553E-02
 0.29080004E+02 -0.13120E-02
 0.29130003E+02 -0.12214E-02
 0.29180004E+02 -0.14063E-02
 0.29230003E+02 -0.98245E-03
 0.29280005E+02 -0.47332E-03
 0.29330004E+02  0.33540E-03
 0.29380003E+02  0.84838E-03
 0.29430004E+02  0.54431E-03
 0.29480003E+02  0.23272E-03
 0.29530005E+02  0.45414E-03
 0.29580004E+02  0.68500E-03
 0.29630003E+02  0.70225E-03
 0.29680004E+02  0.74489E-03
 0.29730003E+02  0.28836E-03
 0.29780005E+02 -0.55776E-03
 0.29830004E+02 -0.10786E-02
 0.29880003E+02 -0.78320E-03
 0.29930004E+02  0.37643E-03
 0.29980003E+02  0.15693E-02
 0.30030005E+02  0.19702E-02
 0.30080004E+02  0.12940E-02
 0.30130003E+02  0.43708E-03
 0.30180004E+02  0.37437E-03
 0.30230003E+02  0.29913E-03
 0.30280005E+02 -0.10085E-03
 0.30330004E+02 -0.12674E-03
 0.30380003E+02 -0.18993E-03
 0.30430004E+02 -0.66580E-03
 0.30480003E+02 -0.15034E-02
 0.30530005E+02 -0.22278E-02
 0.30580004E+02 -0.16126E-02
 0.30630003E+02 -0.70000E-03
 0.30680004E+02 -0.42161E-03
 0.30730003E+02  0.15739E-03
 0.30780005E+02  0.58832E-03
 0.30830004E+02  0.10285E-02
 0.30880003E+02  0.14000E-02
 0.30930004E+02  0.12073E-02
 0.30980003E+02  0.66689E-03
 0.31030005E+02 -0.23412E-03
 0.31080004E+02 -0.54276E-03
 0.31130003E+02 -0.69988E-03
 0.31180004E+02 -0.10405E-02
 0.31230003E+02 -0.12422E-02
 0.31280005E+02 -0.14769E-02
 0.31330004E+02 -0.10654E-02
 0.31380003E+02 -0.54479E-03
 0.31430004E+02  0.52367E-04
 0.31480003E+02  0.10104E-02
 0.31530005E+02  0.17273E-02
 0.31580004E+02  0.17228E-02
 0.31630003E+02  0.10777E-02
 0.31680004E+02  0.51422E-04
 0.31730003E+02 -0.16609E-02
 0.31780005E+02 -0.26617E-02
 0.31830004E+02 -0.25067E-02
 0.31880003E+02 -0.21429E-02
 0.31930004E+02 -0.12582E-02
 0.31980003E+02  0.57211E-04
 0.32030003E+02  0.16430E-02
 0.32080006E+02  0.30755E-02
 0.32130005E+02  0.32813E-02
 0.32180004E+02  0.18910E-02
 0.32230003E+02  0.23614E-04
 0.32280003E+02 -0.11662E-02
 0.32330006E+02 -0.17279E-02
 0.32380005E+02 -0.12729E-02
 0.32430004E+02  0.45807E-03
 0.32480003E+02  0.21197E-02
 0.32530003E+02  0.24816E-02
 0.32580006E+02  0.22443E-02
 0.32630005E+02  0.23895E-02
 0.32680004E+02  0.24126E-02
 0.32730003E+02  0.19372E-02
 0.32780003E+02  0.89304E-03
 0.32830006E+02 -0.52495E-03
 0.32880005E+02 -0.13951E-02
 0.32930004E+02 -0.15070E-02
 0.32980003E+02 -0.14313E-02
 0.33030003E+02 -0.13588E-02
 0.33080006E+02 -0.13126E-02
 0.33130005E+02 -0.18277E-02
 0.33180004E+02 -0.21658E-02
 0.33230003E+02 -0.18191E-02
 0.33280003E+02 -0.14591E-02
 0.33330006E+02 -0.62111E-03
 0.33380005E+02  0.54373E-04
 0.33430004E+02 -0.11952E-03
 0.33480003E+02 -0.48331E-03
 0.33530003E+02 -0.88081E-03
 0.33580006E+02 -0.11051E-02
 0.33630005E+02 -0.99828E-03
 0.33680004E+02 -0.59989E-03
 0.33730003E+02 -0.18349E-03
 0.33780003E+02 -0.14218E-03
 0.33830006E+02  0.10805E-03
 0.33880005E+02  0.10187E-02
 0.33930004E+02  0.18427E-02
 0.33980003E+02  0.20865E-02
 0.34030003E+02  0.16409E-02
 0.34080006E+02  0.11230E-02
 0.34130005E+02  0.10291E-02
 0.34180004E+02  0.95529E-03
 0.34230003E+02  0.12094E-02
 0.34280003E+02  0.14486E-02
 0.34330006E+02  0.10717E-02
 0.34380005E+02  0.81245E-03
 0.34430004E+02  0.10000E-02
 0.34480003E+02  0.89687E-03
 0.34530003E+02  0.26853E-03
 0.34580006E+02 -0.41986E-03
 0.34630005E+02 -0.10438E-02
 0.34680004E+02 -0.13713E-02
 0.34730003E+02 -0.10807E-02
 0.34780003E+02 -0.56843E-03
 0.34830006E+02 -0.43538E-03
 0.34880005E+02 -0.31297E-03
 0.34930004E+02 -0.61160E-03
 0.34980003E+02 -0.16101E-02
 0.35030003E+02 -0.19864E-02
 0.35080006E+02 -0.18920E-02
 0.35130005E+02 -0.15959E-02
 0.35180004E+02 -0.10990E-02
 0.35230003E+02 -0.75206E-03
 0.35280003E+02 -0.40869E-03
 0.35330006E+02 -0.55220E-04
 0.35380005E+02  0.28813E-03
 0.35430004E+02  0.30084E-03
 0.35480003E+02  0.36324E-03
 0.35530003E+02  0.66440E-03
 0.35580006E+02  0.68077E-03
 0.35630005E+02  0.58512E-03
 0.35680004E+02  0.70161E-03
 0.35730003E+02  0.76840E-03
 0.35780003E+02  0.64576E-03
 0.35830006E+02  0.56960E-03
 0.35880005E+02  0.43478E-03
 0.35930004E+02  0.16123E-03
 0.35980003E+02 -0.34939E-03
 0.36030003E+02 -0.73576E-03
 0.36080006E+02 -0.58560E-03
 0.36130005E+02 -0.16433E-04
 0.36180004E+02  0.84262E-03
 0.36230003E+02  0.12999E-02
 0.36280003E+02  0.12149E-02
 0.36330006E+02  0.11447E-02
 0.36380005E+02  0.11017E-02
 0.36430004E+02  0.11288E-02
 0.36480003E+02  0.10134E-02
 0.36530003E+02  0.63407E-03
 0.36580006E+02  0.19921E-03
 0.36630005E+02 -0.30481E-03
 0.36680004E+02 -0.71623E-03
 0.36730003E+02 -0.12220E-02
 0.36780003E+02 -0.15886E-02
 0.36830006E+02 -0.14012E-02
 0.36880005E+02 -0.74528E-03
 0.36930004E+02  0.19080E-03
 0.36980003E+02  0.77319E-03
 0.37030003E+02  0.80446E-03
 0.37080006E+02  0.60237E-03
 0.37130005E+02  0.42648E-03
 0.37180004E+02  0.49072E-04
 0.37230003E+02 -0.52942E-03
 0.37280003E+02 -0.87997E-03
 0.37330006E+02 -0.13280E-02
 0.37380005E+02 -0.18030E-02
 0.37430004E+02 -0.18260E-02
 0.37480003E+02 -0.13332E-02
 0.37530003E+02 -0.35242E-03
 0.37580006E+02  0.27228E-03
 0.37630005E+02  0.15328E-03
 0.37680004E+02 -0.59000E-04
 0.37730003E+02 -0.18697E-03
 0.37780003E+02 -0.21223E-03
 0.37830006E+02 -0.98964E-04
 0.37880005E+02  0.27506E-03
 0.37930004E+02  0.82350E-03
 0.37980003E+02  0.13144E-02
 0.38030003E+02  0.16533E-02
 0.38080006E+02  0.15138E-02
 0.38130005E+02  0.97491E-03
 0.38180004E+02  0.31114E-03
 0.38230003E+02 -0.31130E-03
 0.38280003E+02 -0.60356E-03
 0.38330006E+02 -0.64935E-03
 0.38380005E+02 -0.49828E-03
 0.38430004E+02  0.20072E-03
 0.38480003E+02  0.11083E-02
 0.38530003E+02  0.15350E-02
 0.38580006E+02  0.15300E-02
 0.38630005E+02  0.10055E-02
 0.38680004E+02 -0.15407E-03
 0.38730003E+02 -0.12259E-02
 0.38780003E+02 -0.16771E-02
 0.38830006E+02 -0.13964E-02
 0.38880005E+02 -0.79742E-03
 0.38930004E+02 -0.54627E-03
 0.38980003E+02 -0.26459E-03
 0.39030003E+02  0.25494E-03
 0.39080006E+02  0.34743E-03
 0.39130005E+02 -0.86423E-04
 0.39180004E+02 -0.57048E-03
 0.39230003E+02 -0.89306E-03
 0.39280003E+02 -0.86528E-03
 0.39330006E+02 -0.53975E-03
 0.39380005E+02 -0.25804E-03
 0.39430004E+02  0.15162E-03
 0.39480003E+02  0.79900E-03
 0.39530003E+02  0.12883E-02
 0.39580006E+02  0.13038E-02
 0.39630005E+02  0.89966E-03
 0.39680004E+02  0.26595E-03
 0.39730003E+02 -0.19590E-03
 0.39780003E+02 -0.11093E-03
 0.39830006E+02  0.28180E-03
 0.39880005E+02  0.51839E-03
 0.39930004E+02  0.44293E-03
 0.39980003E+02  0.28458E-03
 0.40030003E+02  0.65755E-04
 0.40080006E+02 -0.14922E-03
 0.40130005E+02 -0.22870E-03
 0.40180004E+02 -0.35294E-03
 0.40230003E+02 -0.43622E-03
 0.40280003E+02 -0.44831E-03
 0.40330006E+02 -0.31475E-03
 0.40380005E+02 -0.10648E-03
 0.40430004E+02 -0.75833E-04
 0.40480003E+02 -0.14223E-03
 0.40530003E+02 -0.28119E-03
 0.40580006E+02 -0.30660E-03
 0.40630005E+02 -0.95116E-05
 0.40680004E+02  0.48331E-03
 0.40730003E+02  0.82468E-03
 0.40780003E+02  0.86517E-03
 0.40830006E+02  0.45199E-03
 0.40880005E+02 -0.19349E-03
 0.40930004E+02 -0.50009E-03
 0.40980003E+02 -0.59190E-03
 0.41030003E+02 -0.48865E-03
 0.41080006E+02 -0.43843E-03
 0.41130005E+02 -0.63102E-03
 0.41180004E+02 -0.82956E-03
 0.41230003E+02 -0.98522E-03
 0.41280003E+02 -0.86341E-03
 0.41330006E+02 -0.66043E-03
 0.41380005E+02 -0.59318E-03
 0.41430004E+02 -0.62296E-03
 0.41480003E+02 -0.62312E-03
 0.41530003E+02 -0.33720E-03
 0.41580006E+02  0.29751E-03
 0.41630005E+02  0.10930E-02
 0.41680004E+02  0.14517E-02
 0.41730003E+02  0.14718E-02
 0.41780003E+02  0.14932E-02
 0.41830006E+02  0.11568E-02
 0.41880005E+02  0.60291E-03
 0.41930004E+02  0.17309E-03
 0.41980003E+02 -0.87880E-05
 0.42030003E+02  0.95891E-04
 0.42080006E+02  0.37180E-03
 0.42130005E+02  0.73266E-03
 0.42180004E+02  0.80062E-03
 0.42230003E+02  0.35181E-03
 0.42280003E+02 -0.34616E-03
 0.42330006E+02 -0.87567E-03
 0.42380005E+02 -0.10421E-02
 0.42430004E+02 -0.71634E-03
 0.42480003E+02  0.10425E-04
 0.42530003E+02  0.41388E-03
 0.42580006E+02  0.43639E-03
 0.42630005E+02  0.22316E-03
 0.42680004E+02 -0.43115E-03
 0.42730003E+02 -0.11135E-02
 0.42780003E+02 -0.14297E-02
 0.42830006E+02 -0.12073E-02
 0.42880005E+02 -0.39815E-03
 0.42930004E+02  0.60845E-03
 0.42980003E+02  0.12778E-02
 0.43030003E+02  0.13752E-02
 0.43080006E+02  0.10989E-02
 0.43130005E+02  0.82348E-03
 0.43180004E+02  0.69929E-03
 0.43230003E+02  0.54365E-03
 0.43280003E+02  0.10303E-03
 0.43330006E+02 -0.41813E-03
 0.43380005E+02 -0.80501E-03
 0.43430004E+02 -0.11782E-02
 0.43480003E+02 -0.16373E-02
 0.43530003E+02 -0.21311E-02
 0.43580006E+02 -0.21598E-02
 0.43630005E+02 -0.15502E-02
 0.43680004E+02 -0.66061E-03
 0.43730003E+02  0.29296E-03
 0.43780003E+02  0.12566E-02
 0.43830006E+02  0.19285E-02
 0.43880005E+02  0.20128E-02
 0.43930004E+02  0.16351E-02
 0.43980003E+02  0.83132E-03
 0.44030003E+02 -0.14250E-03
 0.44080006E+02 -0.85258E-03
 0.44130005E+02 -0.10545E-02
 0.44180004E+02 -0.66149E-03
 0.44230003E+02 -0.19035E-03
 0.44280003E+02 -0.54917E-04
 0.44330006E+02 -0.30651E-04
 0.44380005E+02 -0.34882E-04
 0.44430004E+02 -0.11297E-03
 0.44480003E+02 -0.12991E-03
 0.44530003E+02 -0.26928E-04
 0.44580006E+02  0.80100E-04
 0.44630005E+02  0.26572E-03
 0.44680004E+02  0.46969E-03
 0.44730003E+02  0.61339E-03
 0.44780003E+02  0.90022E-03
 0.44830006E+02  0.98724E-03
 0.44880005E+02  0.70180E-03
 0.44930004E+02  0.28901E-03
 0.44980003E+02 -0.18093E-03
 0.45030003E+02 -0.56449E-03
 0.45080006E+02 -0.87744E-03
 0.45130005E+02 -0.10141E-02
 0.45180004E+02 -0.79790E-03
 0.45230003E+02 -0.44153E-03
 0.45280003E+02 -0.85771E-04
 0.45330006E+02  0.21543E-03
 0.45380005E+02  0.49451E-03
 0.45430004E+02  0.75933E-03
 0.45480003E+02  0.87215E-03
 0.45530003E+02  0.93248E-03
 0.45580006E+02  0.86739E-03
 0.45630005E+02  0.62301E-03
 0.45680004E+02  0.27681E-03
 0.45730003E+02 -0.23264E-03
 0.45780003E+02 -0.74839E-03
 0.45830006E+02 -0.10404E-02
 0.45880005E+02 -0.10703E-02
 0.45930004E+02 -0.87847E-03
 0.45980003E+02 -0.47970E-03
 0.46030003E+02 -0.35820E-04
 0.46080006E+02  0.17455E-03
 0.46130005E+02  0.77180E-04
 0.46180004E+02 -0.11054E-03
 0.46230003E+02 -0.24860E-03
 0.46280003E+02 -0.31015E-03
 0.46330006E+02 -0.19100E-03
 0.46380005E+02 -0.62106E-04
 0.46430004E+02 -0.35398E-04
 0.46480003E+02  0.22521E-03
 0.46530003E+02  0.70764E-03
 0.46580006E+02  0.10087E-02
 0.46630005E+02  0.88598E-03
 0.46680004E+02  0.53209E-03
 0.46730003E+02  0.36397E-03
 0.46780003E+02  0.35002E-03
 0.46830006E+02  0.37558E-03
 0.46880005E+02  0.36467E-03
 0.46930004E+02  0.21812E-03
 0.46980003E+02 -0.36649E-04
 0.47030003E+02 -0.40465E-03
 0.47080006E+02 -0.75621E-03
 0.47130005E+02 -0.10998E-02
 0.47180004E+02 -0.13669E-02
 0.47230003E+02 -0.12011E-02
 0.47280003E+02 -0.64347E-03
 0.47330006E+02 -0.15095E-03
 0.47380005E+02  0.62872E-04
 0.47430004E+02  0.13242E-03
 0.47480003E+02  0.24905E-03
 0.47530003E+02  0.47110E-03
 0.47580006E+02  0.47207E-03
 0.47630005E+02  0.24140E-03
 0.47680004E+02  0.85953E-04
 0.47730003E+02 -0.17986E-04
 0.47780003E+02 -0.28539E-05
 0.47830006E+02  0.16041E-04
 0.47880005E+02 -0.22037E-03
 0.47930004E+02 -0.49864E-03
 0.47980003E+02 -0.62604E-03
 0.48030003E+02 -0.56193E-03
 0.48080006E+02 -0.18044E-03
 0.48130005E+02  0.31875E-03
 0.48180004E+02  0.61145E-03
 0.48230003E+02  0.63012E-03
 0.48280003E+02  0.58690E-03
 0.48330006E+02  0.58983E-03
 0.48380005E+02  0.55503E-03
 0.48430004E+02  0.50511E-03
 0.48480003E+02  0.17180E-03
 0.48530003E+02 -0.43767E-03
 0.48580006E+02 -0.97371E-03
 0.48630005E+02 -0.12346E-02
 0.48680004E+02 -0.92202E-03
 0.48730003E+02 -0.19734E-03
 0.48780003E+02  0.59936E-03
 0.48830006E+02  0.12808E-02
 0.48880005E+02  0.15491E-02
 0.48930004E+02  0.13746E-02
 0.48980003E+02  0.10229E-02
 0.49030003E+02  0.68728E-03
 0.49080006E+02  0.31939E-03
 0.49130005E+02 -0.54798E-04
 0.49180004E+02 -0.41189E-03
 0.49230003E+02 -0.69410E-03
 0.49280003E+02 -0.75526E-03
 0.49330006E+02 -0.82345E-03
 0.49380005E+02 -0.10044E-02
 0.49430004E+02 -0.10362E-02
 0.49480003E+02 -0.79268E-03
 0.49530003E+02 -0.44020E-03
 0.49580006E+02 -0.20106E-03
 0.49630005E+02 -0.36255E-04
 0.49680004E+02  0.14250E-03
 0.49730003E+02  0.21582E-03
 0.49780003E+02  0.19236E-03
 0.49830006E+02  0.23742E-03
 0.49880005E+02  0.19316E-03
 0.49930004E+02  0.42027E-04
 0.49980003E+02  0.50071E-05
 0.50030003E+02  0.42962E-04
 0.50080006E+02  0.99650E-04
 0.50130005E+02  0.14464E-03
 0.50180004E+02  0.19470E-03
 0.50230003E+02  0.24627E-03
 0.50280003E+02  0.22777E-03
 0.50330006E+02  0.13185E-04
 0.50380005E+02 -0.47264E-03
 0.50430004E+02 -0.85716E-03
 0.50480003E+02 -0.85249E-03
 0.50530003E+02 -0.59141E-03
 0.50580006E+02 -0.16400E-03
 0.50630005E+02  0.26443E-03
 0.50680004E+02  0.43572E-03
 0.50730003E+02  0.36755E-03
 0.50780003E+02  0.25045E-03
 0.50830006E+02  0.26857E-03
 0.50880005E+02  0.50640E-03
 0.50930004E+02  0.75754E-03
 0.50980003E+02  0.90506E-03
 0.51030003E+02  0.96213E-03
 0.51080006E+02  0.78608E-03
 0.51130005E+02  0.37857E-03
 0.51180004E+02 -0.18086E-04
 0.51230003E+02 -0.18344E-03
 0.51280003E+02 -0.29948E-03
 0.51330006E+02 -0.49955E-03
 0.51380005E+02 -0.59689E-03
 0.51430004E+02 -0.64488E-03
 0.51480003E+02 -0.69544E-03
 0.51530003E+02 -0.61312E-03
 0.51580006E+02 -0.48506E-03
 0.51630005E+02 -0.38152E-03
 0.51680004E+02 -0.15157E-03
 0.51730003E+02  0.12810E-03
 0.51780003E+02  0.33685E-03
 0.51830006E+02  0.42384E-03
 0.51880005E+02  0.38876E-03
 0.51930004E+02  0.26012E-03
 0.51980003E+02  0.26753E-04
 0.52030003E+02 -0.15333E-03
 0.52080006E+02 -0.23200E-03
 0.52130005E+02 -0.10223E-03
 0.52180004E+02  0.55838E-04
 0.52230003E+02 -0.10452E-03
 0.52280003E+02 -0.22591E-03
 0.52330006E+02 -0.32457E-04
 0.52380005E+02  0.37737E-03
 0.52430004E+02  0.80751E-03
 0.52480003E+02  0.99413E-03
 0.52530003E+02  0.85707E-03
 0.52580006E+02  0.52273E-03
 0.52630005E+02  0.13553E-03
 0.52680004E+02 -0.31795E-03
 0.52730003E+02 -0.74136E-03
 0.52780003E+02 -0.97089E-03
 0.52830006E+02 -0.96119E-03
 0.52880005E+02 -0.72423E-03
 0.52930004E+02 -0.42466E-03
 0.52980003E+02 -0.16216E-03
 0.53030003E+02  0.54968E-04
 0.53080006E+02  0.16695E-03
 0.53130005E+02  0.21665E-03
 0.53180004E+02  0.22234E-03
 0.53230003E+02  0.71327E-04
 0.53280003E+02 -0.19556E-03
 0.53330006E+02 -0.34613E-03
 0.53380005E+02 -0.28991E-03
 0.53430004E+02 -0.83001E-04
 0.53480003E+02  0.14269E-03
 0.53530003E+02  0.31107E-03
 0.53580006E+02  0.42573E-03
 0.53630005E+02  0.34401E-03
 0.53680004E+02  0.72855E-04
 0.53730003E+02 -0.13289E-03
 0.53780003E+02 -0.17228E-03
 0.53830006E+02 -0.16320E-03
 0.53880005E+02 -0.16857E-03
 0.53930004E+02 -0.17764E-03
 0.53980003E+02 -0.16886E-03
 0.54030003E+02 -0.10238E-03
 0.54080006E+02  0.36388E-04
 0.54130005E+02  0.23212E-03
 0.54180004E+02  0.42369E-03
 0.54230003E+02  0.55047E-03
 0.54280003E+02  0.41186E-03
 0.54330006E+02 -0.43268E-04
 0.54380005E+02 -0.47778E-03
 0.54430004E+02 -0.71757E-03
 0.54480003E+02 -0.72516E-03
 0.54530003E+02 -0.48362E-03
 0.54580006E+02 -0.14415E-03
 0.54630005E+02  0.22731E-03
 0.54680004E+02  0.58141E-03
 0.54730003E+02  0.81071E-03
 0.54780003E+02  0.89245E-03
 0.54830006E+02  0.83324E-03
 0.54880005E+02  0.65165E-03
 0.54930004E+02  0.44931E-03
 0.54980003E+02  0.33633E-03
 0.55030003E+02  0.16242E-03
 0.55080006E+02 -0.14300E-03
 0.55130005E+02 -0.35713E-03
 0.55180004E+02 -0.42129E-03
 0.55230003E+02 -0.34417E-03
 0.55280003E+02 -0.98491E-04
 0.55330006E+02  0.15524E-03
 0.55380005E+02  0.20144E-03
 0.55430004E+02  0.42718E-04
 0.55480003E+02 -0.30890E-03
 0.55530003E+02 -0.79330E-03
 0.55580006E+02 -0.11035E-02
 0.55630005E+02 -0.11087E-02
 0.55680004E+02 -0.79075E-03
 0.55730003E+02 -0.22577E-03
 0.55780003E+02  0.33969E-03
 0.55830006E+02  0.81958E-03
 0.55880005E+02  0.11293E-02
 0.55930004E+02  0.11389E-02
 0.55980003E+02  0.87071E-03
 0.56030003E+02  0.35854E-03
 0.56080006E+02 -0.23756E-03
 0.56130005E+02 -0.64535E-03
 0.56180004E+02 -0.75166E-03
 0.56230003E+02 -0.50612E-03
 0.56280003E+02 -0.13331E-03
 0.56330006E+02  0.11513E-03
 0.56380005E+02  0.19727E-03
 0.56430004E+02  0.72290E-04
 0.56480003E+02 -0.18345E-03
 0.56530003E+02 -0.45213E-03
 0.56580006E+02 -0.55342E-03
 0.56630005E+02 -0.47307E-03
 0.56680004E+02 -0.33246E-03
 0.56730003E+02 -0.15863E-03
 0.56780003E+02  0.98480E-05
 0.56830006E+02  0.13349E-03
 0.56880005E+02  0.17094E-03
 0.56930004E+02  0.11650E-03
 0.56980003E+02  0.52347E-04
 0.57030003E+02  0.81936E-04
 0.57080006E+02  0.79148E-04
 0.57130005E+02 -0.44134E-04
 0.57180004E+02 -0.18633E-03
 0.57230003E+02 -0.20898E-03
 0.57280003E+02  0.46817E-04
 0.57330006E+02  0.42683E-03
 0.57380005E+02  0.71620E-03
 0.57430004E+02  0.86844E-03
 0.57480003E+02  0.87529E-03
 0.57530003E+02  0.74414E-03
 0.57580006E+02  0.47261E-03
 0.57630005E+02  0.16625E-03
 0.57680004E+02 -0.13687E-03
 0.57730003E+02 -0.31594E-03
 0.57780003E+02 -0.22942E-03
 0.57830006E+02 -0.18290E-04
 0.57880005E+02  0.19089E-03
 0.57930004E+02  0.34395E-03
 0.57980003E+02  0.45461E-03
 0.58030003E+02  0.51829E-03
 0.58080006E+02  0.41841E-03
 0.58130005E+02  0.10868E-03
 0.58180004E+02 -0.33253E-03
 0.58230003E+02 -0.70301E-03
 0.58280003E+02 -0.86771E-03
 0.58330006E+02 -0.93560E-03
 0.58380005E+02 -0.10697E-02
 0.58430004E+02 -0.12062E-02
 0.58480003E+02 -0.11513E-02
 0.58530003E+02 -0.86841E-03
 0.58580006E+02 -0.45098E-03
 0.58630005E+02 -0.39556E-04
 0.58680004E+02  0.28271E-03
 0.58730003E+02  0.49814E-03
 0.58780003E+02  0.54765E-03
 0.58830006E+02  0.35099E-03
 0.58880005E+02 -0.54064E-04
 0.58930004E+02 -0.40393E-03
 0.58980003E+02 -0.49840E-03
 0.59030003E+02 -0.34573E-03
 0.59080006E+02 -0.50403E-04
 0.59130005E+02  0.23484E-03
 0.59180004E+02  0.39753E-03
 0.59230003E+02  0.37199E-03
 0.59280003E+02  0.25431E-03
 0.59330006E+02  0.20586E-03
 0.59380005E+02  0.16747E-03
 0.59430004E+02  0.16710E-04
 0.59480003E+02 -0.15666E-03
 0.59530003E+02 -0.21485E-03
 0.59580006E+02 -0.12719E-03
 0.59630005E+02  0.13574E-03
 0.59680004E+02  0.48539E-03
 0.59730003E+02  0.84489E-03
 0.59780003E+02  0.11891E-02
 0.59830006E+02  0.13754E-02
 0.59880005E+02  0.13115E-02
 0.59930004E+02  0.10288E-02
 0.59980003E+02  0.62016E-03
 0.60030003E+02  0.14913E-03
 0.60080006E+02 -0.25488E-03
 0.60130005E+02 -0.45087E-03
 0.60180004E+02 -0.48737E-03
 0.60230003E+02 -0.49862E-03
 0.60280003E+02 -0.52640E-03
 0.60330006E+02 -0.53936E-03
 0.60380005E+02 -0.50183E-03
 0.60430004E+02 -0.38849E-03
 0.60480003E+02 -0.24312E-03
 0.60530003E+02 -0.13610E-03
 0.60580006E+02 -0.98101E-04
 0.60630005E+02 -0.57442E-04
 0.60680004E+02  0.21062E-04
 0.60730003E+02  0.36200E-04
 0.60780003E+02 -0.11144E-03
 0.60830006E+02 -0.36488E-03
 0.60880005E+02 -0.51826E-03
 0.60930004E+02 -0.55182E-03
 0.60980003E+02 -0.56543E-03
 0.61030003E+02 -0.52020E-03
 0.61080006E+02 -0.37864E-03
 0.61130005E+02 -0.16413E-03
 0.61180004E+02  0.38937E-04
 0.61230003E+02  0.16318E-03
 0.61280003E+02  0.25183E-03
 0.61330006E+02  0.30423E-03
 0.61380005E+02  0.24432E-03
 0.61430004E+02  0.11905E-03
 0.61480003E+02  0.65418E-04
 0.61530003E+02  0.83279E-04
 0.61580006E+02  0.83532E-04
 0.61630005E+02  0.13155E-04
 0.61680004E+02 -0.52361E-04
 0.61730003E+02 -0.71653E-05
 0.61780003E+02  0.11976E-03
 0.61830006E+02  0.25141E-03
 0.61880005E+02  0.36030E-03
 0.61930004E+02  0.40728E-03
 0.61980003E+02  0.31341E-03
 0.62030003E+02  0.14840E-03
 0.62080006E+02 -0.40225E-04
 0.62130005E+02 -0.26883E-03
 0.62180004E+02 -0.45274E-03
 0.62230003E+02 -0.51084E-03
 0.62280003E+02 -0.37968E-03
 0.62330006E+02 -0.53668E-04
 0.62380005E+02  0.41313E-03
 0.62430004E+02  0.86027E-03
 0.62480003E+02  0.10870E-02
 0.62530003E+02  0.96216E-03
 0.62580006E+02  0.50800E-03
 0.62630005E+02 -0.54975E-04
 0.62680004E+02 -0.51659E-03
 0.62730003E+02 -0.80722E-03
 0.62780003E+02 -0.95939E-03
 0.62830006E+02 -0.95799E-03
 0.62880005E+02 -0.75456E-03
 0.62930004E+02 -0.38038E-03
 0.62980003E+02  0.72222E-04
 0.63030003E+02  0.52212E-03
 0.63080006E+02  0.84462E-03
 0.63130005E+02  0.89969E-03
 0.63180004E+02  0.68556E-03
 0.63230003E+02  0.26248E-03
 0.63280003E+02 -0.16736E-03
 0.63330006E+02 -0.35899E-03
 0.63380005E+02 -0.32185E-03
 0.63430004E+02 -0.18309E-03
 0.63480003E+02 -0.41956E-04
 0.63530003E+02  0.81297E-04
 0.63580006E+02  0.16444E-03
 0.63630005E+02  0.12958E-03
 0.63680004E+02 -0.31061E-04
 0.63730003E+02 -0.25210E-03
 0.63780003E+02 -0.42814E-03
 0.63830006E+02 -0.48347E-03
 0.63880005E+02 -0.37639E-03
 0.63930004E+02 -0.17392E-03
 0.63980003E+02  0.24473E-04
 0.64030006E+02  0.21235E-03
 0.64080002E+02  0.30713E-03
 0.64130005E+02  0.25712E-03
 0.64180008E+02  0.10071E-03
 0.64230003E+02 -0.59473E-04
 0.64280006E+02 -0.74118E-04
 0.64330002E+02  0.33147E-04
 0.64380005E+02  0.12556E-03
 0.64430008E+02  0.12576E-03
 0.64480003E+02  0.48131E-04
 0.64530006E+02 -0.57868E-04
 0.64580002E+02 -0.11347E-03
 0.64630005E+02 -0.11922E-03
 0.64680008E+02 -0.17987E-03
 0.64730003E+02 -0.24675E-03
 0.64780006E+02 -0.29373E-03
 0.64830002E+02 -0.32690E-03
 0.64880005E+02 -0.26894E-03
 0.64930008E+02 -0.15450E-03
 0.64980003E+02 -0.74070E-06
 0.65030006E+02  0.20001E-03
 0.65080002E+02  0.39662E-03
 0.65130005E+02  0.54479E-03
 0.65180008E+02  0.59645E-03
 0.65230003E+02  0.52190E-03
 0.65280006E+02  0.33665E-03
 0.65330002E+02  0.13382E-03
 0.65380005E+02  0.42621E-05
 0.65430008E+02 -0.47944E-04
 0.65480003E+02 -0.43497E-04
 0.65530006E+02 -0.38455E-05
 0.65580002E+02  0.83417E-04
 0.65630005E+02  0.19065E-03
 0.65680008E+02  0.17580E-03
 0.65730003E+02 -0.19656E-04
 0.65780006E+02 -0.27058E-03
 0.65830002E+02 -0.42288E-03
 0.65880005E+02 -0.45476E-03
 0.65930008E+02 -0.44501E-03
 0.65980003E+02 -0.45879E-03
 0.66030006E+02 -0.48681E-03
 0.66080002E+02 -0.41379E-03
 0.66130005E+02 -0.19331E-03
 0.66180008E+02  0.70694E-04
 0.66230003E+02  0.28364E-03
 0.66280006E+02  0.34057E-03
 0.66330002E+02  0.23448E-03
 0.66380005E+02  0.10970E-03
 0.66430008E+02  0.50509E-06
 0.66480003E+02 -0.10356E-03
 0.66530006E+02 -0.18264E-03
 0.66580002E+02 -0.20789E-03
 0.66630005E+02 -0.14302E-03
 0.66680008E+02 -0.45309E-04
 0.66730003E+02  0.52531E-04
 0.66780006E+02  0.12413E-03
 0.66830002E+02  0.14227E-03
 0.66880005E+02  0.14282E-03
 0.66930008E+02  0.12697E-03
 0.66980003E+02  0.11917E-03
 0.67030006E+02  0.13150E-03
 0.67080002E+02  0.15863E-03
 0.67130005E+02  0.22721E-03
 0.67180008E+02  0.31478E-03
 0.67230003E+02  0.33857E-03
 0.67280006E+02  0.21179E-03
 0.67330002E+02 -0.24631E-04
 0.67380005E+02 -0.20546E-03
 0.67430008E+02 -0.23975E-03
 0.67480003E+02 -0.12983E-03
 0.67530006E+02  0.51146E-04
 0.67580002E+02  0.14005E-03
 0.67630005E+02  0.97040E-04
 0.67680008E+02 -0.43935E-04
 0.67730003E+02 -0.21041E-03
 0.67780006E+02 -0.24848E-03
 0.67830002E+02 -0.19626E-03
 0.67880005E+02 -0.16138E-03
 0.67930008E+02 -0.14550E-03
 0.67980003E+02 -0.12600E-03
 0.68030006E+02 -0.80191E-04
 0.68080002E+02  0.55991E-05
 0.68130005E+02  0.11939E-03
 0.68180008E+02  0.22852E-03
 0.68230003E+02  0.32638E-03
 0.68280006E+02  0.36031E-03
 0.68330002E+02  0.28928E-03
 0.68380005E+02  0.16415E-03
 0.68430008E+02  0.62815E-04
 0.68480003E+02  0.55335E-04
 0.68530006E+02  0.12794E-03
 0.68580002E+02  0.19550E-03
 0.68630005E+02  0.21397E-03
 0.68680008E+02  0.19975E-03
 0.68730003E+02  0.14490E-03
 0.68780006E+02  0.60369E-04
 0.68830002E+02 -0.26008E-04
 0.68880005E+02 -0.11446E-03
 0.68930008E+02 -0.18391E-03
 0.68980003E+02 -0.20735E-03
 0.69030006E+02 -0.18151E-03
 0.69080002E+02 -0.17498E-03
 0.69130005E+02 -0.24922E-03
 0.69180008E+02 -0.40349E-03
 0.69230003E+02 -0.54028E-03
 0.69280006E+02 -0.56785E-03
 0.69330002E+02 -0.51869E-03
 0.69380005E+02 -0.40208E-03
 0.69430008E+02 -0.24771E-03
 0.69480003E+02 -0.10006E-03
 0.69530006E+02  0.12087E-04
 0.69580002E+02  0.62003E-04
 0.69630005E+02  0.11152E-03
 0.69680008E+02  0.22785E-03
 0.69730003E+02  0.37377E-03
 0.69780006E+02  0.44836E-03
 0.69830002E+02  0.42704E-03
 0.69880005E+02  0.31797E-03
 0.69930008E+02  0.11948E-03
 0.69980003E+02 -0.64084E-04
 0.70030006E+02 -0.13545E-03
 0.70080002E+02 -0.10247E-03
 0.70130005E+02 -0.31802E-04
 0.70180008E+02  0.18362E-04
 0.70230003E+02  0.64283E-04
 0.70280006E+02  0.75741E-04
 0.70330002E+02  0.18860E-04
 0.70380005E+02 -0.61654E-04
 0.70430008E+02 -0.13158E-03
 0.70480003E+02 -0.16530E-03
 0.70530006E+02 -0.15493E-03
 0.70580002E+02 -0.92765E-04
 0.70630005E+02 -0.24485E-04
 0.70680008E+02  0.21096E-04
 0.70730003E+02  0.98018E-04
 0.70780006E+02  0.21556E-03
 0.70830002E+02  0.34913E-03
 0.70880005E+02  0.45076E-03
 0.70930008E+02  0.51204E-03
 0.70980003E+02  0.51717E-03
 0.71030006E+02  0.40959E-03
 0.71080002E+02  0.18841E-03
 0.71130005E+02 -0.12383E-03
 0.71180008E+02 -0.42923E-03
 0.71230003E+02 -0.59505E-03
 0.71280006E+02 -0.61601E-03
 0.71330002E+02 -0.54870E-03
 0.71380005E+02 -0.40102E-03
 0.71430008E+02 -0.21565E-03
 0.71480003E+02 -0.72148E-04
 0.71530006E+02  0.24175E-04
 0.71580002E+02  0.14268E-03
 0.71630005E+02  0.30461E-03
 0.71680008E+02  0.43640E-03
 0.71730003E+02  0.47055E-03
 0.71780006E+02  0.37587E-03
 0.71830002E+02  0.15915E-03
 0.71880005E+02 -0.98149E-04
 0.71930008E+02 -0.31236E-03
 0.71980003E+02 -0.43501E-03
 0.72030006E+02 -0.41720E-03
 0.72080002E+02 -0.28299E-03
 0.72130005E+02 -0.10700E-03
 0.72180008E+02  0.32088E-04
 0.72230003E+02  0.87433E-04
 0.72280006E+02  0.90052E-04
 0.72330002E+02  0.79039E-04
 0.72380005E+02  0.95002E-04
 0.72430008E+02  0.13558E-03
 0.72480003E+02  0.11126E-03
 0.72530006E+02 -0.48822E-05
 0.72580002E+02 -0.11224E-03
 0.72630005E+02 -0.15336E-03
 0.72680008E+02 -0.16248E-03
 0.72730003E+02 -0.14483E-03
 0.72780006E+02 -0.93684E-04
 0.72830002E+02 -0.63922E-04
 0.72880005E+02 -0.74615E-04
 0.72930008E+02 -0.72352E-04
 0.72980003E+02 -0.26626E-04
 0.73030006E+02  0.66338E-04
 0.73080002E+02  0.19345E-03
 0.73130005E+02  0.35197E-03
 0.73180008E+02  0.50950E-03
 0.73230003E+02  0.58422E-03
 0.73280006E+02  0.56089E-03
 0.73330002E+02  0.46824E-03
 0.73380005E+02  0.31019E-03
 0.73430008E+02  0.93786E-04
 0.73480003E+02 -0.15092E-03
 0.73530006E+02 -0.37045E-03
 0.73580002E+02 -0.52899E-03
 0.73630005E+02 -0.63517E-03
 0.73680008E+02 -0.67926E-03
 0.73730003E+02 -0.60908E-03
 0.73780006E+02 -0.41170E-03
 0.73830002E+02 -0.16922E-03
 0.73880005E+02  0.31275E-04
 0.73930008E+02  0.14069E-03
 0.73980003E+02  0.16197E-03
 0.74030006E+02  0.17781E-03
 0.74080002E+02  0.21760E-03
 0.74130005E+02  0.25271E-03
 0.74180008E+02  0.26798E-03
 0.74230003E+02  0.26935E-03
 0.74280006E+02  0.28165E-03
 0.74330002E+02  0.27433E-03
 0.74380005E+02  0.24466E-03
 0.74430008E+02  0.21181E-03
 0.74480003E+02  0.12777E-03
 0.74530006E+02  0.10676E-04
 0.74580002E+02 -0.12619E-03
 0.74630005E+02 -0.29980E-03
 0.74680008E+02 -0.43452E-03
 0.74730003E+02 -0.45321E-03
 0.74780006E+02 -0.34415E-03
 0.74830002E+02 -0.18005E-03
 0.74880005E+02 -0.19987E-04
 0.74930008E+02  0.12851E-03
 0.74980003E+02  0.24362E-03
 0.75030006E+02  0.29411E-03
 0.75080002E+02  0.24654E-03
 0.75130005E+02  0.12551E-03
 0.75180008E+02 -0.21332E-04
 0.75230003E+02 -0.14735E-03
 0.75280006E+02 -0.21655E-03
 0.75330002E+02 -0.25728E-03
 0.75380005E+02 -0.28981E-03
 0.75430008E+02 -0.29481E-03
 0.75480003E+02 -0.27775E-03
 0.75530006E+02 -0.22940E-03
 0.75580002E+02 -0.10964E-03
 0.75630005E+02  0.48874E-04
 0.75680008E+02  0.16784E-03
 0.75730003E+02  0.23750E-03
 0.75780006E+02  0.27927E-03
 0.75830002E+02  0.30027E-03
 0.75880005E+02  0.31547E-03
 0.75930008E+02  0.30017E-03
 0.75980003E+02  0.22345E-03
 0.76030006E+02  0.11265E-03
 0.76080002E+02  0.27183E-05
 0.76130005E+02 -0.10368E-03
 0.76180008E+02 -0.19914E-03
 0.76230003E+02 -0.25772E-03
 0.76280006E+02 -0.23721E-03
 0.76330002E+02 -0.96930E-04
 0.76380005E+02  0.94600E-04
 0.76430008E+02  0.20571E-03
 0.76480003E+02  0.17680E-03
 0.76530006E+02  0.22830E-04
 0.76580002E+02 -0.16971E-03
 0.76630005E+02 -0.29472E-03
 0.76680008E+02 -0.31015E-03
 0.76730003E+02 -0.24056E-03
 0.76780006E+02 -0.14299E-03
 0.76830002E+02 -0.43347E-04
 0.76880005E+02  0.55310E-04
 0.76930008E+02  0.13976E-03
 0.76980003E+02  0.20844E-03
 0.77030006E+02  0.28020E-03
 0.77080002E+02  0.34979E-03
 0.77130005E+02  0.39945E-03
 0.77180008E+02  0.41998E-03
 0.77230003E+02  0.34588E-03
 0.77280006E+02  0.18337E-03
 0.77330002E+02  0.11952E-04
 0.77380005E+02 -0.13778E-03
 0.77430008E+02 -0.21906E-03
 0.77480003E+02 -0.20184E-03
 0.77530006E+02 -0.12519E-03
 0.77580002E+02 -0.45817E-04
 0.77630005E+02 -0.18095E-04
 0.77680008E+02 -0.81169E-04
 0.77730003E+02 -0.18682E-03
 0.77780006E+02 -0.27607E-03
 0.77830002E+02 -0.32778E-03
 0.77880005E+02 -0.32071E-03
 0.77930008E+02 -0.25823E-03
 0.77980003E+02 -0.13092E-03
 0.78030006E+02  0.34755E-04
 0.78080002E+02  0.18429E-03
 0.78130005E+02  0.31078E-03
 0.78180008E+02  0.39244E-03
 0.78230003E+02  0.41338E-03
 0.78280006E+02  0.40323E-03
 0.78330002E+02  0.34206E-03
 0.78380005E+02  0.20219E-03
 0.78430008E+02  0.37717E-04
 0.78480003E+02 -0.93503E-04
 0.78530006E+02 -0.18471E-03
 0.78580002E+02 -0.24505E-03
 0.78630005E+02 -0.27456E-03
 0.78680008E+02 -0.26282E-03
 0.78730003E+02 -0.20754E-03
 0.78780006E+02 -0.14576E-03
 0.78830002E+02 -0.12469E-03
 0.78880005E+02 -0.15664E-03
 0.78930008E+02 -0.19849E-03
 0.78980003E+02 -0.19146E-03
 0.79030006E+02 -0.14446E-03
 0.79080002E+02 -0.10271E-03
 0.79130005E+02 -0.11735E-03
 0.79180008E+02 -0.20645E-03
 0.79230003E+02 -0.27452E-03
 0.79280006E+02 -0.24625E-03
 0.79330002E+02 -0.13109E-03
 0.79380005E+02  0.58982E-04
 0.79430008E+02  0.24120E-03
 0.79480003E+02  0.33184E-03
 0.79530006E+02  0.34143E-03
 0.79580002E+02  0.26879E-03
 0.79630005E+02  0.14733E-03
 0.79680008E+02  0.63422E-04
 0.79730003E+02  0.40428E-04
 0.79780006E+02  0.57179E-04
 0.79830002E+02  0.85300E-04
 0.79880005E+02  0.11971E-03
 0.79930008E+02  0.14075E-03
 0.79980003E+02  0.14786E-03
 0.80030006E+02  0.17314E-03
 0.80080002E+02  0.22542E-03
 0.80130005E+02  0.32142E-03
 0.80180008E+02  0.36820E-03
 0.80230003E+02  0.29523E-03
 0.80280006E+02  0.14430E-03
 0.80330002E+02 -0.73914E-04
 0.80380005E+02 -0.30953E-03
 0.80430008E+02 -0.48347E-03
 0.80480003E+02 -0.55589E-03
 0.80530006E+02 -0.48495E-03
 0.80580002E+02 -0.27047E-03
 0.80630005E+02 -0.36473E-04
 0.80680008E+02  0.12685E-03
 0.80730003E+02  0.22355E-03
 0.80780006E+02  0.26259E-03
 0.80830002E+02  0.25235E-03
 0.80880005E+02  0.18654E-03
 0.80930008E+02  0.88121E-04
 0.80980003E+02  0.45106E-06
 0.81030006E+02 -0.68403E-04
 0.81080002E+02 -0.12578E-03
 0.81130005E+02 -0.16282E-03
 0.81180008E+02 -0.18427E-03
 0.81230003E+02 -0.20363E-03
 0.81280006E+02 -0.19116E-03
 0.81330002E+02 -0.13004E-03
 0.81380005E+02 -0.56133E-04
 0.81430008E+02  0.13638E-04
 0.81480003E+02  0.66490E-04
 0.81530006E+02  0.72495E-04
 0.81580002E+02  0.64058E-04
 0.81630005E+02  0.80188E-04
 0.81680008E+02  0.89449E-04
 0.81730003E+02  0.43452E-04
 0.81780006E+02 -0.44365E-04
 0.81830002E+02 -0.98394E-04
 0.81880005E+02 -0.10332E-03
 0.81930008E+02 -0.92125E-04
 0.81980003E+02 -0.48570E-04
 0.82030006E+02  0.36674E-05
 0.82080002E+02  0.13832E-04
 0.82130005E+02  0.43466E-05
 0.82180008E+02 -0.20829E-04
 0.82230003E+02 -0.57836E-04
 0.82280006E+02 -0.77388E-04
 0.82330002E+02 -0.59417E-04
 0.82380005E+02  0.18140E-04
 0.82430008E+02  0.12195E-03
 0.82480003E+02  0.17538E-03
 0.82530006E+02  0.14002E-03
 0.82580002E+02  0.78511E-04
 0.82630005E+02  0.54221E-04
 0.82680008E+02  0.87061E-04
 0.82730003E+02  0.17645E-03
 0.82780006E+02  0.27211E-03
 0.82830002E+02  0.31518E-03
 0.82880005E+02  0.28279E-03
 0.82930008E+02  0.20551E-03
 0.82980003E+02  0.81522E-04
 0.83030006E+02 -0.75615E-04
 0.83080002E+02 -0.22685E-03
 0.83130005E+02 -0.34821E-03
 0.83180008E+02 -0.38453E-03
 0.83230003E+02 -0.32409E-03
 0.83280006E+02 -0.19037E-03
 0.83330002E+02 -0.34874E-04
 0.83380005E+02  0.92607E-04
 0.83430008E+02  0.16858E-03
 0.83480003E+02  0.18184E-03
 0.83530006E+02  0.16336E-03
 0.83580002E+02  0.11191E-03
 0.83630005E+02  0.77499E-06
 0.83680008E+02 -0.13616E-03
 0.83730003E+02 -0.25072E-03
 0.83780006E+02 -0.31329E-03
 0.83830002E+02 -0.29741E-03
 0.83880005E+02 -0.24666E-03
 0.83930008E+02 -0.20271E-03
 0.83980003E+02 -0.13824E-03
 0.84030006E+02 -0.58125E-04
 0.84080002E+02  0.20190E-04
 0.84130005E+02  0.72401E-04
 0.84180008E+02  0.68791E-04
 0.84230003E+02  0.35653E-04
 0.84280006E+02  0.77081E-06
 0.84330002E+02 -0.22424E-04
 0.84380005E+02 -0.11663E-04
 0.84430008E+02  0.46290E-04
 0.84480003E+02  0.14595E-03
 0.84530006E+02  0.26047E-03
 0.84580002E+02  0.36363E-03
 0.84630005E+02  0.42796E-03
 0.84680008E+02  0.43493E-03
 0.84730003E+02  0.37635E-03
 0.84780006E+02  0.25257E-03
 0.84830002E+02  0.11977E-03
 0.84880005E+02  0.33149E-04
 0.84930008E+02 -0.13169E-04
 0.84980003E+02 -0.21867E-04
 0.85030006E+02 -0.59646E-05
 0.85080002E+02 -0.99869E-05
 0.85130005E+02 -0.44597E-04
 0.85180008E+02 -0.10763E-03
 0.85230003E+02 -0.19162E-03
 0.85280006E+02 -0.25508E-03
 0.85330002E+02 -0.27173E-03
 0.85380005E+02 -0.25166E-03
 0.85430008E+02 -0.22171E-03
 0.85480003E+02 -0.21251E-03
 0.85530006E+02 -0.23088E-03
 0.85580002E+02 -0.25498E-03
 0.85630005E+02 -0.26305E-03
 0.85680008E+02 -0.23746E-03
 0.85730003E+02 -0.15733E-03
 0.85780006E+02 -0.30284E-04
 0.85830002E+02  0.97986E-04
 0.85880005E+02  0.19695E-03
 0.85930008E+02  0.24807E-03
 0.85980003E+02  0.24110E-03
 0.86030006E+02  0.19363E-03
 0.86080002E+02  0.13904E-03
 0.86130005E+02  0.96868E-04
 0.86180008E+02  0.70087E-04
 0.86230003E+02  0.71611E-04
 0.86280006E+02  0.94415E-04
 0.86330002E+02  0.12605E-03
 0.86380005E+02  0.14244E-03
 0.86430008E+02  0.11572E-03
 0.86480003E+02  0.58396E-04
 0.86530006E+02 -0.74938E-07
 0.86580002E+02 -0.42928E-04
 0.86630005E+02 -0.79641E-04
 0.86680008E+02 -0.10061E-03
 0.86730003E+02 -0.93133E-04
 0.86780006E+02 -0.66518E-04
 0.86830002E+02 -0.24589E-04
 0.86880005E+02  0.92440E-05
 0.86930008E+02  0.37132E-04
 0.86980003E+02  0.70188E-04
 0.87030006E+02  0.38781E-04
 0.87080002E+02 -0.60491E-04
 0.87130005E+02 -0.17687E-03
 0.87180008E+02 -0.30098E-03
 0.87230003E+02 -0.38781E-03
 0.87280006E+02 -0.39916E-03
 0.87330002E+02 -0.30979E-03
 0.87380005E+02 -0.15632E-03
 0.87430008E+02  0.11879E-04
 0.87480003E+02  0.17014E-03
 0.87530006E+02  0.29178E-03
 0.87580002E+02  0.35438E-03
 0.87630005E+02  0.29918E-03
 0.87680008E+02  0.17150E-03
 0.87730003E+02  0.32773E-04
 0.87780006E+02 -0.74728E-04
 0.87830002E+02 -0.10205E-03
 0.87880005E+02 -0.94474E-04
 0.87930008E+02 -0.72879E-04
 0.87980003E+02 -0.35617E-04
 0.88030006E+02 -0.46802E-05
 0.88080002E+02  0.32233E-05
 0.88130005E+02 -0.10072E-04
 0.88180008E+02 -0.20748E-06
 0.88230003E+02  0.51850E-04
 0.88280006E+02  0.94829E-04
 0.88330002E+02  0.12418E-03
 0.88380005E+02  0.17113E-03
 0.88430008E+02  0.24386E-03
 0.88480003E+02  0.32053E-03
 0.88530006E+02  0.35296E-03
 0.88580002E+02  0.35390E-03
 0.88630005E+02  0.33420E-03
 0.88680008E+02  0.28061E-03
 0.88730003E+02  0.19355E-03
 0.88780006E+02  0.91393E-04
 0.88830002E+02 -0.69024E-05
 0.88880005E+02 -0.11161E-03
 0.88930008E+02 -0.23618E-03
 0.88980003E+02 -0.36750E-03
 0.89030006E+02 -0.45726E-03
 0.89080002E+02 -0.48697E-03
 0.89130005E+02 -0.43867E-03
 0.89180008E+02 -0.32572E-03
 0.89230003E+02 -0.20778E-03
 0.89280006E+02 -0.97151E-04
 0.89330002E+02 -0.71537E-05
 0.89380005E+02  0.59470E-04
 0.89430008E+02  0.13000E-03
 0.89480003E+02  0.17979E-03
 0.89530006E+02  0.18215E-03
 0.89580002E+02  0.14973E-03
 0.89630005E+02  0.88895E-04
 0.89680008E+02  0.37054E-04
 0.89730003E+02 -0.58975E-05
 0.89780006E+02 -0.75861E-04
 0.89830002E+02 -0.16597E-03
 0.89880005E+02 -0.26338E-03
 0.89930008E+02 -0.32318E-03
 0.89980003E+02 -0.30680E-03
 0.90030006E+02 -0.22234E-03
 0.90080002E+02 -0.10411E-03
 0.90130005E+02  0.35372E-05
 0.90180008E+02  0.77251E-04
 0.90230003E+02  0.11419E-03
 0.90280006E+02  0.11854E-03
 0.90330002E+02  0.91856E-04
 0.90380005E+02  0.62271E-04
 0.90430008E+02  0.60335E-04
 0.90480003E+02  0.71118E-04
 0.90530006E+02  0.72855E-04
 0.90580002E+02  0.71949E-04
 0.90630005E+02  0.85314E-04
 0.90680008E+02  0.10957E-03
 0.90730003E+02  0.13017E-03
 0.90780006E+02  0.14065E-03
 0.90830002E+02  0.14877E-03
 0.90880005E+02  0.15640E-03
 0.90930008E+02  0.13291E-03
 0.90980003E+02  0.57492E-04
 0.91030006E+02 -0.55065E-04
 0.91080002E+02 -0.15578E-03
 0.91130005E+02 -0.19000E-03
 0.91180008E+02 -0.16500E-03
 0.91230003E+02 -0.10708E-03
 0.91280006E+02 -0.33081E-04
 0.91330002E+02  0.27199E-04
 0.91380005E+02  0.84288E-04
 0.91430008E+02  0.14618E-03
 0.91480003E+02  0.17226E-03
 0.91530006E+02  0.16446E-03
 0.91580002E+02  0.14985E-03
 0.91630005E+02  0.12912E-03
 0.91680008E+02  0.12670E-03
 0.91730003E+02  0.14046E-03
 0.91780006E+02  0.13154E-03
 0.91830002E+02  0.99413E-04
 0.91880005E+02  0.57899E-04
 0.91930008E+02  0.13288E-04
 0.91980003E+02 -0.41985E-04
 0.92030006E+02 -0.12306E-03
 0.92080002E+02 -0.21085E-03
 0.92130005E+02 -0.25722E-03
 0.92180008E+02 -0.23516E-03
 0.92230003E+02 -0.16353E-03
 0.92280006E+02 -0.10099E-03
 0.92330002E+02 -0.82986E-04
 0.92380005E+02 -0.86212E-04
 0.92430008E+02 -0.88270E-04
 0.92480003E+02 -0.92437E-04
 0.92530006E+02 -0.96463E-04
 0.92580002E+02 -0.80400E-04
 0.92630005E+02 -0.36456E-04
 0.92680008E+02  0.24415E-04
 0.92730003E+02  0.77058E-04
 0.92780006E+02  0.99405E-04
 0.92830002E+02  0.72080E-04
 0.92880005E+02 -0.72854E-05
 0.92930008E+02 -0.10127E-03
 0.92980003E+02 -0.17193E-03
 0.93030006E+02 -0.19960E-03
 0.93080002E+02 -0.19255E-03
 0.93130005E+02 -0.14811E-03
 0.93180008E+02 -0.77070E-04
 0.93230003E+02 -0.37803E-05
 0.93280006E+02  0.58085E-04
 0.93330002E+02  0.84257E-04
 0.93380005E+02  0.87769E-04
 0.93430008E+02  0.83072E-04
 0.93480003E+02  0.72634E-04
 0.93530006E+02  0.54118E-04
 0.93580002E+02  0.41683E-04
 0.93630005E+02  0.57359E-04
 0.93680008E+02  0.94184E-04
 0.93730003E+02  0.16164E-03
 0.93780006E+02  0.23584E-03
 0.93830002E+02  0.27242E-03
 0.93880005E+02  0.27766E-03
 0.93930008E+02  0.26031E-03
 0.93980003E+02  0.22517E-03
 0.94030006E+02  0.19189E-03
 0.94080002E+02  0.15159E-03
 0.94130005E+02  0.86216E-04
 0.94180008E+02 -0.26026E-05
 0.94230003E+02 -0.85251E-04
 0.94280006E+02 -0.12614E-03
 0.94330002E+02 -0.13123E-03
 0.94380005E+02 -0.11409E-03
 0.94430008E+02 -0.92022E-04
 0.94480003E+02 -0.72764E-04
 0.94530006E+02 -0.60017E-04
 0.94580002E+02 -0.64486E-04
 0.94630005E+02 -0.65930E-04
 0.94680008E+02 -0.50719E-04
 0.94730003E+02 -0.31214E-04
 0.94780006E+02 -0.15320E-04
 0.94830002E+02 -0.61155E-05
 0.94880005E+02 -0.12729E-04
 0.94930008E+02 -0.33862E-04
 0.94980003E+02 -0.71542E-04
 0.95030006E+02 -0.12706E-03
 0.95080002E+02 -0.18535E-03
 0.95130005E+02 -0.22328E-03
 0.95180008E+02 -0.20153E-03
 0.95230003E+02 -0.12596E-03
 0.95280006E+02 -0.29903E-04
 0.95330002E+02  0.69251E-04
 0.95380005E+02  0.14933E-03
 0.95430008E+02  0.19987E-03
 0.95480003E+02  0.20257E-03
 0.95530006E+02  0.14891E-03
 0.95580002E+02  0.55813E-04
 0.95630005E+02 -0.45984E-04
 0.95680008E+02 -0.11471E-03
 0.95730003E+02 -0.12356E-03
 0.95780006E+02 -0.80056E-04
 0.95830002E+02 -0.97430E-05
 0.95880005E+02  0.68736E-04
 0.95930008E+02  0.12447E-03
 0.95980003E+02  0.12707E-03
 0.96030006E+02  0.71904E-04
 0.96080002E+02 -0.15192E-04
 0.96130005E+02 -0.10254E-03
 0.96180008E+02 -0.16706E-03
 0.96230003E+02 -0.17823E-03
 0.96280006E+02 -0.13868E-03
 0.96330002E+02 -0.83853E-04
 0.96380005E+02 -0.45146E-04
 0.96430008E+02 -0.38347E-04
 0.96480003E+02 -0.40616E-04
 0.96530006E+02 -0.24672E-04
 0.96580002E+02  0.80296E-05
 0.96630005E+02  0.58325E-04
 0.96680008E+02  0.11861E-03
 0.96730003E+02  0.16798E-03
 0.96780006E+02  0.18316E-03
 0.96830002E+02  0.13691E-03
 0.96880005E+02  0.52756E-04
 0.96930008E+02 -0.29804E-04
 0.96980003E+02 -0.97842E-04
 0.97030006E+02 -0.12543E-03
 0.97080002E+02 -0.11447E-03
 0.97130005E+02 -0.79033E-04
 0.97180008E+02 -0.36248E-04
 0.97230003E+02 -0.84049E-05
 0.97280006E+02  0.21014E-04
 0.97330002E+02  0.55165E-04
 0.97380005E+02  0.80929E-04
 0.97430008E+02  0.95497E-04
 0.97480003E+02  0.86912E-04
 0.97530006E+02  0.45367E-04
 0.97580002E+02 -0.10604E-04
 0.97630005E+02 -0.69486E-04
 0.97680008E+02 -0.12565E-03
 0.97730003E+02 -0.15132E-03
 0.97780006E+02 -0.13528E-03
 0.97830002E+02 -0.82981E-04
 0.97880005E+02 -0.11888E-04
 0.97930008E+02  0.73747E-04
 0.97980003E+02  0.16667E-03
 0.98030006E+02  0.22771E-03
 0.98080002E+02  0.23902E-03
 0.98130005E+02  0.20333E-03
 0.98180008E+02  0.13266E-03
 0.98230003E+02  0.49985E-04
 0.98280006E+02 -0.21808E-04
 0.98330002E+02 -0.65802E-04
 0.98380005E+02 -0.78356E-04
 0.98430008E+02 -0.66409E-04
 0.98480003E+02 -0.52128E-04
 0.98530006E+02 -0.57628E-04
 0.98580002E+02 -0.77818E-04
 0.98630005E+02 -0.95574E-04
 0.98680008E+02 -0.10665E-03
 0.98730003E+02 -0.10337E-03
 0.98780006E+02 -0.77311E-04
 0.98830002E+02 -0.43110E-04
 0.98880005E+02 -0.12189E-04
 0.98930008E+02  0.14375E-04
 0.98980003E+02  0.25732E-04
 0.99030006E+02  0.23792E-04
 0.99080002E+02  0.20664E-04
 0.99130005E+02  0.15663E-04
 0.99180008E+02  0.11526E-05
 0.99230003E+02 -0.13768E-04
 0.99280006E+02  0.13157E-05
 0.99330002E+02  0.54686E-04
 0.99380005E+02  0.10930E-03
 0.99430008E+02  0.13562E-03
 0.99480003E+02  0.14048E-03
 0.99530006E+02  0.12738E-03
 0.99580002E+02  0.11242E-03
 0.99630005E+02  0.10147E-03
 0.99680008E+02  0.65985E-04
 0.99730003E+02  0.33136E-05
 0.99780006E+02 -0.64422E-04
 0.99830002E+02 -0.11289E-03
 0.99880005E+02 -0.13508E-03
 0.99930008E+02 -0.14234E-03
 0.99980003E+02 -0.13659E-03
 0.10003001E+03 -0.11206E-03
 0.10008000E+03 -0.67118E-04
 0.10013000E+03 -0.83354E-05
 0.10018001E+03  0.59745E-04
 0.10023000E+03  0.12856E-03
 0.10028001E+03  0.16879E-03
 0.10033000E+03  0.14993E-03
 0.10038000E+03  0.69560E-04
 0.10043001E+03 -0.35688E-04
 0.10048000E+03 -0.11606E-03
 0.10053001E+03 -0.14559E-03
 0.10058000E+03 -0.14234E-03
 0.10063000E+03 -0.13458E-03
 0.10068001E+03 -0.11849E-03
 0.10073000E+03 -0.87784E-04
 0.10078001E+03 -0.35311E-04
 0.10083000E+03  0.22426E-04
 0.10088000E+03  0.62630E-04
 0.10093001E+03  0.83578E-04
 0.10098000E+03  0.73027E-04
 0.10103001E+03  0.47276E-04
 0.10108000E+03  0.28061E-05
 0.10113000E+03 -0.53904E-04
 0.10118001E+03 -0.93517E-04
 0.10123000E+03 -0.12847E-03
 0.10128001E+03 -0.13752E-03
 0.10133000E+03 -0.10721E-03
 0.10138000E+03 -0.54015E-04
 0.10143001E+03 -0.44203E-05
 0.10148000E+03  0.11473E-04
 0.10153001E+03  0.12221E-04
 0.10158000E+03  0.24137E-04
 0.10163000E+03  0.51219E-04
 0.10168001E+03  0.79004E-04
 0.10173000E+03  0.87442E-04
 0.10178001E+03  0.76429E-04
 0.10183000E+03  0.49632E-04
 0.10188000E+03  0.11576E-04
 0.10193001E+03 -0.55910E-05
 0.10198000E+03  0.16649E-04
 0.10203001E+03  0.61136E-04
 0.10208000E+03  0.11247E-03
 0.10213000E+03  0.14754E-03
 0.10218001E+03  0.14781E-03
 0.10223000E+03  0.11605E-03
 0.10228001E+03  0.69718E-04
 0.10233000E+03  0.32259E-04
 0.10238000E+03  0.10653E-04
 0.10243001E+03  0.10335E-04
 0.10248000E+03  0.23547E-04
 0.10253001E+03  0.33229E-04
 0.10258000E+03  0.44936E-04
 0.10263000E+03  0.51410E-04
 0.10268001E+03  0.48412E-04
 0.10273000E+03  0.50565E-04
 0.10278001E+03  0.45401E-04
 0.10283000E+03  0.14302E-04
 0.10288000E+03 -0.38401E-04
 0.10293001E+03 -0.96068E-04
 0.10298000E+03 -0.13369E-03
 0.10303001E+03 -0.14407E-03
 0.10308000E+03 -0.13618E-03
 0.10313000E+03 -0.10931E-03
 0.10318001E+03 -0.82458E-04
 0.10323000E+03 -0.86493E-04
 0.10328001E+03 -0.12144E-03
 0.10333000E+03 -0.14905E-03
 0.10338000E+03 -0.13188E-03
 0.10343001E+03 -0.70893E-04
 0.10348000E+03  0.11688E-04
 0.10353001E+03  0.81743E-04
 0.10358000E+03  0.11527E-03
 0.10363000E+03  0.11602E-03
 0.10368001E+03  0.10011E-03
 0.10373000E+03  0.74735E-04
 0.10378001E+03  0.53683E-04
 0.10383000E+03  0.43996E-04
 0.10388000E+03  0.27277E-04
 0.10393001E+03  0.89420E-05
 0.10398000E+03 -0.14440E-04
 0.10403001E+03 -0.47223E-04
 0.10408000E+03 -0.63362E-04
 0.10413000E+03 -0.65730E-04
 0.10418001E+03 -0.66926E-04
 0.10423000E+03 -0.63645E-04
 0.10428001E+03 -0.51830E-04
 0.10433000E+03 -0.27033E-04
 0.10438000E+03 -0.71665E-05
 0.10443001E+03 -0.11649E-05
 0.10448000E+03  0.78776E-06
 0.10453001E+03 -0.21654E-05
 0.10458000E+03  0.14804E-04
 0.10463000E+03  0.58667E-04
 0.10468001E+03  0.89532E-04
 0.10473000E+03  0.84074E-04
 0.10478001E+03  0.37096E-04
 0.10483000E+03 -0.26077E-04
 0.10488000E+03 -0.65248E-04
 0.10493001E+03 -0.67171E-04
 0.10498000E+03 -0.29215E-04
 0.10503001E+03  0.27685E-04
 0.10508000E+03  0.81993E-04
 0.10513000E+03  0.12924E-03
 0.10518001E+03  0.15595E-03
 0.10523000E+03  0.14934E-03
 0.10528001E+03  0.10762E-03
 0.10533000E+03  0.41043E-04
 0.10538000E+03 -0.25138E-04
 0.10543001E+03 -0.64159E-04
 0.10548000E+03 -0.81746E-04
 0.10553001E+03 -0.86523E-04
 0.10558000E+03 -0.76739E-04
 0.10563000E+03 -0.68876E-04
 0.10568001E+03 -0.55811E-04
 0.10573000E+03 -0.26739E-04
 0.10578001E+03  0.37179E-05
 0.10583000E+03  0.40294E-04
 0.10588000E+03  0.67478E-04
 0.10593001E+03  0.70752E-04
 0.10598000E+03  0.68265E-04
 0.10603001E+03  0.47166E-04
 0.10608000E+03  0.52326E-05
 0.10613000E+03 -0.39965E-04
 0.10618001E+03 -0.86899E-04
 0.10623000E+03 -0.12310E-03
 0.10628001E+03 -0.14049E-03
 0.10633000E+03 -0.14816E-03
 0.10638000E+03 -0.14447E-03
 0.10643001E+03 -0.12834E-03
 0.10648000E+03 -0.10039E-03
 0.10653001E+03 -0.51646E-04
 0.10658000E+03 -0.23912E-06
 0.10663000E+03  0.28615E-04
 0.10668001E+03  0.48158E-04
 0.10673000E+03  0.68432E-04
 0.10678001E+03  0.69051E-04
 0.10683000E+03  0.35650E-04
 0.10688000E+03 -0.24552E-04
 0.10693001E+03 -0.78002E-04
 0.10698000E+03 -0.89697E-04
 0.10703001E+03 -0.51052E-04
 0.10708000E+03  0.21235E-04
 0.10713000E+03  0.92250E-04
 0.10718001E+03  0.14107E-03
 0.10723000E+03  0.15980E-03
 0.10728001E+03  0.15680E-03
 0.10733000E+03  0.14649E-03
 0.10738000E+03  0.12630E-03
 0.10743001E+03  0.97918E-04
 0.10748000E+03  0.73567E-04
 0.10753001E+03  0.67919E-04
 0.10758000E+03  0.68504E-04
 0.10763000E+03  0.59393E-04
 0.10768001E+03  0.45527E-04
 0.10773000E+03  0.27061E-04
 0.10778001E+03  0.52029E-05
 0.10783000E+03 -0.17802E-04
 0.10788000E+03 -0.28051E-04
 0.10793001E+03 -0.22469E-04
 0.10798000E+03 -0.15733E-04
 0.10803001E+03 -0.19765E-04
 0.10808000E+03 -0.46379E-04
 0.10813000E+03 -0.82776E-04
 0.10818001E+03 -0.11338E-03
 0.10823000E+03 -0.13040E-03
 0.10828001E+03 -0.12581E-03
 0.10833000E+03 -0.10715E-03
 0.10838000E+03 -0.77056E-04
 0.10843001E+03 -0.35344E-04
 0.10848000E+03  0.84510E-05
 0.10853001E+03  0.45662E-04
 0.10858000E+03  0.64647E-04
 0.10863000E+03  0.63149E-04
 0.10868001E+03  0.45839E-04
 0.10873000E+03  0.99913E-05
 0.10878001E+03 -0.26918E-04
 0.10883000E+03 -0.52505E-04
 0.10888000E+03 -0.70467E-04
 0.10893001E+03 -0.72786E-04
 0.10898000E+03 -0.58198E-04
 0.10903001E+03 -0.32633E-04
 0.10908000E+03 -0.28597E-05
 0.10913000E+03  0.33465E-04
 0.10918001E+03  0.71129E-04
 0.10923000E+03  0.90418E-04
 0.10928001E+03  0.80486E-04
 0.10933000E+03  0.43012E-04
 0.10938000E+03  0.27966E-05
 0.10943001E+03 -0.25695E-04
 0.10948000E+03 -0.37100E-04
 0.10953001E+03 -0.25706E-04
 0.10958000E+03 -0.87890E-05
 0.10963000E+03  0.28634E-05
 0.10968001E+03  0.16241E-05
 0.10973000E+03 -0.13094E-04
 0.10978001E+03 -0.28734E-04
 0.10983000E+03 -0.35742E-04
 0.10988000E+03 -0.32213E-04
 0.10993001E+03 -0.22876E-04
 0.10998000E+03 -0.17616E-04
 0.11003001E+03 -0.31654E-04
 0.11008000E+03 -0.60960E-04
 0.11013000E+03 -0.91766E-04
 0.11018001E+03 -0.10541E-03
 0.11023000E+03 -0.89589E-04
 0.11028001E+03 -0.48460E-04
 0.11033000E+03  0.28020E-05
 0.11038000E+03  0.48122E-04
 0.11043001E+03  0.78804E-04
 0.11048000E+03  0.80760E-04
 0.11053001E+03  0.62004E-04
 0.11058000E+03  0.31977E-04
 0.11063000E+03  0.13943E-05
 0.11068001E+03 -0.12198E-05
 0.11073000E+03  0.24458E-04
 0.11078001E+03  0.66001E-04
 0.11083000E+03  0.11725E-03
 0.11088000E+03  0.16296E-03
 0.11093001E+03  0.18731E-03
 0.11098000E+03  0.18105E-03
 0.11103001E+03  0.14398E-03
 0.11108000E+03  0.80816E-04
 0.11113000E+03 -0.33472E-05
 0.11118001E+03 -0.88441E-04
 0.11123000E+03 -0.14471E-03
 0.11128001E+03 -0.15655E-03
 0.11133000E+03 -0.12804E-03
 0.11138000E+03 -0.69755E-04
 0.11143001E+03 -0.61029E-05
 0.11148000E+03  0.36468E-04
 0.11153001E+03  0.59303E-04
 0.11158000E+03  0.62149E-04
 0.11163000E+03  0.42002E-04
 0.11168001E+03  0.97449E-05
 0.11173000E+03 -0.22484E-04
 0.11178001E+03 -0.46718E-04
 0.11183000E+03 -0.57209E-04
 0.11188000E+03 -0.48485E-04
 0.11193001E+03 -0.19364E-04
 0.11198000E+03  0.31427E-04
 0.11203001E+03  0.84535E-04
 0.11208000E+03  0.11240E-03
 0.11213000E+03  0.10615E-03
 0.11218001E+03  0.70162E-04
 0.11223000E+03  0.15908E-04
 0.11228001E+03 -0.43464E-04
 0.11233000E+03 -0.81762E-04
 0.11238000E+03 -0.85079E-04
 0.11243001E+03 -0.57713E-04
 0.11248000E+03 -0.90201E-05
 0.11253001E+03  0.35161E-04
 0.11258000E+03  0.56990E-04
 0.11263000E+03  0.49709E-04
 0.11268001E+03  0.11293E-04
 0.11273000E+03 -0.45376E-04
 0.11278001E+03 -0.10333E-03
 0.11283000E+03 -0.15059E-03
 0.11288000E+03 -0.18114E-03
 0.11293001E+03 -0.18938E-03
 0.11298000E+03 -0.17196E-03
 0.11303001E+03 -0.13134E-03
 0.11308000E+03 -0.83121E-04
 0.11313000E+03 -0.39977E-04
 0.11318001E+03 -0.90475E-05
 0.11323000E+03  0.10890E-04
 0.11328001E+03  0.34938E-04
 0.11333000E+03  0.56578E-04
 0.11338000E+03  0.72123E-04
 0.11343001E+03  0.84316E-04
 0.11348000E+03  0.93899E-04
 0.11353001E+03  0.10241E-03
 0.11358000E+03  0.10437E-03
 0.11363000E+03  0.10084E-03
 0.11368001E+03  0.88544E-04
 0.11373000E+03  0.71564E-04
 0.11378001E+03  0.58793E-04
 0.11383000E+03  0.49786E-04
 0.11388000E+03  0.43296E-04
 0.11393001E+03  0.33857E-04
 0.11398000E+03  0.10093E-04
 0.11403001E+03 -0.20621E-04
 0.11408000E+03 -0.36135E-04
 0.11413000E+03 -0.44921E-04
 0.11418001E+03 -0.62138E-04
 0.11423000E+03 -0.85995E-04
 0.11428001E+03 -0.10790E-03
 0.11433000E+03 -0.10300E-03
 0.11438000E+03 -0.65528E-04
 0.11443001E+03 -0.11255E-04
 0.11448000E+03  0.44317E-04
 0.11453001E+03  0.87379E-04
 0.11458000E+03  0.10586E-03
 0.11463000E+03  0.91699E-04
 0.11468001E+03  0.59967E-04
 0.11473000E+03  0.23435E-04
 0.11478001E+03 -0.83885E-05
 0.11483000E+03 -0.30805E-04
 0.11488000E+03 -0.45465E-04
 0.11493001E+03 -0.46097E-04
 0.11498000E+03 -0.38068E-04
 0.11503001E+03 -0.21817E-04
 0.11508000E+03 -0.51950E-06
 0.11513000E+03  0.14676E-04
 0.11518001E+03  0.24561E-04
 0.11523000E+03  0.30400E-04
 0.11528001E+03  0.25596E-04
 0.11533000E+03  0.47339E-05
 0.11538000E+03 -0.23073E-04
 0.11543001E+03 -0.49239E-04
 0.11548000E+03 -0.71617E-04
 0.11553001E+03 -0.97984E-04
 0.11558000E+03 -0.13164E-03
 0.11563000E+03 -0.14613E-03
 0.11568001E+03 -0.12427E-03
 0.11573000E+03 -0.72582E-04
 0.11578001E+03 -0.42739E-05
 0.11583000E+03  0.63551E-04
 0.11588000E+03  0.11696E-03
 0.11593001E+03  0.15196E-03
 0.11598000E+03  0.16845E-03
 0.11603001E+03  0.16314E-03
 0.11608000E+03  0.13663E-03
 0.11613000E+03  0.93865E-04
 0.11618001E+03  0.47627E-04
 0.11623000E+03  0.99741E-05
 0.11628001E+03 -0.12416E-04
 0.11633000E+03 -0.15101E-04
 0.11638000E+03 -0.19910E-05
 0.11643001E+03  0.14272E-04
 0.11648000E+03  0.16778E-04
 0.11653001E+03  0.53008E-05
 0.11658000E+03 -0.51275E-05
 0.11663000E+03 -0.10121E-04
 0.11668001E+03 -0.15793E-04
 0.11673000E+03 -0.32792E-04
 0.11678001E+03 -0.71032E-04
 0.11683000E+03 -0.12523E-03
 0.11688000E+03 -0.17161E-03
 0.11693001E+03 -0.18404E-03
 0.11698000E+03 -0.15606E-03
 0.11703001E+03 -0.10460E-03
 0.11708000E+03 -0.51985E-04
 0.11713000E+03 -0.56449E-05
 0.11718001E+03  0.34062E-04
 0.11723000E+03  0.65847E-04
 0.11728001E+03  0.85517E-04
 0.11733000E+03  0.83988E-04
 0.11738000E+03  0.69601E-04
 0.11743001E+03  0.56548E-04
 0.11748000E+03  0.44044E-04
 0.11753001E+03  0.39173E-04
 0.11758000E+03  0.52977E-04
 0.11763000E+03  0.72502E-04
 0.11768001E+03  0.82675E-04
 0.11773000E+03  0.80981E-04
 0.11778001E+03  0.68683E-04
 0.11783000E+03  0.56191E-04
 0.11788000E+03  0.48530E-04
 0.11793001E+03  0.43748E-04
 0.11798000E+03  0.37388E-04
 0.11803001E+03  0.27829E-04
 0.11808000E+03  0.24334E-04
 0.11813000E+03  0.32512E-04
 0.11818001E+03  0.48369E-04
 0.11823000E+03  0.60978E-04
 0.11828001E+03  0.62745E-04
 0.11833000E+03  0.54028E-04
 0.11838000E+03  0.35504E-04
 0.11843001E+03  0.60519E-05
 0.11848000E+03 -0.32177E-04
 0.11853001E+03 -0.75857E-04
 0.11858000E+03 -0.12197E-03
 0.11863000E+03 -0.16417E-03
 0.11868001E+03 -0.19260E-03
 0.11873000E+03 -0.19556E-03
 0.11878001E+03 -0.17312E-03
 0.11883000E+03 -0.13512E-03
 0.11888000E+03 -0.91966E-04
 0.11893001E+03 -0.56156E-04
 0.11898000E+03 -0.35086E-04
 0.11903001E+03 -0.18666E-04
 0.11908000E+03  0.40555E-05
 0.11913000E+03  0.31778E-04
 0.11918001E+03  0.58237E-04
 0.11923000E+03  0.79555E-04
 0.11928001E+03  0.96023E-04
 0.11933000E+03  0.98851E-04
 0.11938000E+03  0.87865E-04
 0.11943001E+03  0.63322E-04
 0.11948000E+03  0.24460E-04
 0.11953001E+03 -0.17844E-04
 0.11958000E+03 -0.55423E-04
 0.11963000E+03 -0.78374E-04
 0.11968001E+03 -0.87520E-04
 0.11973000E+03 -0.79743E-04
 0.11978001E+03 -0.53885E-04
 0.11983000E+03 -0.22774E-04
 0.11988000E+03  0.91963E-05
 0.11993001E+03  0.35117E-04
 0.11998000E+03  0.48404E-04
 0.12003001E+03  0.55841E-04
 0.12008000E+03  0.65429E-04
 0.12013000E+03  0.71524E-04
 0.12018001E+03  0.69630E-04
 0.12023000E+03  0.60805E-04
 0.12028001E+03  0.49862E-04
 0.12033000E+03  0.41154E-04
 0.12038000E+03  0.33764E-04
 0.12043001E+03  0.22902E-04
 0.12048000E+03 -0.10686E-05
 0.12053001E+03 -0.11440E-04
 0.12058000E+03  0.15659E-04
 0.12063000E+03  0.52245E-04
 0.12068001E+03  0.82484E-04
 0.12073000E+03  0.99455E-04
 0.12078001E+03  0.86279E-04
 0.12083000E+03  0.44120E-04
 0.12088000E+03 -0.25460E-04
 0.12093001E+03 -0.10333E-03
 0.12098000E+03 -0.15703E-03
 0.12103001E+03 -0.18306E-03
 0.12108000E+03 -0.17903E-03
 0.12113000E+03 -0.14681E-03
 0.12118001E+03 -0.10839E-03
 0.12123000E+03 -0.71850E-04
 0.12128001E+03 -0.36701E-04
 0.12133000E+03 -0.66001E-05
 0.12138000E+03  0.21871E-04
 0.12143001E+03  0.48329E-04
 0.12148000E+03  0.65242E-04
 0.12153001E+03  0.71405E-04
 0.12158000E+03  0.71336E-04
 0.12163000E+03  0.67641E-04
 0.12168001E+03  0.63007E-04
 0.12173000E+03  0.56280E-04
 0.12178001E+03  0.47833E-04
 0.12183000E+03  0.40032E-04
 0.12188000E+03  0.31011E-04
 0.12193001E+03  0.23007E-04
 0.12198000E+03  0.20957E-04
 0.12203001E+03  0.26663E-04
 0.12208000E+03  0.31353E-04
 0.12213000E+03  0.28181E-04
 0.12218001E+03  0.19157E-04
 0.12223000E+03  0.89377E-06
 0.12228001E+03 -0.23854E-04
 0.12233000E+03 -0.48765E-04
 0.12238000E+03 -0.78177E-04
 0.12243001E+03 -0.10712E-03
 0.12248000E+03 -0.12111E-03
 0.12253001E+03 -0.10557E-03
 0.12258000E+03 -0.56721E-04
 0.12263000E+03  0.94757E-05
 0.12268001E+03  0.71312E-04
 0.12273000E+03  0.10883E-03
 0.12278001E+03  0.11510E-03
 0.12283000E+03  0.93179E-04
 0.12288000E+03  0.58757E-04
 0.12293001E+03  0.30364E-04
 0.12298000E+03  0.67820E-05
 0.12303001E+03 -0.12018E-04
 0.12308000E+03 -0.26750E-04
 0.12313000E+03 -0.45662E-04
 0.12318001E+03 -0.61715E-04
 0.12323000E+03 -0.68514E-04
 0.12328001E+03 -0.65548E-04
 0.12333000E+03 -0.51615E-04
 0.12338000E+03 -0.36212E-04
 0.12343001E+03 -0.21514E-04
 0.12348000E+03 -0.11048E-04
 0.12353001E+03 -0.12376E-04
 0.12358000E+03 -0.23302E-04
 0.12363000E+03 -0.38553E-04
 0.12368001E+03 -0.47530E-04
 0.12373000E+03 -0.41720E-04
 0.12378001E+03 -0.15722E-04
 0.12383000E+03  0.28304E-04
 0.12388000E+03  0.78140E-04
 0.12393001E+03  0.11575E-03
 0.12398000E+03  0.12628E-03
 0.12403001E+03  0.10928E-03
 0.12408000E+03  0.72580E-04
 0.12413000E+03  0.30058E-04
 0.12418001E+03 -0.79569E-05
 0.12423000E+03 -0.33563E-04
 0.12428001E+03 -0.43489E-04
 0.12433000E+03 -0.43092E-04
 0.12438000E+03 -0.31850E-04
 0.12443001E+03 -0.18935E-04
 0.12448000E+03 -0.13532E-04
 0.12453001E+03 -0.14046E-04
 0.12458000E+03 -0.18755E-04
 0.12463000E+03 -0.19971E-04
 0.12468001E+03 -0.20807E-04
 0.12473000E+03 -0.28630E-04
 0.12478001E+03 -0.44834E-04
 0.12483000E+03 -0.66660E-04
 0.12488000E+03 -0.85929E-04
 0.12493001E+03 -0.96252E-04
 0.12498000E+03 -0.90598E-04
 0.12503001E+03 -0.66080E-04
 0.12508000E+03 -0.27592E-04
 0.12513000E+03  0.14485E-04
 0.12518001E+03  0.44919E-04
 0.12523000E+03  0.55866E-04
 0.12528001E+03  0.58614E-04
 0.12533000E+03  0.61388E-04
 0.12538000E+03  0.68205E-04
 0.12543001E+03  0.80146E-04
 0.12548000E+03  0.86399E-04
 0.12553001E+03  0.92417E-04
 0.12558000E+03  0.95647E-04
 0.12563000E+03  0.88947E-04
 0.12568001E+03  0.86354E-04
 0.12573000E+03  0.85897E-04
 0.12578001E+03  0.81854E-04
 0.12583000E+03  0.74409E-04
 0.12588000E+03  0.56860E-04
 0.12593001E+03  0.33356E-04
 0.12598000E+03  0.15328E-04
 0.12603001E+03  0.49282E-05
 0.12608000E+03  0.75298E-06
 0.12613000E+03 -0.15129E-05
 0.12618001E+03 -0.14786E-04
 0.12623000E+03 -0.44059E-04
 0.12628001E+03 -0.78792E-04
 0.12633000E+03 -0.11196E-03
 0.12638000E+03 -0.13517E-03
 0.12643001E+03 -0.13121E-03
 0.12648000E+03 -0.10046E-03
 0.12653001E+03 -0.56000E-04
 0.12658000E+03 -0.78716E-05
 0.12663000E+03  0.33840E-04
 0.12668001E+03  0.66585E-04
 0.12673000E+03  0.92672E-04
 0.12678001E+03  0.10468E-03
 0.12683000E+03  0.96672E-04
 0.12688000E+03  0.74182E-04
 0.12693001E+03  0.39326E-04
 0.12698000E+03  0.20136E-05
 0.12703001E+03 -0.29193E-04
 0.12708000E+03 -0.57218E-04
 0.12713000E+03 -0.76335E-04
 0.12718001E+03 -0.85515E-04
 0.12723000E+03 -0.88204E-04
 0.12728001E+03 -0.86576E-04
 0.12733000E+03 -0.81031E-04
 0.12738000E+03 -0.66354E-04
 0.12743001E+03 -0.45377E-04
 0.12748000E+03 -0.27066E-04
 0.12753001E+03 -0.19321E-04
 0.12758000E+03 -0.26410E-04
 0.12763000E+03 -0.43183E-04
 0.12768001E+03 -0.56152E-04
 0.12773000E+03 -0.59671E-04
 0.12778001E+03 -0.50753E-04
 0.12783000E+03 -0.25774E-04
 0.12788000E+03  0.36375E-05
 0.12793001E+03  0.27977E-04
 0.12798000E+03  0.42998E-04
 0.12803000E+03  0.44207E-04
 0.12808000E+03  0.38132E-04
 0.12813000E+03  0.34867E-04
 0.12818001E+03  0.34435E-04
 0.12823001E+03  0.32052E-04
 0.12828000E+03  0.27000E-04
 0.12833000E+03  0.20298E-04
 0.12838000E+03  0.17725E-04
 0.12843001E+03  0.18481E-04
 0.12848001E+03  0.17864E-04
 0.12853000E+03  0.17084E-04
 0.12858000E+03  0.14067E-04
 0.12863000E+03  0.99742E-05
 0.12868001E+03  0.22582E-05
 0.12873001E+03 -0.14325E-04
 0.12878000E+03 -0.36637E-04
 0.12883000E+03 -0.57438E-04
 0.12888000E+03 -0.67443E-04
 0.12893001E+03 -0.59365E-04
 0.12898001E+03 -0.33635E-04
 0.12903000E+03  0.20329E-05
 0.12908000E+03  0.40084E-04
 0.12913000E+03  0.74895E-04
 0.12918001E+03  0.10162E-03
 0.12923001E+03  0.11460E-03
 0.12928000E+03  0.11039E-03
 0.12933000E+03  0.88196E-04
 0.12938000E+03  0.54399E-04
 0.12943001E+03  0.18722E-04
 0.12948001E+03 -0.15016E-04
 0.12953000E+03 -0.43009E-04
 0.12958000E+03 -0.62042E-04
 0.12963000E+03 -0.64921E-04
 0.12968001E+03 -0.49599E-04
 0.12973001E+03 -0.24176E-04
 0.12978000E+03  0.58118E-05
 0.12983000E+03  0.34699E-04
 0.12988000E+03  0.57532E-04
 0.12993001E+03  0.69981E-04
 0.12998001E+03  0.69426E-04
 0.13003000E+03  0.59398E-04
 0.13008000E+03  0.48076E-04
 0.13013000E+03  0.40409E-04
 0.13018001E+03  0.35727E-04
 0.13023001E+03  0.31312E-04
 0.13028000E+03  0.19319E-04
 0.13033000E+03  0.20160E-05
 0.13038000E+03 -0.13153E-04
 0.13043001E+03 -0.22383E-04
 0.13048001E+03 -0.19780E-04
 0.13053000E+03 -0.97772E-05
 0.13058000E+03 -0.36487E-05
 0.13063000E+03 -0.88721E-05
 0.13068001E+03 -0.21431E-04
 0.13073001E+03 -0.35313E-04
 0.13078000E+03 -0.46045E-04
 0.13083000E+03 -0.50762E-04
 0.13088000E+03 -0.54713E-04
 0.13093001E+03 -0.57693E-04
 0.13098001E+03 -0.59930E-04
 0.13103000E+03 -0.64201E-04
 0.13108000E+03 -0.70612E-04
 0.13113000E+03 -0.78308E-04
 0.13118001E+03 -0.83309E-04
 0.13123001E+03 -0.83508E-04
 0.13128000E+03 -0.80082E-04
 0.13133000E+03 -0.75163E-04
 0.13138000E+03 -0.68957E-04
 0.13143001E+03 -0.61564E-04
 0.13148001E+03 -0.47937E-04
 0.13153000E+03 -0.22586E-04
 0.13158000E+03  0.92774E-05
 0.13163000E+03  0.39386E-04
 0.13168001E+03  0.58945E-04
 0.13173001E+03  0.63263E-04
 0.13178000E+03  0.56876E-04
 0.13183000E+03  0.48056E-04
 0.13188000E+03  0.42048E-04
 0.13193001E+03  0.41514E-04
 0.13198001E+03  0.49125E-04
 0.13203000E+03  0.61202E-04
 0.13208000E+03  0.72918E-04
 0.13213000E+03  0.76515E-04
 0.13218001E+03  0.62968E-04
 0.13223001E+03  0.40262E-04
 0.13228000E+03  0.17102E-04
 0.13233000E+03  0.14836E-05
 0.13238000E+03  0.41746E-05
 0.13243001E+03  0.20433E-04
 0.13248001E+03  0.43807E-04
 0.13253000E+03  0.67640E-04
 0.13258000E+03  0.78511E-04
 0.13263000E+03  0.70017E-04
 0.13268001E+03  0.42011E-04
 0.13273001E+03 -0.51186E-06
 0.13278000E+03 -0.44791E-04
 0.13283000E+03 -0.84021E-04
 0.13288000E+03 -0.11371E-03
 0.13293001E+03 -0.12155E-03
 0.13298001E+03 -0.11018E-03
 0.13303000E+03 -0.94902E-04
 0.13308000E+03 -0.70103E-04
 0.13313000E+03 -0.37851E-04
 0.13318001E+03 -0.17314E-04
 0.13323001E+03 -0.94126E-06
 0.13328000E+03  0.73205E-05
 0.13333000E+03  0.27780E-05
 0.13338000E+03  0.75467E-05
 0.13343001E+03  0.20103E-04
 0.13348001E+03  0.43149E-04
 0.13353000E+03  0.80920E-04
 0.13358000E+03  0.11089E-03
 0.13363000E+03  0.12607E-03
 0.13368001E+03  0.13103E-03
 0.13373001E+03  0.11965E-03
 0.13378000E+03  0.92618E-04
 0.13383000E+03  0.54035E-04
 0.13388000E+03  0.40578E-05
 0.13393001E+03 -0.47105E-04
 0.13398001E+03 -0.85668E-04
 0.13403000E+03 -0.10344E-03
 0.13408000E+03 -0.99094E-04
 0.13413000E+03 -0.81128E-04
 0.13418001E+03 -0.60350E-04
 0.13423001E+03 -0.44247E-04
 0.13428000E+03 -0.36786E-04
 0.13433000E+03 -0.37055E-04
 0.13438000E+03 -0.42221E-04
 0.13443001E+03 -0.44242E-04
 0.13448001E+03 -0.35648E-04
 0.13453000E+03 -0.15295E-04
 0.13458000E+03  0.15634E-04
 0.13463000E+03  0.48902E-04
 0.13468001E+03  0.75931E-04
 0.13473001E+03  0.89411E-04
 0.13478000E+03  0.85133E-04
 0.13483000E+03  0.65646E-04
 0.13488000E+03  0.34101E-04
 0.13493001E+03 -0.60028E-07
 0.13498001E+03 -0.26542E-04
 0.13503000E+03 -0.40329E-04
 0.13508000E+03 -0.38299E-04
 0.13513000E+03 -0.25864E-04
 0.13518001E+03 -0.12025E-04
 0.13523001E+03 -0.18097E-05
 0.13528000E+03  0.16228E-05
 0.13533000E+03 -0.38734E-05
 0.13538000E+03 -0.14091E-04
 0.13543001E+03 -0.20114E-04
 0.13548001E+03 -0.23021E-04
 0.13553000E+03 -0.26804E-04
 0.13558000E+03 -0.29648E-04
 0.13563000E+03 -0.29977E-04
 0.13568001E+03 -0.26579E-04
 0.13573001E+03 -0.22357E-04
 0.13578000E+03 -0.22998E-04
 0.13583000E+03 -0.29591E-04
 0.13588000E+03 -0.35971E-04
 0.13593001E+03 -0.36136E-04
 0.13598001E+03 -0.28624E-04
 0.13603000E+03 -0.13656E-04
 0.13608000E+03  0.41816E-05
 0.13613000E+03  0.19020E-04
 0.13618001E+03  0.30107E-04
 0.13623001E+03  0.38678E-04
 0.13628000E+03  0.41116E-04
 0.13633000E+03  0.35803E-04
 0.13638000E+03  0.19698E-04
 0.13643001E+03 -0.10381E-04
 0.13648001E+03 -0.43554E-04
 0.13653000E+03 -0.68115E-04
 0.13658000E+03 -0.77669E-04
 0.13663000E+03 -0.67093E-04
 0.13668001E+03 -0.37609E-04
 0.13673001E+03  0.41783E-05
 0.13678000E+03  0.48102E-04
 0.13683000E+03  0.83359E-04
 0.13688000E+03  0.10369E-03
 0.13693001E+03  0.10930E-03
 0.13698001E+03  0.10465E-03
 0.13703000E+03  0.93044E-04
 0.13708000E+03  0.79486E-04
 0.13713000E+03  0.66678E-04
 0.13718001E+03  0.52868E-04
 0.13723001E+03  0.40656E-04
 0.13728000E+03  0.29531E-04
 0.13733000E+03  0.18660E-04
 0.13738000E+03  0.96991E-05
 0.13743001E+03 -0.10202E-05
 0.13748001E+03 -0.16226E-04
 0.13753000E+03 -0.34806E-04
 0.13758000E+03 -0.50306E-04
 0.13763000E+03 -0.54879E-04
 0.13768001E+03 -0.49464E-04
 0.13773001E+03 -0.37803E-04
 0.13778000E+03 -0.22803E-04
 0.13783000E+03 -0.56639E-05
 0.13788000E+03  0.13752E-04
 0.13793001E+03  0.29081E-04
 0.13798001E+03  0.36434E-04
 0.13803000E+03  0.33619E-04
 0.13808000E+03  0.20280E-04
 0.13813000E+03  0.55215E-05
 0.13818001E+03 -0.86290E-05
 0.13823001E+03 -0.20838E-04
 0.13828000E+03 -0.27864E-04
 0.13833000E+03 -0.33296E-04
 0.13838000E+03 -0.32685E-04
 0.13843001E+03 -0.25302E-04
 0.13848001E+03 -0.17138E-04
 0.13853000E+03 -0.10773E-04
 0.13858000E+03 -0.88311E-05
 0.13863000E+03 -0.11156E-04
 0.13868001E+03 -0.16672E-04
 0.13873001E+03 -0.23415E-04
 0.13878000E+03 -0.29430E-04
 0.13883000E+03 -0.30010E-04
 0.13888000E+03 -0.24310E-04
 0.13893001E+03 -0.15948E-04
 0.13898001E+03 -0.54440E-05
 0.13903000E+03  0.34795E-05
 0.13908000E+03  0.77822E-05
 0.13913000E+03  0.67755E-05
 0.13918001E+03 -0.36439E-05
 0.13923001E+03 -0.23824E-04
 0.13928000E+03 -0.45917E-04
 0.13933000E+03 -0.64650E-04
 0.13938000E+03 -0.75898E-04
 0.13943001E+03 -0.75955E-04
 0.13948001E+03 -0.63937E-04
 0.13953000E+03 -0.39393E-04
 0.13958000E+03 -0.42092E-05
 0.13963000E+03  0.34299E-04
 0.13968001E+03  0.61425E-04
 0.13973001E+03  0.71931E-04
 0.13978000E+03  0.70205E-04
 0.13983000E+03  0.48915E-04
 0.13988000E+03  0.18849E-04
 0.13993001E+03  0.15942E-05
 0.13998001E+03 -0.12210E-04
 0.14003000E+03 -0.52994E-05
 0.14008000E+03  0.35302E-04
 0.14013000E+03  0.62279E-04
 0.14018001E+03  0.55192E-04
 0.14023001E+03  0.49508E-04
 0.14028000E+03  0.42383E-04
 0.14033000E+03 -0.47690E-05
 0.14038000E+03 -0.29631E-04
 0.14043001E+03 -0.13727E-04
 0.14048001E+03 -0.38898E-04
 0.14053000E+03 -0.48314E-04
 0.14058000E+03 -0.21031E-04
 0.14063000E+03 -0.29106E-04
 0.14068001E+03 -0.24780E-04
 0.14073001E+03 -0.33144E-05
 0.14078000E+03  0.10258E-04
 0.14083000E+03  0.34995E-04
 0.14088000E+03  0.32147E-04
 0.14093001E+03  0.23874E-04
 0.14098001E+03  0.41835E-04
 0.14103000E+03  0.55294E-04
 0.14108000E+03  0.64127E-04
 0.14113000E+03  0.74139E-04
 0.14118001E+03  0.72601E-04
 0.14123001E+03  0.55815E-04
 0.14128000E+03  0.28171E-04
 0.14133000E+03 -0.87826E-05
 0.14138000E+03 -0.31649E-04
 0.14143001E+03 -0.31930E-04
 0.14148001E+03 -0.30863E-04
 0.14153000E+03 -0.36476E-04
 0.14158000E+03 -0.42992E-04
 0.14163000E+03 -0.50391E-04
 0.14168001E+03 -0.47085E-04
 0.14173001E+03 -0.32394E-04
 0.14178000E+03 -0.29095E-04
 0.14183000E+03 -0.33458E-04
 0.14188000E+03 -0.48696E-04
 0.14193001E+03 -0.63740E-04
 0.14198001E+03 -0.58473E-04
 0.14203000E+03 -0.55640E-04
 0.14208000E+03 -0.56077E-04
 0.14213000E+03 -0.42620E-04
 0.14218001E+03 -0.20353E-04
 0.14223001E+03  0.33772E-06
 0.14228000E+03 -0.17997E-05
 0.14233000E+03 -0.20139E-04
 0.14238000E+03 -0.24904E-04
 0.14243001E+03 -0.30357E-04
 0.14248001E+03 -0.30544E-04
 0.14253000E+03  0.29002E-05
 0.14258000E+03  0.44498E-04
 0.14263000E+03  0.75092E-04
 0.14268001E+03  0.95069E-04
 0.14273001E+03  0.95197E-04
 0.14278000E+03  0.95893E-04
 0.14283000E+03  0.98876E-04
 0.14288000E+03  0.80626E-04
 0.14293001E+03  0.55683E-04
 0.14298001E+03  0.22680E-04
 0.14303000E+03 -0.16481E-04
 0.14308000E+03 -0.34574E-04
 0.14313000E+03 -0.37754E-04
 0.14318001E+03 -0.29548E-04
 0.14323001E+03 -0.43014E-05
 0.14328000E+03  0.22425E-04
 0.14333000E+03  0.43014E-04
 0.14338000E+03  0.59528E-04
 0.14343001E+03  0.61656E-04
 0.14348001E+03  0.44114E-04
 0.14353000E+03  0.10955E-04
 0.14358000E+03 -0.24560E-04
 0.14363000E+03 -0.48818E-04
 0.14368001E+03 -0.63206E-04
 0.14373001E+03 -0.69841E-04
 0.14378000E+03 -0.67125E-04
 0.14383000E+03 -0.51529E-04
 0.14388000E+03 -0.32262E-04
 0.14393001E+03 -0.18193E-04
 0.14398001E+03 -0.84262E-05
 0.14403000E+03 -0.85481E-05
 0.14408000E+03 -0.13899E-04
 0.14413000E+03 -0.14754E-04
 0.14418001E+03 -0.31476E-05
 0.14423001E+03  0.15598E-04
 0.14428000E+03  0.29103E-04
 0.14433000E+03  0.44183E-04
 0.14438000E+03  0.58857E-04
 0.14443001E+03  0.68663E-04
 0.14448001E+03  0.79058E-04
 0.14453000E+03  0.78929E-04
 0.14458000E+03  0.60995E-04
 0.14463000E+03  0.32957E-04
 0.14468001E+03  0.10631E-05
 0.14473001E+03 -0.25840E-04
 0.14478000E+03 -0.52022E-04
 0.14483000E+03 -0.84158E-04
 0.14488000E+03 -0.10739E-03
 0.14493001E+03 -0.11770E-03
 0.14498001E+03 -0.11606E-03
 0.14503000E+03 -0.98289E-04
 0.14508000E+03 -0.75885E-04
 0.14513000E+03 -0.52301E-04
 0.14518001E+03 -0.27910E-04
 0.14523001E+03 -0.66196E-05
 0.14528000E+03  0.14601E-04
 0.14533000E+03  0.31649E-04
 0.14538000E+03  0.44246E-04
 0.14543001E+03  0.55074E-04
 0.14548001E+03  0.64491E-04
 0.14553000E+03  0.72685E-04
 0.14558000E+03  0.70731E-04
 0.14563000E+03  0.65636E-04
 0.14568001E+03  0.62862E-04
 0.14573001E+03  0.46718E-04
 0.14578000E+03  0.30861E-04
 0.14583000E+03  0.20941E-04
 0.14588000E+03  0.81957E-05
 0.14593001E+03  0.20828E-05
 0.14598001E+03 -0.75923E-05
 0.14603000E+03 -0.18088E-04
 0.14608000E+03 -0.20256E-04
 0.14613000E+03 -0.21239E-04
 0.14618001E+03 -0.12584E-04
 0.14623001E+03  0.57909E-05
 0.14628000E+03  0.20749E-04
 0.14633000E+03  0.26050E-04
 0.14638000E+03  0.20390E-04
 0.14643001E+03  0.95442E-05
 0.14648001E+03  0.53137E-05
 0.14653000E+03  0.46183E-05
 0.14658000E+03 -0.17096E-05
 0.14663000E+03 -0.36231E-05
 0.14668001E+03 -0.25022E-05
 0.14673001E+03 -0.10700E-04
 0.14678000E+03 -0.26559E-04
 0.14683000E+03 -0.41656E-04
 0.14688000E+03 -0.52596E-04
 0.14693001E+03 -0.60814E-04
 0.14698001E+03 -0.74169E-04
 0.14703000E+03 -0.86763E-04
 0.14708000E+03 -0.75646E-04
 0.14713000E+03 -0.51832E-04
 0.14718001E+03 -0.28614E-04
 0.14723001E+03 -0.62019E-05
 0.14728000E+03  0.19197E-04
 0.14733000E+03  0.46629E-04
 0.14738000E+03  0.67569E-04
 0.14743001E+03  0.84552E-04
 0.14748001E+03  0.86269E-04
 0.14753000E+03  0.72481E-04
 0.14758000E+03  0.47933E-04
 0.14763000E+03  0.16959E-04
 0.14768001E+03 -0.15010E-04
 0.14773001E+03 -0.36506E-04
 0.14778000E+03 -0.36400E-04
 0.14783000E+03 -0.30079E-04
 0.14788000E+03 -0.24654E-04
 0.14793001E+03 -0.23557E-04
 0.14798001E+03 -0.21133E-04
 0.14803000E+03 -0.22618E-04
 0.14808000E+03 -0.42504E-04
 0.14813000E+03 -0.65419E-04
 0.14818001E+03 -0.70442E-04
 0.14823001E+03 -0.51031E-04
 0.14828000E+03 -0.26057E-04
 0.14833000E+03 -0.24019E-05
 0.14838000E+03  0.19072E-04
 0.14843001E+03  0.25385E-04
 0.14848001E+03  0.21702E-04
 0.14853000E+03  0.10335E-04
 0.14858000E+03  0.75687E-05
 0.14863000E+03  0.22556E-04
 0.14868001E+03  0.35859E-04
 0.14873001E+03  0.43869E-04
 0.14878000E+03  0.44727E-04
 0.14883000E+03  0.34718E-04
 0.14888000E+03  0.19427E-04
 0.14893001E+03 -0.50021E-05
 0.14898001E+03 -0.30909E-04
 0.14903000E+03 -0.37941E-04
 0.14908000E+03 -0.39543E-04
 0.14913000E+03 -0.41189E-04
 0.14918001E+03 -0.34381E-04
 0.14923001E+03 -0.24299E-04
 0.14928000E+03 -0.10904E-04
 0.14933000E+03  0.74852E-05
 0.14938000E+03  0.22814E-04
 0.14943001E+03  0.26852E-04
 0.14948001E+03  0.27860E-04
 0.14953000E+03  0.31502E-04
 0.14958000E+03  0.38958E-04
 0.14963000E+03  0.49110E-04
 0.14968001E+03  0.63765E-04
 0.14973001E+03  0.74744E-04
 0.14978000E+03  0.78923E-04
 0.14983000E+03  0.84013E-04
 0.14988000E+03  0.79161E-04
 0.14993001E+03  0.67453E-04
 0.14998001E+03  0.56990E-04
