-0.19996643E-01  0.22048E-05
 0.30003358E-01  0.46304E-06
 0.80003358E-01 -0.41534E-06
 0.13000336E+00 -0.40150E-06
 0.18000336E+00 -0.64903E-06
 0.23000336E+00 -0.71338E-06
 0.28000337E+00 -0.64192E-06
 0.33000335E+00 -0.97432E-06
 0.38000336E+00 -0.12675E-05
 0.43000337E+00 -0.12943E-05
 0.48000336E+00 -0.86227E-06
 0.53000337E+00 -0.49318E-06
 0.58000338E+00 -0.70485E-06
 0.63000339E+00 -0.82903E-06
 0.68000335E+00 -0.41228E-06
 0.73000336E+00  0.41998E-06
 0.78000337E+00  0.11744E-05
 0.83000338E+00  0.15001E-05
 0.88000339E+00  0.13803E-05
 0.93000335E+00  0.99691E-06
 0.98000336E+00  0.10983E-05
 0.10300034E+01  0.14120E-05
 0.10800034E+01  0.12275E-05
 0.11300033E+01  0.86735E-06
 0.11800034E+01  0.77684E-06
 0.12300034E+01  0.52242E-06
 0.12800034E+01  0.31050E-06
 0.13300034E+01  0.31710E-06
 0.13800033E+01 -0.30100E-06
 0.14300034E+01 -0.62658E-06
 0.14800034E+01 -0.49162E-06
 0.15300034E+01 -0.27866E-06
 0.15800034E+01  0.82454E-07
 0.16300033E+01  0.88944E-07
 0.16800034E+01 -0.68733E-07
 0.17300034E+01 -0.38202E-06
 0.17800034E+01 -0.36169E-06
 0.18300034E+01 -0.40850E-06
 0.18800033E+01 -0.53329E-06
 0.19300034E+01 -0.94041E-07
 0.19800034E+01  0.63657E-07
 0.20300033E+01  0.28911E-07
 0.20800035E+01 -0.17870E-06
 0.21300035E+01 -0.32819E-06
 0.21800034E+01 -0.17523E-06
 0.22300034E+01 -0.76795E-06
 0.22800033E+01 -0.12435E-05
 0.23300035E+01 -0.55470E-06
 0.23800035E+01 -0.31797E-06
 0.24300034E+01 -0.43714E-07
 0.24800034E+01  0.90717E-06
 0.25300033E+01  0.82457E-06
 0.25800035E+01  0.68063E-06
 0.26300035E+01  0.70269E-06
 0.26800034E+01  0.60576E-06
 0.27300034E+01  0.50530E-06
 0.27800033E+01 -0.79838E-08
 0.28300035E+01 -0.10008E-07
 0.28800035E+01 -0.57625E-06
 0.29300034E+01 -0.10618E-05
 0.29800034E+01 -0.56582E-06
 0.30300033E+01 -0.41081E-06
 0.30800035E+01 -0.54631E-06
 0.31300035E+01 -0.72449E-06
 0.31800034E+01 -0.59955E-06
 0.32300034E+01 -0.66503E-06
 0.32800033E+01 -0.48535E-06
 0.33300035E+01  0.59572E-09
 0.33800035E+01 -0.62964E-07
 0.34300034E+01 -0.38294E-06
 0.34800034E+01 -0.69773E-06
 0.35300033E+01 -0.58522E-06
 0.35800035E+01 -0.64068E-06
 0.36300035E+01 -0.70930E-06
 0.36800034E+01 -0.32873E-06
 0.37300034E+01 -0.40307E-07
 0.37800033E+01  0.48361E-06
 0.38300035E+01  0.88644E-06
 0.38800035E+01  0.54331E-06
 0.39300034E+01  0.46779E-06
 0.39800034E+01  0.10476E-05
 0.40300035E+01  0.15227E-05
 0.40800033E+01  0.17023E-05
 0.41300035E+01  0.17911E-05
 0.41800036E+01  0.13873E-05
 0.42300034E+01  0.58503E-06
 0.42800035E+01  0.50713E-06
 0.43300033E+01  0.51012E-06
 0.43800035E+01  0.32115E-06
 0.44300036E+01  0.44567E-06
 0.44800034E+01  0.39045E-06
 0.45300035E+01  0.33722E-06
 0.45800033E+01 -0.11154E-06
 0.46300035E+01 -0.73964E-06
 0.46800036E+01 -0.46509E-06
 0.47300034E+01 -0.12605E-06
 0.47800035E+01 -0.43604E-07
 0.48300033E+01  0.96102E-07
 0.48800035E+01 -0.12993E-07
 0.49300036E+01 -0.15408E-06
 0.49800034E+01 -0.69228E-06
 0.50300035E+01 -0.98464E-06
 0.50800033E+01 -0.10930E-05
 0.51300035E+01 -0.13678E-05
 0.51800036E+01 -0.11546E-05
 0.52300034E+01 -0.13087E-05
 0.52800035E+01 -0.78053E-06
 0.53300033E+01 -0.47745E-07
 0.53800035E+01 -0.31870E-06
 0.54300036E+01 -0.91737E-08
 0.54800034E+01  0.64698E-06
 0.55300035E+01  0.90101E-06
 0.55800033E+01  0.73041E-06
 0.56300035E+01  0.47101E-06
 0.56800036E+01  0.35771E-06
 0.57300034E+01  0.16023E-06
 0.57800035E+01  0.21494E-07
 0.58300033E+01  0.50001E-07
 0.58800035E+01  0.11251E-06
 0.59300036E+01  0.36005E-06
 0.59800034E+01  0.36510E-06
 0.60300035E+01 -0.10817E-08
 0.60800033E+01 -0.64251E-06
 0.61300035E+01 -0.93291E-06
 0.61800036E+01 -0.44298E-06
 0.62300034E+01 -0.64497E-06
 0.62800035E+01 -0.43325E-06
 0.63300033E+01 -0.89227E-07
 0.63800035E+01 -0.44072E-06
 0.64300036E+01 -0.60803E-06
 0.64800034E+01 -0.63458E-06
 0.65300035E+01 -0.18321E-06
 0.65800033E+01  0.50036E-07
 0.66300035E+01  0.28810E-06
 0.66800036E+01  0.28607E-06
 0.67300034E+01  0.37383E-06
 0.67800035E+01  0.74176E-06
 0.68300033E+01  0.52343E-06
 0.68800035E+01  0.46496E-06
 0.69300036E+01  0.84182E-06
 0.69800034E+01  0.65388E-06
 0.70300035E+01 -0.17065E-06
 0.70800033E+01 -0.32055E-06
 0.71300035E+01  0.56401E-07
 0.71800036E+01  0.49297E-06
 0.72300034E+01  0.44710E-06
 0.72800035E+01  0.59946E-06
 0.73300033E+01  0.81806E-06
 0.73800035E+01  0.37304E-06
 0.74300036E+01  0.27360E-07
 0.74800034E+01 -0.43655E-06
 0.75300035E+01 -0.33142E-06
 0.75800033E+01 -0.18913E-06
 0.76300035E+01 -0.27126E-06
 0.76800036E+01 -0.23835E-06
 0.77300034E+01 -0.31491E-06
 0.77800035E+01 -0.37703E-07
 0.78300033E+01 -0.12601E-06
 0.78800035E+01 -0.16654E-06
 0.79300036E+01  0.10113E-06
 0.79800034E+01  0.19171E-06
 0.80300035E+01  0.25195E-06
 0.80800037E+01 -0.14390E-06
 0.81300039E+01 -0.33000E-06
 0.81800032E+01  0.12125E-07
 0.82300034E+01  0.11814E-06
 0.82800035E+01  0.14077E-06
 0.83300037E+01  0.25520E-06
 0.83800039E+01  0.27015E-07
 0.84300032E+01 -0.19566E-06
 0.84800034E+01 -0.93822E-08
 0.85300035E+01 -0.16107E-06
 0.85800037E+01 -0.21711E-06
 0.86300039E+01  0.23605E-06
 0.86800032E+01  0.28206E-06
 0.87300034E+01 -0.25661E-07
 0.87800035E+01  0.11482E-07
 0.88300037E+01  0.68716E-08
 0.88800039E+01 -0.83553E-07
 0.89300032E+01  0.74992E-08
 0.89800034E+01 -0.11093E-06
 0.90300035E+01  0.26956E-07
 0.90800037E+01 -0.25921E-07
 0.91300039E+01 -0.47758E-06
 0.91800032E+01 -0.97448E-06
 0.92300034E+01 -0.12480E-05
 0.92800035E+01 -0.38659E-06
 0.93300037E+01  0.13551E-06
 0.93800039E+01  0.16006E-06
 0.94300032E+01  0.58436E-06
 0.94800034E+01  0.35982E-06
 0.95300035E+01  0.23395E-06
 0.95800037E+01  0.41312E-06
 0.96300039E+01  0.29669E-06
 0.96800032E+01 -0.24158E-06
 0.97300034E+01 -0.39396E-06
 0.97800035E+01  0.10890E-06
 0.98300037E+01 -0.44131E-06
 0.98800039E+01 -0.96566E-06
 0.99300032E+01 -0.76030E-06
 0.99800034E+01 -0.24018E-06
 0.10030004E+02  0.16173E-06
 0.10080004E+02 -0.34454E-07
 0.10130004E+02  0.39827E-06
 0.10180003E+02  0.84595E-06
 0.10230003E+02  0.63132E-06
 0.10280004E+02  0.51473E-06
 0.10330004E+02  0.31726E-06
 0.10380004E+02  0.32501E-06
 0.10430003E+02  0.75399E-06
 0.10480003E+02  0.73691E-06
 0.10530004E+02  0.59140E-06
 0.10580004E+02  0.45536E-06
 0.10630004E+02  0.63997E-07
 0.10680003E+02 -0.25793E-06
 0.10730003E+02  0.82205E-07
 0.10780004E+02  0.52898E-06
 0.10830004E+02  0.11511E-07
 0.10880004E+02 -0.43532E-06
 0.10930003E+02 -0.57050E-06
 0.10980003E+02 -0.43993E-06
 0.11030004E+02  0.28804E-07
 0.11080004E+02  0.42878E-06
 0.11130004E+02  0.25576E-06
 0.11180003E+02 -0.75488E-06
 0.11230003E+02 -0.11024E-05
 0.11280004E+02 -0.73237E-06
 0.11330004E+02 -0.53270E-06
 0.11380004E+02 -0.38059E-06
 0.11430003E+02 -0.30509E-06
 0.11480003E+02 -0.21541E-06
 0.11530004E+02 -0.20119E-06
 0.11580004E+02 -0.17990E-06
 0.11630004E+02  0.11972E-06
 0.11680003E+02  0.73246E-06
 0.11730003E+02  0.99563E-06
 0.11780004E+02  0.38153E-06
 0.11830004E+02 -0.43090E-06
 0.11880004E+02 -0.82245E-06
 0.11930003E+02 -0.36281E-06
 0.11980003E+02  0.23662E-06
 0.12030004E+02  0.20138E-06
 0.12080004E+02  0.10797E-06
 0.12130004E+02  0.13029E-06
 0.12180003E+02  0.24020E-06
 0.12230003E+02  0.51147E-06
 0.12280004E+02  0.99003E-06
 0.12330004E+02  0.81553E-06
 0.12380004E+02  0.29164E-06
 0.12430003E+02  0.30938E-06
 0.12480003E+02 -0.27582E-06
 0.12530004E+02 -0.64454E-06
 0.12580004E+02 -0.53181E-06
 0.12630004E+02 -0.73335E-06
 0.12680003E+02 -0.66734E-06
 0.12730003E+02 -0.70895E-06
 0.12780004E+02 -0.63084E-06
 0.12830004E+02 -0.77207E-06
 0.12880004E+02 -0.99878E-06
 0.12930003E+02 -0.28290E-06
 0.12980003E+02  0.25118E-06
 0.13030004E+02  0.34507E-07
 0.13080004E+02 -0.11082E-06
 0.13130004E+02 -0.13317E-07
 0.13180003E+02  0.28392E-06
 0.13230003E+02  0.30184E-06
 0.13280004E+02  0.56737E-06
 0.13330004E+02  0.12152E-05
 0.13380004E+02  0.11806E-05
 0.13430003E+02  0.14810E-05
 0.13480003E+02  0.11532E-05
 0.13530004E+02  0.62706E-06
 0.13580004E+02  0.94852E-06
 0.13630004E+02  0.44736E-06
 0.13680003E+02  0.24111E-06
 0.13730003E+02  0.32445E-07
 0.13780004E+02 -0.48514E-06
 0.13830004E+02 -0.72669E-06
 0.13880004E+02 -0.68129E-06
 0.13930003E+02  0.95083E-07
 0.13980003E+02  0.27639E-06
 0.14030004E+02  0.61475E-07
 0.14080004E+02 -0.12475E-06
 0.14130004E+02 -0.51804E-06
 0.14180003E+02 -0.60786E-06
 0.14230003E+02 -0.52054E-06
 0.14280004E+02 -0.42472E-06
 0.14330004E+02 -0.46391E-06
 0.14380004E+02 -0.65032E-06
 0.14430003E+02 -0.79657E-06
 0.14480003E+02 -0.62983E-06
 0.14530004E+02 -0.13699E-06
 0.14580004E+02  0.49391E-06
 0.14630004E+02  0.68782E-06
 0.14680003E+02  0.38215E-06
 0.14730003E+02 -0.11530E-06
 0.14780004E+02 -0.54309E-06
 0.14830004E+02 -0.10023E-05
 0.14880004E+02 -0.14463E-05
 0.14930003E+02 -0.70429E-06
 0.14980003E+02  0.23949E-07
 0.15030004E+02  0.11072E-06
 0.15080004E+02 -0.76160E-07
 0.15130004E+02 -0.58580E-06
 0.15180003E+02 -0.26238E-06
 0.15230003E+02  0.20017E-06
 0.15280004E+02  0.76939E-06
 0.15330004E+02  0.11392E-05
 0.15380004E+02  0.60316E-06
 0.15430003E+02  0.33089E-06
 0.15480003E+02  0.21421E-06
 0.15530004E+02  0.18198E-06
 0.15580004E+02  0.40185E-06
 0.15630004E+02  0.67684E-06
 0.15680003E+02  0.84309E-06
 0.15730003E+02  0.45657E-06
 0.15780004E+02  0.21825E-06
 0.15830004E+02  0.48883E-06
 0.15880004E+02  0.33524E-06
 0.15930003E+02  0.58694E-07
 0.15980003E+02  0.11663E-06
 0.16030005E+02  0.31192E-07
 0.16080004E+02 -0.13854E-06
 0.16130003E+02 -0.37422E-06
 0.16180004E+02 -0.35497E-06
 0.16230003E+02 -0.24394E-06
 0.16280005E+02 -0.20536E-06
 0.16330004E+02  0.22221E-06
 0.16380003E+02  0.27007E-06
 0.16430004E+02  0.32676E-07
 0.16480003E+02  0.10163E-07
 0.16530005E+02  0.20821E-06
 0.16580004E+02  0.55692E-06
 0.16630003E+02  0.41328E-06
 0.16680004E+02 -0.35673E-06
 0.16730003E+02 -0.86777E-06
 0.16780005E+02 -0.56764E-06
 0.16830004E+02 -0.67841E-06
 0.16880003E+02 -0.10219E-05
 0.16930004E+02 -0.67965E-06
 0.16980003E+02 -0.29194E-06
 0.17030005E+02 -0.23010E-07
 0.17080004E+02  0.16646E-06
 0.17130003E+02  0.15461E-06
 0.17180004E+02  0.48461E-07
 0.17230003E+02  0.82545E-07
 0.17280005E+02  0.42829E-06
 0.17330004E+02  0.82973E-06
 0.17380003E+02  0.50303E-06
 0.17430004E+02 -0.45339E-06
 0.17480003E+02 -0.10228E-05
 0.17530005E+02 -0.68307E-06
 0.17580004E+02 -0.15992E-07
 0.17630003E+02  0.19942E-06
 0.17680004E+02  0.47107E-06
 0.17730003E+02  0.52013E-06
 0.17780005E+02  0.10314E-06
 0.17830004E+02 -0.30096E-06
 0.17880003E+02 -0.56107E-06
 0.17930004E+02 -0.18206E-06
 0.17980003E+02  0.42490E-06
 0.18030005E+02  0.35424E-06
 0.18080004E+02 -0.12780E-06
 0.18130003E+02 -0.73849E-07
 0.18180004E+02  0.17560E-06
 0.18230003E+02  0.61891E-06
 0.18280005E+02  0.11266E-05
 0.18330004E+02  0.91160E-06
 0.18380003E+02  0.54258E-06
 0.18430004E+02  0.34669E-07
 0.18480003E+02 -0.58013E-06
 0.18530005E+02 -0.56222E-06
 0.18580004E+02 -0.23446E-06
 0.18630003E+02 -0.66167E-06
 0.18680004E+02 -0.11787E-05
 0.18730003E+02 -0.83436E-06
 0.18780005E+02 -0.57199E-06
 0.18830004E+02 -0.78318E-06
 0.18880003E+02 -0.62566E-06
 0.18930004E+02 -0.24791E-06
 0.18980003E+02 -0.10295E-06
 0.19030005E+02 -0.62703E-07
 0.19080004E+02 -0.55407E-08
 0.19130003E+02  0.26382E-07
 0.19180004E+02 -0.16498E-06
 0.19230003E+02  0.42287E-06
 0.19280005E+02  0.96286E-06
 0.19330004E+02  0.88059E-06
 0.19380003E+02  0.14648E-05
 0.19430004E+02  0.14718E-05
 0.19480003E+02  0.10734E-05
 0.19530005E+02  0.12045E-05
 0.19580004E+02  0.12668E-05
 0.19630003E+02  0.13146E-05
 0.19680004E+02  0.98488E-06
 0.19730003E+02  0.50453E-06
 0.19780005E+02  0.35647E-06
 0.19830004E+02 -0.41031E-07
 0.19880003E+02 -0.55461E-06
 0.19930004E+02 -0.97221E-06
 0.19980003E+02 -0.16926E-05
 0.20030005E+02 -0.18986E-05
 0.20080004E+02 -0.12990E-05
 0.20130003E+02 -0.70555E-06
 0.20180004E+02 -0.58125E-06
 0.20230003E+02 -0.95002E-06
 0.20280005E+02 -0.10855E-05
 0.20330004E+02 -0.13519E-05
 0.20380003E+02 -0.10147E-05
 0.20430004E+02  0.34661E-07
 0.20480003E+02  0.21408E-06
 0.20530005E+02  0.50404E-07
 0.20580004E+02 -0.28268E-06
 0.20630003E+02 -0.64938E-07
 0.20680004E+02  0.18678E-06
 0.20730003E+02  0.16297E-06
 0.20780005E+02 -0.30721E-05
 0.20830004E+02 -0.10730E-04
 0.20880003E+02 -0.28814E-04
 0.20930004E+02 -0.62704E-04
 0.20980003E+02 -0.93058E-04
 0.21030005E+02 -0.10246E-03
 0.21080004E+02 -0.95830E-04
 0.21130003E+02 -0.81202E-04
 0.21180004E+02  0.20762E-04
 0.21230003E+02  0.20106E-03
 0.21280005E+02  0.24298E-03
 0.21330004E+02  0.70814E-04
 0.21380003E+02 -0.67972E-04
 0.21430004E+02  0.69581E-04
 0.21480003E+02  0.23023E-03
 0.21530005E+02  0.10330E-03
 0.21580004E+02 -0.18182E-03
 0.21630003E+02 -0.25293E-03
 0.21680004E+02  0.72877E-04
 0.21730003E+02  0.27866E-03
 0.21780005E+02  0.83007E-05
 0.21830004E+02 -0.18720E-03
 0.21880003E+02  0.53010E-04
 0.21930004E+02  0.28962E-03
 0.21980003E+02  0.16383E-03
 0.22030005E+02 -0.21931E-03
 0.22080004E+02 -0.39951E-03
 0.22130003E+02 -0.15172E-03
 0.22180004E+02  0.44273E-04
 0.22230003E+02 -0.31924E-04
 0.22280005E+02 -0.12764E-03
 0.22330004E+02  0.29693E-04
 0.22380003E+02  0.21506E-03
 0.22430004E+02  0.12978E-03
 0.22480003E+02 -0.14756E-04
 0.22530005E+02 -0.12627E-03
 0.22580004E+02 -0.13550E-03
 0.22630003E+02  0.49740E-05
 0.22680004E+02  0.18320E-03
 0.22730003E+02  0.26777E-03
 0.22780005E+02  0.19666E-03
 0.22830004E+02  0.42902E-04
 0.22880003E+02 -0.75648E-05
 0.22930004E+02  0.93249E-04
 0.22980003E+02  0.81102E-04
 0.23030005E+02 -0.24673E-03
 0.23080004E+02 -0.40636E-03
 0.23130003E+02 -0.13373E-03
 0.23180004E+02  0.11447E-03
 0.23230003E+02  0.30148E-03
 0.23280005E+02  0.49996E-04
 0.23330004E+02 -0.39997E-03
 0.23380003E+02 -0.19072E-03
 0.23430004E+02  0.15595E-04
 0.23480003E+02 -0.19573E-03
 0.23530005E+02 -0.31597E-03
 0.23580004E+02 -0.27969E-03
 0.23630003E+02 -0.97131E-04
 0.23680004E+02  0.29254E-03
 0.23730003E+02  0.38439E-03
 0.23780005E+02  0.11731E-03
 0.23830004E+02  0.72701E-04
 0.23880003E+02 -0.31515E-04
 0.23930004E+02 -0.35295E-03
 0.23980003E+02 -0.32214E-03
 0.24030005E+02 -0.93454E-04
 0.24080004E+02  0.17195E-04
 0.24130003E+02  0.98047E-04
 0.24180004E+02  0.17364E-03
 0.24230003E+02  0.38528E-03
 0.24280005E+02  0.46438E-03
 0.24330004E+02  0.16936E-03
 0.24380003E+02 -0.13210E-03
 0.24430004E+02 -0.11205E-03
 0.24480003E+02  0.87269E-04
 0.24530005E+02  0.11472E-03
 0.24580004E+02  0.61886E-04
 0.24630003E+02  0.10884E-03
 0.24680004E+02  0.33838E-03
 0.24730003E+02  0.42566E-03
 0.24780005E+02  0.17838E-03
 0.24830004E+02 -0.10981E-03
 0.24880003E+02 -0.29567E-03
 0.24930004E+02 -0.15799E-03
 0.24980003E+02 -0.13621E-03
 0.25030005E+02 -0.34008E-03
 0.25080004E+02 -0.16514E-03
 0.25130003E+02  0.17832E-03
 0.25180004E+02  0.22859E-03
 0.25230003E+02  0.16534E-04
 0.25280005E+02 -0.21141E-03
 0.25330004E+02 -0.28679E-03
 0.25380003E+02 -0.23669E-03
 0.25430004E+02 -0.25240E-03
 0.25480003E+02 -0.17959E-03
 0.25530005E+02  0.30088E-04
 0.25580004E+02  0.19806E-03
 0.25630003E+02  0.23630E-03
 0.25680004E+02 -0.23071E-04
 0.25730003E+02 -0.16992E-03
 0.25780005E+02  0.88587E-04
 0.25830004E+02  0.18177E-03
 0.25880003E+02 -0.54681E-04
 0.25930004E+02 -0.26780E-03
 0.25980003E+02 -0.16234E-03
 0.26030005E+02  0.18137E-03
 0.26080004E+02  0.11798E-03
 0.26130003E+02 -0.19826E-03
 0.26180004E+02 -0.46094E-04
 0.26230003E+02  0.23549E-03
 0.26280005E+02  0.40233E-04
 0.26330004E+02 -0.23762E-03
 0.26380003E+02 -0.87037E-04
 0.26430004E+02  0.21367E-03
 0.26480003E+02  0.15158E-03
 0.26530005E+02 -0.92521E-04
 0.26580004E+02  0.42304E-04
 0.26630003E+02  0.34168E-03
 0.26680004E+02  0.27596E-03
 0.26730003E+02 -0.12814E-03
 0.26780005E+02 -0.25468E-03
 0.26830004E+02  0.96529E-04
 0.26880003E+02  0.19858E-03
 0.26930004E+02 -0.13755E-03
 0.26980003E+02 -0.21165E-03
 0.27030005E+02  0.72226E-04
 0.27080004E+02  0.20040E-03
 0.27130003E+02  0.10924E-03
 0.27180004E+02  0.15118E-04
 0.27230003E+02 -0.73543E-04
 0.27280005E+02 -0.82516E-04
 0.27330004E+02 -0.68128E-05
 0.27380003E+02 -0.15258E-03
 0.27430004E+02 -0.22016E-03
 0.27480003E+02 -0.28654E-05
 0.27530005E+02  0.13373E-03
 0.27580004E+02  0.48948E-04
 0.27630003E+02 -0.19687E-03
 0.27680004E+02 -0.28267E-03
 0.27730003E+02 -0.14222E-03
 0.27780005E+02  0.56379E-04
 0.27830004E+02  0.12353E-03
 0.27880003E+02  0.62307E-04
 0.27930004E+02  0.72175E-04
 0.27980003E+02  0.12148E-03
 0.28030005E+02  0.18197E-03
 0.28080004E+02  0.14694E-03
 0.28130003E+02  0.18576E-04
 0.28180004E+02  0.48466E-04
 0.28230003E+02  0.21231E-03
 0.28280005E+02  0.23207E-03
 0.28330004E+02  0.10996E-03
 0.28380003E+02  0.11456E-04
 0.28430004E+02 -0.16175E-03
 0.28480003E+02 -0.30345E-03
 0.28530005E+02 -0.19627E-03
 0.28580004E+02 -0.13732E-03
 0.28630003E+02 -0.77704E-04
 0.28680004E+02  0.19037E-03
 0.28730003E+02  0.32489E-03
 0.28780005E+02  0.10544E-03
 0.28830004E+02 -0.14415E-03
 0.28880003E+02 -0.13340E-03
 0.28930004E+02 -0.14092E-03
 0.28980003E+02 -0.27678E-03
 0.29030005E+02 -0.29390E-03
 0.29080004E+02  0.51198E-05
 0.29130003E+02  0.29775E-03
 0.29180004E+02  0.18190E-03
 0.29230003E+02 -0.62275E-04
 0.29280005E+02 -0.10736E-03
 0.29330004E+02 -0.12517E-04
 0.29380003E+02  0.17498E-04
 0.29430004E+02 -0.10479E-03
 0.29480003E+02 -0.18232E-03
 0.29530005E+02 -0.47303E-04
 0.29580004E+02  0.11137E-03
 0.29630003E+02  0.14353E-03
 0.29680004E+02 -0.83909E-04
 0.29730003E+02 -0.24022E-03
 0.29780005E+02 -0.45181E-04
 0.29830004E+02  0.14979E-03
 0.29880003E+02  0.16945E-03
 0.29930004E+02 -0.54814E-04
 0.29980003E+02 -0.22558E-03
 0.30030005E+02 -0.58238E-04
 0.30080004E+02  0.20410E-03
 0.30130003E+02  0.22147E-03
 0.30180004E+02  0.14650E-03
 0.30230003E+02  0.13892E-03
 0.30280005E+02  0.41543E-04
 0.30330004E+02 -0.40316E-05
 0.30380003E+02 -0.14070E-04
 0.30430004E+02  0.11534E-04
 0.30480003E+02  0.14826E-03
 0.30530005E+02  0.22978E-03
 0.30580004E+02  0.90591E-04
 0.30630003E+02 -0.85402E-04
 0.30680004E+02 -0.34015E-04
 0.30730003E+02 -0.54933E-04
 0.30780005E+02 -0.23080E-03
 0.30830004E+02 -0.26318E-03
 0.30880003E+02 -0.98114E-04
 0.30930004E+02  0.38284E-04
 0.30980003E+02 -0.35297E-04
 0.31030005E+02 -0.66053E-04
 0.31080004E+02  0.48983E-04
 0.31130003E+02  0.13543E-03
 0.31180004E+02  0.19463E-03
 0.31230003E+02  0.11719E-03
 0.31280005E+02  0.15476E-04
 0.31330004E+02  0.47684E-04
 0.31380003E+02  0.13690E-04
 0.31430004E+02  0.68473E-04
 0.31480003E+02  0.16436E-03
 0.31530005E+02  0.28761E-04
 0.31580004E+02 -0.18065E-03
 0.31630003E+02 -0.32442E-03
 0.31680004E+02 -0.21902E-03
 0.31730003E+02 -0.15772E-05
 0.31780005E+02 -0.85031E-04
 0.31830004E+02 -0.21848E-03
 0.31880003E+02 -0.16968E-03
 0.31930004E+02 -0.14567E-03
 0.31980003E+02 -0.38886E-04
 0.32030003E+02  0.17742E-03
 0.32080006E+02  0.19817E-03
 0.32130005E+02  0.17375E-03
 0.32180004E+02  0.30336E-03
 0.32230003E+02  0.27468E-03
 0.32280003E+02  0.60197E-04
 0.32330006E+02 -0.72897E-04
 0.32380005E+02 -0.52572E-04
 0.32430004E+02  0.42540E-04
 0.32480003E+02  0.41792E-04
 0.32530003E+02 -0.64086E-04
 0.32580006E+02 -0.48263E-04
 0.32630005E+02 -0.51880E-04
 0.32680004E+02 -0.19917E-03
 0.32730003E+02 -0.12870E-03
 0.32780003E+02 -0.11206E-03
 0.32830006E+02 -0.18689E-03
 0.32880005E+02 -0.15900E-04
 0.32930004E+02  0.85180E-04
 0.32980003E+02  0.97159E-04
 0.33030003E+02  0.91401E-04
 0.33080006E+02  0.56203E-04
 0.33130005E+02 -0.22430E-04
 0.33180004E+02 -0.96884E-04
 0.33230003E+02 -0.77148E-04
 0.33280003E+02 -0.62086E-04
 0.33330006E+02 -0.26480E-05
 0.33380005E+02 -0.18092E-05
 0.33430004E+02 -0.45769E-04
 0.33480003E+02  0.14641E-04
 0.33530003E+02  0.13570E-03
 0.33580006E+02  0.25636E-03
 0.33630005E+02  0.23915E-03
 0.33680004E+02  0.53949E-04
 0.33730003E+02 -0.57276E-04
 0.33780003E+02  0.75636E-04
 0.33830006E+02  0.13429E-03
 0.33880005E+02 -0.13178E-03
 0.33930004E+02 -0.28392E-03
 0.33980003E+02 -0.95954E-04
 0.34030003E+02  0.46502E-05
 0.34080006E+02 -0.11985E-03
 0.34130005E+02 -0.16205E-03
 0.34180004E+02 -0.60462E-04
 0.34230003E+02  0.13856E-03
 0.34280003E+02  0.30690E-03
 0.34330006E+02  0.18204E-03
 0.34380005E+02 -0.66733E-04
 0.34430004E+02 -0.12429E-03
 0.34480003E+02  0.48318E-04
 0.34530003E+02  0.15302E-03
 0.34580006E+02  0.10944E-03
 0.34630005E+02  0.10902E-03
 0.34680004E+02  0.63972E-04
 0.34730003E+02  0.32998E-04
 0.34780003E+02  0.10837E-03
 0.34830006E+02  0.51046E-04
 0.34880005E+02 -0.13400E-03
 0.34930004E+02 -0.22251E-03
 0.34980003E+02 -0.20560E-03
 0.35030003E+02 -0.13173E-03
 0.35080006E+02 -0.74809E-04
 0.35130005E+02 -0.27501E-04
 0.35180004E+02  0.32355E-06
 0.35230003E+02  0.17126E-04
 0.35280003E+02 -0.40174E-04
 0.35330006E+02 -0.16328E-03
 0.35380005E+02 -0.11601E-03
 0.35430004E+02 -0.16435E-03
 0.35480003E+02 -0.27719E-03
 0.35530003E+02 -0.40246E-04
 0.35580006E+02  0.21661E-03
 0.35630005E+02  0.13603E-03
 0.35680004E+02 -0.27768E-04
 0.35730003E+02  0.39918E-04
 0.35780003E+02  0.13371E-03
 0.35830006E+02  0.16021E-04
 0.35880005E+02 -0.11159E-03
 0.35930004E+02 -0.62912E-04
 0.35980003E+02  0.81529E-04
 0.36030003E+02  0.29823E-03
 0.36080006E+02  0.42035E-03
 0.36130005E+02  0.18185E-03
 0.36180004E+02 -0.58421E-04
 0.36230003E+02  0.44112E-04
 0.36280003E+02  0.34210E-03
 0.36330006E+02  0.40315E-03
 0.36380005E+02  0.10738E-03
 0.36430004E+02 -0.25276E-03
 0.36480003E+02 -0.45956E-03
 0.36530003E+02 -0.38829E-03
 0.36580006E+02 -0.37639E-03
 0.36630005E+02 -0.48287E-03
 0.36680004E+02 -0.37512E-03
 0.36730003E+02 -0.14032E-03
 0.36780003E+02  0.46686E-04
 0.36830006E+02  0.86025E-04
 0.36880005E+02  0.91590E-05
 0.36930004E+02 -0.13503E-04
 0.36980003E+02  0.13108E-03
 0.37030003E+02  0.32081E-03
 0.37080006E+02  0.32164E-03
 0.37130005E+02  0.22961E-03
 0.37180004E+02  0.60505E-04
 0.37230003E+02 -0.11080E-03
 0.37280003E+02  0.69092E-04
 0.37330006E+02  0.51818E-03
 0.37380005E+02  0.78848E-03
 0.37430004E+02  0.58223E-03
 0.37480003E+02  0.23380E-03
 0.37530003E+02  0.88152E-04
 0.37580006E+02  0.18129E-03
 0.37630005E+02  0.88270E-04
 0.37680004E+02 -0.50843E-03
 0.37730003E+02 -0.74191E-03
 0.37780003E+02 -0.60427E-03
 0.37830006E+02 -0.73261E-03
 0.37880005E+02 -0.80519E-03
 0.37930004E+02 -0.40661E-03
 0.37980003E+02  0.25756E-03
 0.38030003E+02  0.62844E-03
 0.38080006E+02  0.72283E-03
 0.38130005E+02  0.42306E-03
 0.38180004E+02 -0.13164E-03
 0.38230003E+02 -0.34574E-03
 0.38280003E+02 -0.48788E-03
 0.38330006E+02 -0.55454E-03
 0.38380005E+02 -0.49669E-03
 0.38430004E+02 -0.51026E-03
 0.38480003E+02 -0.41786E-03
 0.38530003E+02 -0.36211E-03
 0.38580006E+02 -0.20180E-03
 0.38630005E+02  0.36326E-03
 0.38680004E+02  0.11201E-02
 0.38730003E+02  0.15421E-02
 0.38780003E+02  0.12897E-02
 0.38830006E+02  0.68277E-03
 0.38880005E+02 -0.82253E-04
 0.38930004E+02 -0.76443E-03
 0.38980003E+02 -0.68344E-03
 0.39030003E+02 -0.28684E-03
 0.39080006E+02 -0.12297E-03
 0.39130005E+02  0.16551E-03
 0.39180004E+02  0.71576E-04
 0.39230003E+02 -0.27563E-03
 0.39280003E+02 -0.14122E-03
 0.39330006E+02  0.18206E-03
 0.39380005E+02  0.42682E-03
 0.39430004E+02  0.29578E-03
 0.39480003E+02 -0.13046E-03
 0.39530003E+02 -0.38260E-03
 0.39580006E+02 -0.47789E-03
 0.39630005E+02 -0.57699E-03
 0.39680004E+02 -0.41672E-03
 0.39730003E+02 -0.93566E-05
 0.39780003E+02  0.19224E-03
 0.39830006E+02  0.19534E-03
 0.39880005E+02  0.59647E-04
 0.39930004E+02  0.54699E-04
 0.39980003E+02  0.69638E-04
 0.40030003E+02  0.12187E-04
 0.40080006E+02  0.85335E-04
 0.40130005E+02  0.32483E-04
 0.40180004E+02  0.25094E-03
 0.40230003E+02  0.60982E-03
 0.40280003E+02  0.73849E-03
 0.40330006E+02  0.88384E-03
 0.40380005E+02  0.80465E-03
 0.40430004E+02  0.45626E-03
 0.40480003E+02 -0.14354E-03
 0.40530003E+02 -0.96390E-03
 0.40580006E+02 -0.15018E-02
 0.40630005E+02 -0.15856E-02
 0.40680004E+02 -0.12640E-02
 0.40730003E+02 -0.66812E-03
 0.40780003E+02 -0.15928E-03
 0.40830006E+02  0.30643E-03
 0.40880005E+02  0.72296E-03
 0.40930004E+02  0.82374E-03
 0.40980003E+02  0.70438E-03
 0.41030003E+02  0.28756E-03
 0.41080006E+02 -0.28599E-03
 0.41130005E+02 -0.32469E-03
 0.41180004E+02 -0.17730E-03
 0.41230003E+02 -0.21051E-03
 0.41280003E+02 -0.96000E-04
 0.41330006E+02 -0.68537E-07
 0.41380005E+02  0.12658E-03
 0.41430004E+02  0.36521E-03
 0.41480003E+02  0.46640E-03
 0.41530003E+02  0.32751E-03
 0.41580006E+02  0.69696E-04
 0.41630005E+02 -0.12383E-03
 0.41680004E+02 -0.13698E-03
 0.41730003E+02  0.38886E-05
 0.41780003E+02  0.21997E-03
 0.41830006E+02  0.35861E-03
 0.41880005E+02  0.12304E-03
 0.41930004E+02 -0.27184E-03
 0.41980003E+02 -0.36773E-03
 0.42030003E+02 -0.15864E-04
 0.42080006E+02  0.28688E-03
 0.42130005E+02  0.17292E-03
 0.42180004E+02  0.84204E-04
 0.42230003E+02  0.88790E-04
 0.42280003E+02  0.11399E-03
 0.42330006E+02  0.16931E-03
 0.42380005E+02  0.86181E-04
 0.42430004E+02 -0.81000E-04
 0.42480003E+02 -0.19305E-03
 0.42530003E+02 -0.14322E-03
 0.42580006E+02  0.84401E-04
 0.42630005E+02  0.14910E-03
 0.42680004E+02 -0.23484E-03
 0.42730003E+02 -0.38625E-03
 0.42780003E+02  0.89682E-05
 0.42830006E+02  0.15986E-03
 0.42880005E+02  0.12369E-03
 0.42930004E+02  0.57561E-04
 0.42980003E+02 -0.39560E-03
 0.43030003E+02 -0.81305E-03
 0.43080006E+02 -0.80145E-03
 0.43130005E+02 -0.34576E-03
 0.43180004E+02  0.27728E-03
 0.43230003E+02  0.61024E-03
 0.43280003E+02  0.73349E-03
 0.43330006E+02  0.79160E-03
 0.43380005E+02  0.60025E-03
 0.43430004E+02  0.91484E-04
 0.43480003E+02 -0.33483E-03
 0.43530003E+02 -0.44173E-03
 0.43580006E+02 -0.39471E-03
 0.43630005E+02 -0.38631E-03
 0.43680004E+02 -0.58483E-03
 0.43730003E+02 -0.37201E-03
 0.43780003E+02  0.39151E-03
 0.43830006E+02  0.61390E-03
 0.43880005E+02  0.36746E-03
 0.43930004E+02  0.15023E-03
 0.43980003E+02 -0.13534E-03
 0.44030003E+02 -0.84288E-04
 0.44080006E+02  0.18540E-03
 0.44130005E+02  0.15347E-03
 0.44180004E+02 -0.18017E-03
 0.44230003E+02 -0.61122E-03
 0.44280003E+02 -0.61022E-03
 0.44330006E+02 -0.15175E-03
 0.44380005E+02  0.14297E-03
 0.44430004E+02  0.82515E-04
 0.44480003E+02 -0.10990E-03
 0.44530003E+02 -0.31635E-03
 0.44580006E+02 -0.43781E-03
 0.44630005E+02 -0.19323E-03
 0.44680004E+02  0.21551E-03
 0.44730003E+02  0.43710E-03
 0.44780003E+02  0.54347E-03
 0.44830006E+02  0.66289E-03
 0.44880005E+02  0.90311E-03
 0.44930004E+02  0.89102E-03
 0.44980003E+02  0.50779E-03
 0.45030003E+02  0.22011E-03
 0.45080006E+02  0.68849E-04
 0.45130005E+02 -0.17848E-03
 0.45180004E+02 -0.57932E-03
 0.45230003E+02 -0.81238E-03
 0.45280003E+02 -0.74374E-03
 0.45330006E+02 -0.44850E-03
 0.45380005E+02 -0.36551E-05
 0.45430004E+02  0.26619E-03
 0.45480003E+02  0.32455E-03
 0.45530003E+02  0.21046E-03
 0.45580006E+02 -0.15629E-03
 0.45630005E+02 -0.46442E-03
 0.45680004E+02 -0.50221E-03
 0.45730003E+02 -0.46097E-03
 0.45780003E+02 -0.38445E-03
 0.45830006E+02 -0.36950E-03
 0.45880005E+02 -0.18648E-03
 0.45930004E+02  0.32263E-03
 0.45980003E+02  0.61070E-03
 0.46030003E+02  0.76620E-03
 0.46080006E+02  0.87896E-03
 0.46130005E+02  0.58702E-03
 0.46180004E+02  0.56463E-04
 0.46230003E+02 -0.31692E-03
 0.46280003E+02 -0.43673E-03
 0.46330006E+02 -0.46949E-03
 0.46380005E+02 -0.26315E-03
 0.46430004E+02  0.19074E-03
 0.46480003E+02  0.62248E-03
 0.46530003E+02  0.80336E-03
 0.46580006E+02  0.45141E-03
 0.46630005E+02  0.10688E-04
 0.46680004E+02 -0.20733E-03
 0.46730003E+02 -0.40237E-03
 0.46780003E+02 -0.46086E-03
 0.46830006E+02 -0.55769E-03
 0.46880005E+02 -0.68497E-03
 0.46930004E+02 -0.53672E-03
 0.46980003E+02 -0.27816E-03
 0.47030003E+02 -0.41864E-04
 0.47080006E+02  0.30618E-03
 0.47130005E+02  0.54278E-03
 0.47180004E+02  0.30720E-03
 0.47230003E+02 -0.19357E-03
 0.47280003E+02 -0.48858E-03
 0.47330006E+02 -0.31668E-03
 0.47380005E+02  0.11050E-03
 0.47430004E+02  0.37599E-03
 0.47480003E+02  0.46596E-03
 0.47530003E+02  0.50087E-03
 0.47580006E+02  0.52700E-03
 0.47630005E+02  0.52185E-03
 0.47680004E+02  0.25982E-03
 0.47730003E+02 -0.24922E-03
 0.47780003E+02 -0.70529E-03
 0.47830006E+02 -0.88892E-03
 0.47880005E+02 -0.65767E-03
 0.47930004E+02 -0.34480E-03
 0.47980003E+02 -0.23065E-03
 0.48030003E+02 -0.54444E-04
 0.48080006E+02  0.11086E-03
 0.48130005E+02  0.28437E-03
 0.48180004E+02  0.53515E-03
 0.48230003E+02  0.61797E-03
 0.48280003E+02  0.46245E-03
 0.48330006E+02  0.60465E-04
 0.48380005E+02 -0.37583E-03
 0.48430004E+02 -0.54321E-03
 0.48480003E+02 -0.41443E-03
 0.48530003E+02 -0.19083E-03
 0.48580006E+02  0.40588E-04
 0.48630005E+02  0.38416E-03
 0.48680004E+02  0.75173E-03
 0.48730003E+02  0.88039E-03
 0.48780003E+02  0.71962E-03
 0.48830006E+02  0.30374E-03
 0.48880005E+02 -0.38122E-03
 0.48930004E+02 -0.10091E-02
 0.48980003E+02 -0.10939E-02
 0.49030003E+02 -0.57555E-03
 0.49080006E+02  0.17582E-04
 0.49130005E+02  0.31280E-03
 0.49180004E+02  0.42096E-03
 0.49230003E+02  0.55141E-03
 0.49280003E+02  0.74141E-03
 0.49330006E+02  0.68060E-03
 0.49380005E+02  0.29337E-03
 0.49430004E+02 -0.21523E-03
 0.49480003E+02 -0.61764E-03
 0.49530003E+02 -0.64300E-03
 0.49580006E+02 -0.45403E-03
 0.49630005E+02 -0.35102E-03
 0.49680004E+02 -0.27851E-03
 0.49730003E+02 -0.39553E-04
 0.49780003E+02  0.33743E-03
 0.49830006E+02  0.42930E-03
 0.49880005E+02  0.16221E-03
 0.49930004E+02 -0.74681E-04
 0.49980003E+02 -0.12013E-03
 0.50030003E+02 -0.15965E-03
 0.50080006E+02 -0.46359E-03
 0.50130005E+02 -0.66752E-03
 0.50180004E+02 -0.35361E-03
 0.50230003E+02  0.58270E-04
 0.50280003E+02  0.19041E-04
 0.50330006E+02 -0.30918E-03
 0.50380005E+02 -0.21391E-03
 0.50430004E+02  0.20013E-03
 0.50480003E+02  0.26607E-03
 0.50530003E+02  0.16396E-03
 0.50580006E+02  0.31610E-03
 0.50630005E+02  0.65949E-03
 0.50680004E+02  0.85846E-03
 0.50730003E+02  0.80776E-03
 0.50780003E+02  0.66042E-03
 0.50830006E+02  0.45934E-03
 0.50880005E+02  0.24686E-03
 0.50930004E+02 -0.83256E-06
 0.50980003E+02 -0.28394E-03
 0.51030003E+02 -0.57420E-03
 0.51080006E+02 -0.85847E-03
 0.51130005E+02 -0.10307E-02
 0.51180004E+02 -0.10892E-02
 0.51230003E+02 -0.92878E-03
 0.51280003E+02 -0.37387E-03
 0.51330006E+02  0.32310E-03
 0.51380005E+02  0.76307E-03
 0.51430004E+02  0.88654E-03
 0.51480003E+02  0.70568E-03
 0.51530003E+02  0.27484E-03
 0.51580006E+02 -0.99854E-04
 0.51630005E+02 -0.28424E-03
 0.51680004E+02 -0.36944E-03
 0.51730003E+02 -0.31045E-03
 0.51780003E+02 -0.17433E-03
 0.51830006E+02 -0.14391E-03
 0.51880005E+02 -0.70926E-04
 0.51930004E+02  0.27294E-03
 0.51980003E+02  0.67970E-03
 0.52030003E+02  0.84086E-03
 0.52080006E+02  0.68981E-03
 0.52130005E+02  0.39566E-03
 0.52180004E+02  0.22021E-03
 0.52230003E+02  0.78361E-04
 0.52280003E+02 -0.94708E-04
 0.52330006E+02 -0.26133E-03
 0.52380005E+02 -0.41889E-03
 0.52430004E+02 -0.47266E-03
 0.52480003E+02 -0.46787E-03
 0.52530003E+02 -0.40004E-03
 0.52580006E+02 -0.29691E-03
 0.52630005E+02 -0.32742E-03
 0.52680004E+02 -0.44673E-03
 0.52730003E+02 -0.47547E-03
 0.52780003E+02 -0.54525E-03
 0.52830006E+02 -0.59805E-03
 0.52880005E+02 -0.41998E-03
 0.52930004E+02 -0.14888E-03
 0.52980003E+02  0.16660E-03
 0.53030003E+02  0.47037E-03
 0.53080006E+02  0.66949E-03
 0.53130005E+02  0.72009E-03
 0.53180004E+02  0.62643E-03
 0.53230003E+02  0.36462E-03
 0.53280003E+02 -0.42169E-04
 0.53330006E+02 -0.27385E-03
 0.53380005E+02 -0.17735E-03
 0.53430004E+02  0.67428E-04
 0.53480003E+02  0.21811E-03
 0.53530003E+02  0.28143E-03
 0.53580006E+02  0.46749E-03
 0.53630005E+02  0.70078E-03
 0.53680004E+02  0.84669E-03
 0.53730003E+02  0.87065E-03
 0.53780003E+02  0.60588E-03
 0.53830006E+02  0.12685E-03
 0.53880005E+02 -0.32909E-03
 0.53930004E+02 -0.64423E-03
 0.53980003E+02 -0.80077E-03
 0.54030003E+02 -0.89580E-03
 0.54080006E+02 -0.94650E-03
 0.54130005E+02 -0.80204E-03
 0.54180004E+02 -0.46653E-03
 0.54230003E+02 -0.19240E-03
 0.54280003E+02  0.35904E-04
 0.54330006E+02  0.25915E-03
 0.54380005E+02  0.35079E-03
 0.54430004E+02  0.26564E-03
 0.54480003E+02  0.85531E-04
 0.54530003E+02 -0.13681E-04
 0.54580006E+02 -0.91874E-05
 0.54630005E+02  0.60292E-04
 0.54680004E+02  0.18210E-03
 0.54730003E+02  0.33426E-03
 0.54780003E+02  0.40547E-03
 0.54830006E+02  0.40718E-03
 0.54880005E+02  0.36777E-03
 0.54930004E+02  0.17416E-03
 0.54980003E+02 -0.86131E-05
 0.55030003E+02 -0.13098E-03
 0.55080006E+02 -0.33541E-03
 0.55130005E+02 -0.51189E-03
 0.55180004E+02 -0.55803E-03
 0.55230003E+02 -0.45788E-03
 0.55280003E+02 -0.27226E-03
 0.55330006E+02 -0.10782E-03
 0.55380005E+02 -0.39604E-04
 0.55430004E+02 -0.18485E-03
 0.55480003E+02 -0.38652E-03
 0.55530003E+02 -0.39915E-03
 0.55580006E+02 -0.22727E-03
 0.55630005E+02 -0.74217E-05
 0.55680004E+02  0.14085E-03
 0.55730003E+02  0.33915E-03
 0.55780003E+02  0.57371E-03
 0.55830006E+02  0.54773E-03
 0.55880005E+02  0.29645E-03
 0.55930004E+02  0.11410E-03
 0.55980003E+02  0.41195E-04
 0.56030003E+02 -0.25300E-04
 0.56080006E+02  0.64448E-04
 0.56130005E+02  0.51287E-03
 0.56180004E+02  0.10236E-02
 0.56230003E+02  0.11600E-02
 0.56280003E+02  0.85879E-03
 0.56330006E+02  0.41006E-03
 0.56380005E+02  0.39198E-04
 0.56430004E+02 -0.43753E-03
 0.56480003E+02 -0.97794E-03
 0.56530003E+02 -0.11958E-02
 0.56580006E+02 -0.10358E-02
 0.56630005E+02 -0.73941E-03
 0.56680004E+02 -0.46986E-03
 0.56730003E+02 -0.22404E-03
 0.56780003E+02  0.59188E-04
 0.56830006E+02  0.22687E-03
 0.56880005E+02  0.87036E-04
 0.56930004E+02 -0.19080E-03
 0.56980003E+02 -0.33357E-03
 0.57030003E+02 -0.34978E-03
 0.57080006E+02 -0.24949E-03
 0.57130005E+02  0.19611E-04
 0.57180004E+02  0.27233E-03
 0.57230003E+02  0.40310E-03
 0.57280003E+02  0.41535E-03
 0.57330006E+02  0.34695E-03
 0.57380005E+02  0.29531E-03
 0.57430004E+02  0.28228E-03
 0.57480003E+02  0.32251E-03
 0.57530003E+02  0.37013E-03
 0.57580006E+02  0.35693E-03
 0.57630005E+02  0.18208E-03
 0.57680004E+02 -0.10871E-03
 0.57730003E+02 -0.24873E-03
 0.57780003E+02 -0.15829E-03
 0.57830006E+02  0.17696E-04
 0.57880005E+02  0.17078E-03
 0.57930004E+02  0.29708E-03
 0.57980003E+02  0.29086E-03
 0.58030003E+02  0.81712E-04
 0.58080006E+02 -0.18289E-03
 0.58130005E+02 -0.54307E-03
 0.58180004E+02 -0.10371E-02
 0.58230003E+02 -0.13614E-02
 0.58280003E+02 -0.13607E-02
 0.58330006E+02 -0.99531E-03
 0.58380005E+02 -0.31311E-03
 0.58430004E+02  0.37539E-03
 0.58480003E+02  0.94043E-03
 0.58530003E+02  0.12577E-02
 0.58580006E+02  0.12717E-02
 0.58630005E+02  0.11100E-02
 0.58680004E+02  0.80435E-03
 0.58730003E+02  0.46599E-03
 0.58780003E+02  0.79907E-04
 0.58830006E+02 -0.29367E-03
 0.58880005E+02 -0.44174E-03
 0.58930004E+02 -0.38653E-03
 0.58980003E+02 -0.21877E-03
 0.59030003E+02  0.29882E-04
 0.59080006E+02  0.25149E-03
 0.59130005E+02  0.29154E-03
 0.59180004E+02  0.11945E-03
 0.59230003E+02 -0.24000E-03
 0.59280003E+02 -0.58234E-03
 0.59330006E+02 -0.68386E-03
 0.59380005E+02 -0.63855E-03
 0.59430004E+02 -0.57875E-03
 0.59480003E+02 -0.40192E-03
 0.59530003E+02 -0.39192E-04
 0.59580006E+02  0.31586E-03
 0.59630005E+02  0.43117E-03
 0.59680004E+02  0.32548E-03
 0.59730003E+02  0.26799E-03
 0.59780003E+02  0.27164E-03
 0.59830006E+02  0.20408E-03
 0.59880005E+02  0.10239E-03
 0.59930004E+02 -0.23801E-04
 0.59980003E+02 -0.19172E-03
 0.60030003E+02 -0.31831E-03
 0.60080006E+02 -0.22278E-03
 0.60130005E+02  0.92573E-04
 0.60180004E+02  0.41092E-03
 0.60230003E+02  0.54896E-03
 0.60280003E+02  0.52263E-03
 0.60330006E+02  0.32675E-03
 0.60380005E+02 -0.89443E-05
 0.60430004E+02 -0.23432E-03
 0.60480003E+02 -0.41506E-03
 0.60530003E+02 -0.67362E-03
 0.60580006E+02 -0.81426E-03
 0.60630005E+02 -0.72656E-03
 0.60680004E+02 -0.42904E-03
 0.60730003E+02 -0.58323E-04
 0.60780003E+02  0.31052E-03
 0.60830006E+02  0.58599E-03
 0.60880005E+02  0.62518E-03
 0.60930004E+02  0.52897E-03
 0.60980003E+02  0.30127E-03
 0.61030003E+02  0.26288E-04
 0.61080006E+02 -0.13121E-03
 0.61130005E+02 -0.25678E-03
 0.61180004E+02 -0.33783E-03
 0.61230003E+02 -0.34818E-03
 0.61280003E+02 -0.29979E-03
 0.61330006E+02 -0.16674E-03
 0.61380005E+02  0.69913E-04
 0.61430004E+02  0.32992E-03
 0.61480003E+02  0.47837E-03
 0.61530003E+02  0.59171E-03
 0.61580006E+02  0.65537E-03
 0.61630005E+02  0.54904E-03
 0.61680004E+02  0.29167E-03
 0.61730003E+02 -0.30276E-04
 0.61780003E+02 -0.28898E-03
 0.61830006E+02 -0.40198E-03
 0.61880005E+02 -0.39949E-03
 0.61930004E+02 -0.31410E-03
 0.61980003E+02 -0.16514E-03
 0.62030003E+02 -0.82878E-04
 0.62080006E+02 -0.92869E-04
 0.62130005E+02 -0.13553E-03
 0.62180004E+02 -0.21034E-03
 0.62230003E+02 -0.22576E-03
 0.62280003E+02 -0.98951E-04
 0.62330006E+02  0.65796E-04
 0.62380005E+02  0.14075E-03
 0.62430004E+02  0.15482E-03
 0.62480003E+02  0.31151E-04
 0.62530003E+02 -0.23227E-03
 0.62580006E+02 -0.36264E-03
 0.62630005E+02 -0.27978E-03
 0.62680004E+02 -0.13328E-03
 0.62730003E+02 -0.29898E-04
 0.62780003E+02  0.66587E-04
 0.62830006E+02  0.18777E-03
 0.62880005E+02  0.32079E-03
 0.62930004E+02  0.47640E-03
 0.62980003E+02  0.58452E-03
 0.63030003E+02  0.56856E-03
 0.63080006E+02  0.37292E-03
 0.63130005E+02  0.70160E-04
 0.63180004E+02 -0.15434E-03
 0.63230003E+02 -0.27467E-03
 0.63280003E+02 -0.31922E-03
 0.63330006E+02 -0.26155E-03
 0.63380005E+02 -0.13971E-03
 0.63430004E+02 -0.38954E-04
 0.63480003E+02  0.52821E-05
 0.63530003E+02  0.30957E-04
 0.63580006E+02  0.53035E-04
 0.63630005E+02  0.22748E-04
 0.63680004E+02 -0.68523E-04
 0.63730003E+02 -0.19537E-03
 0.63780003E+02 -0.32660E-03
 0.63830006E+02 -0.44242E-03
 0.63880005E+02 -0.48848E-03
 0.63930004E+02 -0.35297E-03
 0.63980003E+02 -0.96824E-04
 0.64030006E+02  0.17941E-03
 0.64080002E+02  0.48959E-03
 0.64130005E+02  0.71975E-03
 0.64180008E+02  0.75121E-03
 0.64230003E+02  0.62625E-03
 0.64280006E+02  0.45041E-03
 0.64330002E+02  0.25044E-03
 0.64380005E+02 -0.45722E-04
 0.64430008E+02 -0.34947E-03
 0.64480003E+02 -0.50946E-03
 0.64530006E+02 -0.55812E-03
 0.64580002E+02 -0.53696E-03
 0.64630005E+02 -0.46602E-03
 0.64680008E+02 -0.35927E-03
 0.64730003E+02 -0.22523E-03
 0.64780006E+02 -0.14848E-03
 0.64830002E+02 -0.14832E-03
 0.64880005E+02 -0.16562E-03
 0.64930008E+02 -0.13928E-03
 0.64980003E+02 -0.49843E-04
 0.65030006E+02  0.81368E-04
 0.65080002E+02  0.22738E-03
 0.65130005E+02  0.37836E-03
 0.65180008E+02  0.49849E-03
 0.65230003E+02  0.52367E-03
 0.65280006E+02  0.50237E-03
 0.65330002E+02  0.45192E-03
 0.65380005E+02  0.38983E-03
 0.65430008E+02  0.35153E-03
 0.65480003E+02  0.23967E-03
 0.65530006E+02  0.83326E-04
 0.65580002E+02  0.42946E-04
 0.65630005E+02  0.10968E-03
 0.65680008E+02  0.11904E-03
 0.65730003E+02  0.18346E-04
 0.65780006E+02 -0.15339E-03
 0.65830002E+02 -0.35094E-03
 0.65880005E+02 -0.48230E-03
 0.65930008E+02 -0.58019E-03
 0.65980003E+02 -0.64496E-03
 0.66030006E+02 -0.57570E-03
 0.66080002E+02 -0.39299E-03
 0.66130005E+02 -0.19053E-03
 0.66180008E+02 -0.45395E-04
 0.66230003E+02  0.41631E-04
 0.66280006E+02  0.93482E-04
 0.66330002E+02  0.10497E-03
 0.66380005E+02  0.76573E-04
 0.66430008E+02  0.86935E-04
 0.66480003E+02  0.13953E-03
 0.66530006E+02  0.11482E-03
 0.66580002E+02  0.52184E-04
 0.66630005E+02 -0.69539E-05
 0.66680008E+02 -0.11348E-03
 0.66730003E+02 -0.21188E-03
 0.66780006E+02 -0.19059E-03
 0.66830002E+02 -0.29649E-04
 0.66880005E+02  0.17650E-03
 0.66930008E+02  0.32189E-03
 0.66980003E+02  0.35922E-03
 0.67030006E+02  0.33232E-03
 0.67080002E+02  0.27325E-03
 0.67130005E+02  0.14594E-03
 0.67180008E+02 -0.39608E-05
 0.67230003E+02 -0.98315E-04
 0.67280006E+02 -0.94488E-04
 0.67330002E+02 -0.75033E-05
 0.67380005E+02  0.95529E-04
 0.67430008E+02  0.23299E-03
 0.67480003E+02  0.37462E-03
 0.67530006E+02  0.40923E-03
 0.67580002E+02  0.27346E-03
 0.67630005E+02 -0.81590E-05
 0.67680008E+02 -0.27319E-03
 0.67730003E+02 -0.45686E-03
 0.67780006E+02 -0.58219E-03
 0.67830002E+02 -0.61735E-03
 0.67880005E+02 -0.62871E-03
 0.67930008E+02 -0.60205E-03
 0.67980003E+02 -0.42499E-03
 0.68030006E+02 -0.71028E-04
 0.68080002E+02  0.33110E-03
 0.68130005E+02  0.53944E-03
 0.68180008E+02  0.50055E-03
 0.68230003E+02  0.37027E-03
 0.68280006E+02  0.32825E-03
 0.68330002E+02  0.32103E-03
 0.68380005E+02  0.19658E-03
 0.68430008E+02  0.29392E-05
 0.68480003E+02 -0.12512E-03
 0.68530006E+02 -0.12402E-03
 0.68580002E+02 -0.11360E-03
 0.68630005E+02 -0.12352E-03
 0.68680008E+02 -0.64851E-04
 0.68730003E+02  0.38776E-04
 0.68780006E+02  0.10432E-03
 0.68830002E+02  0.36366E-04
 0.68880005E+02 -0.50120E-04
 0.68930008E+02 -0.30399E-04
 0.68980003E+02 -0.18183E-04
 0.69030006E+02  0.39064E-05
 0.69080002E+02  0.93526E-04
 0.69130005E+02  0.13269E-03
 0.69180008E+02  0.57531E-04
 0.69230003E+02 -0.73162E-04
 0.69280006E+02 -0.17178E-03
 0.69330002E+02 -0.20199E-03
 0.69380005E+02 -0.16799E-03
 0.69430008E+02 -0.13152E-03
 0.69480003E+02 -0.11797E-03
 0.69530006E+02 -0.75711E-04
 0.69580002E+02 -0.18117E-04
 0.69630005E+02  0.53490E-04
 0.69680008E+02  0.11783E-03
 0.69730003E+02  0.15180E-03
 0.69780006E+02  0.17478E-03
 0.69830002E+02  0.14272E-03
 0.69880005E+02  0.81952E-04
 0.69930008E+02  0.89481E-04
 0.69980003E+02  0.12608E-03
 0.70030006E+02  0.10005E-03
 0.70080002E+02  0.49434E-06
 0.70130005E+02 -0.12488E-03
 0.70180008E+02 -0.18725E-03
 0.70230003E+02 -0.18398E-03
 0.70280006E+02 -0.15544E-03
 0.70330002E+02 -0.12426E-03
 0.70380005E+02 -0.92155E-04
 0.70430008E+02 -0.22467E-04
 0.70480003E+02 -0.11561E-04
 0.70530006E+02 -0.80751E-04
 0.70580002E+02 -0.11699E-03
 0.70630005E+02 -0.11537E-03
 0.70680008E+02 -0.11196E-03
 0.70730003E+02 -0.85197E-04
 0.70780006E+02  0.38698E-04
 0.70830002E+02  0.20675E-03
 0.70880005E+02  0.29377E-03
 0.70930008E+02  0.30305E-03
 0.70980003E+02  0.29887E-03
 0.71030006E+02  0.29715E-03
 0.71080002E+02  0.31526E-03
 0.71130005E+02  0.34251E-03
 0.71180008E+02  0.26938E-03
 0.71230003E+02  0.14819E-03
 0.71280006E+02  0.82518E-04
 0.71330002E+02 -0.31371E-04
 0.71380005E+02 -0.25534E-03
 0.71430008E+02 -0.50441E-03
 0.71480003E+02 -0.67589E-03
 0.71530006E+02 -0.71029E-03
 0.71580002E+02 -0.57928E-03
 0.71630005E+02 -0.34403E-03
 0.71680008E+02 -0.12373E-03
 0.71730003E+02  0.72355E-04
 0.71780006E+02  0.20693E-03
 0.71830002E+02  0.21921E-03
 0.71880005E+02  0.19672E-03
 0.71930008E+02  0.21135E-03
 0.71980003E+02  0.24867E-03
 0.72030006E+02  0.24027E-03
 0.72080002E+02  0.19603E-03
 0.72130005E+02  0.18717E-03
 0.72180008E+02  0.18525E-03
 0.72230003E+02  0.17629E-03
 0.72280006E+02  0.15892E-03
 0.72330002E+02  0.11300E-03
 0.72380005E+02 -0.72301E-05
 0.72430008E+02 -0.17931E-03
 0.72480003E+02 -0.27176E-03
 0.72530006E+02 -0.25438E-03
 0.72580002E+02 -0.17113E-03
 0.72630005E+02 -0.80943E-04
 0.72680008E+02 -0.37481E-04
 0.72730003E+02 -0.60971E-04
 0.72780006E+02 -0.17354E-03
 0.72830002E+02 -0.29721E-03
 0.72880005E+02 -0.31077E-03
 0.72930008E+02 -0.20068E-03
 0.72980003E+02 -0.20726E-04
 0.73030006E+02  0.17425E-03
 0.73080002E+02  0.34718E-03
 0.73130005E+02  0.44329E-03
 0.73180008E+02  0.43141E-03
 0.73230003E+02  0.34491E-03
 0.73280006E+02  0.22002E-03
 0.73330002E+02  0.71501E-04
 0.73380005E+02 -0.60348E-04
 0.73430008E+02 -0.13330E-03
 0.73480003E+02 -0.17755E-03
 0.73530006E+02 -0.20434E-03
 0.73580002E+02 -0.18936E-03
 0.73630005E+02 -0.14183E-03
 0.73680008E+02 -0.11262E-03
 0.73730003E+02 -0.10765E-03
 0.73780006E+02 -0.76279E-04
 0.73830002E+02 -0.18215E-04
 0.73880005E+02  0.59026E-04
 0.73930008E+02  0.12871E-03
 0.73980003E+02  0.17328E-03
 0.74030006E+02  0.18207E-03
 0.74080002E+02  0.15480E-03
 0.74130005E+02  0.12619E-03
 0.74180008E+02  0.67117E-04
 0.74230003E+02 -0.22965E-04
 0.74280006E+02 -0.92184E-04
 0.74330002E+02 -0.11653E-03
 0.74380005E+02 -0.13833E-03
 0.74430008E+02 -0.19088E-03
 0.74480003E+02 -0.20888E-03
 0.74530006E+02 -0.15681E-03
 0.74580002E+02 -0.38470E-04
 0.74630005E+02  0.95223E-04
 0.74680008E+02  0.15169E-03
 0.74730003E+02  0.13686E-03
 0.74780006E+02  0.10702E-03
 0.74830002E+02  0.83568E-04
 0.74880005E+02  0.54305E-04
 0.74930008E+02  0.28972E-04
 0.74980003E+02  0.17681E-04
 0.75030006E+02 -0.16026E-04
 0.75080002E+02 -0.72737E-04
 0.75130005E+02 -0.13727E-03
 0.75180008E+02 -0.18094E-03
 0.75230003E+02 -0.17025E-03
 0.75280006E+02 -0.13127E-03
 0.75330002E+02 -0.10950E-03
 0.75380005E+02 -0.83076E-04
 0.75430008E+02  0.17740E-04
 0.75480003E+02  0.13870E-03
 0.75530006E+02  0.20489E-03
 0.75580002E+02  0.23387E-03
 0.75630005E+02  0.24440E-03
 0.75680008E+02  0.26393E-03
 0.75730003E+02  0.26919E-03
 0.75780006E+02  0.23692E-03
 0.75830002E+02  0.16719E-03
 0.75880005E+02  0.32782E-04
 0.75930008E+02 -0.12787E-03
 0.75980003E+02 -0.25827E-03
 0.76030006E+02 -0.32433E-03
 0.76080002E+02 -0.32223E-03
 0.76130005E+02 -0.27540E-03
 0.76180008E+02 -0.18510E-03
 0.76230003E+02 -0.89948E-04
 0.76280006E+02 -0.39609E-04
 0.76330002E+02 -0.49572E-04
 0.76380005E+02 -0.93275E-04
 0.76430008E+02 -0.12328E-03
 0.76480003E+02 -0.14230E-03
 0.76530006E+02 -0.16671E-03
 0.76580002E+02 -0.16893E-03
 0.76630005E+02 -0.11876E-03
 0.76680008E+02 -0.20353E-04
 0.76730003E+02  0.12575E-03
 0.76780006E+02  0.29852E-03
 0.76830002E+02  0.44153E-03
 0.76880005E+02  0.49788E-03
 0.76930008E+02  0.48212E-03
 0.76980003E+02  0.45941E-03
 0.77030006E+02  0.40406E-03
 0.77080002E+02  0.29286E-03
 0.77130005E+02  0.14776E-03
 0.77180008E+02 -0.17353E-04
 0.77230003E+02 -0.17949E-03
 0.77280006E+02 -0.29926E-03
 0.77330002E+02 -0.34046E-03
 0.77380005E+02 -0.37302E-03
 0.77430008E+02 -0.42393E-03
 0.77480003E+02 -0.43961E-03
 0.77530006E+02 -0.43593E-03
 0.77580002E+02 -0.42378E-03
 0.77630005E+02 -0.36161E-03
 0.77680008E+02 -0.21721E-03
 0.77730003E+02 -0.38190E-04
 0.77780006E+02  0.12014E-03
 0.77830002E+02  0.24621E-03
 0.77880005E+02  0.32227E-03
 0.77930008E+02  0.34875E-03
 0.77980003E+02  0.37087E-03
 0.78030006E+02  0.40569E-03
 0.78080002E+02  0.42045E-03
 0.78130005E+02  0.40211E-03
 0.78180008E+02  0.35592E-03
 0.78230003E+02  0.30030E-03
 0.78280006E+02  0.21498E-03
 0.78330002E+02  0.75223E-04
 0.78380005E+02 -0.86300E-04
 0.78430008E+02 -0.23348E-03
 0.78480003E+02 -0.33537E-03
 0.78530006E+02 -0.40156E-03
 0.78580002E+02 -0.43241E-03
 0.78630005E+02 -0.41784E-03
 0.78680008E+02 -0.38048E-03
 0.78730003E+02 -0.30294E-03
 0.78780006E+02 -0.16271E-03
 0.78830002E+02  0.13673E-04
 0.78880005E+02  0.14729E-03
 0.78930008E+02  0.19389E-03
 0.78980003E+02  0.17750E-03
 0.79030006E+02  0.11344E-03
 0.79080002E+02  0.43801E-04
 0.79130005E+02  0.40113E-05
 0.79180008E+02 -0.19211E-04
 0.79230003E+02 -0.16420E-04
 0.79280006E+02  0.24965E-04
 0.79330002E+02  0.83394E-04
 0.79380005E+02  0.12493E-03
 0.79430008E+02  0.11371E-03
 0.79480003E+02  0.69839E-04
 0.79530006E+02  0.36559E-04
 0.79580002E+02  0.10622E-04
 0.79630005E+02 -0.50943E-05
 0.79680008E+02 -0.20451E-04
 0.79730003E+02 -0.67941E-04
 0.79780006E+02 -0.15666E-03
 0.79830002E+02 -0.26833E-03
 0.79880005E+02 -0.33869E-03
 0.79930008E+02 -0.28672E-03
 0.79980003E+02 -0.13339E-03
 0.80030006E+02  0.43091E-04
 0.80080002E+02  0.19169E-03
 0.80130005E+02  0.27138E-03
 0.80180008E+02  0.31072E-03
 0.80230003E+02  0.33608E-03
 0.80280006E+02  0.32654E-03
 0.80330002E+02  0.24761E-03
 0.80380005E+02  0.88794E-04
 0.80430008E+02 -0.67107E-04
 0.80480003E+02 -0.13866E-03
 0.80530006E+02 -0.13193E-03
 0.80580002E+02 -0.10678E-03
 0.80630005E+02 -0.76119E-04
 0.80680008E+02 -0.24601E-04
 0.80730003E+02  0.42246E-04
 0.80780006E+02  0.96279E-04
 0.80830002E+02  0.95243E-04
 0.80880005E+02  0.60128E-04
 0.80930008E+02  0.41903E-04
 0.80980003E+02  0.61995E-04
 0.81030006E+02  0.56649E-04
 0.81080002E+02 -0.28997E-04
 0.81130005E+02 -0.13048E-03
 0.81180008E+02 -0.18960E-03
 0.81230003E+02 -0.19007E-03
 0.81280006E+02 -0.15068E-03
 0.81330002E+02 -0.11845E-03
 0.81380005E+02 -0.10939E-03
 0.81430008E+02 -0.11567E-03
 0.81480003E+02 -0.97234E-04
 0.81530006E+02 -0.46094E-04
 0.81580002E+02 -0.10254E-04
 0.81630005E+02  0.16290E-04
 0.81680008E+02  0.52014E-04
 0.81730003E+02  0.85589E-04
 0.81780006E+02  0.11306E-03
 0.81830002E+02  0.92321E-04
 0.81880005E+02 -0.35373E-05
 0.81930008E+02 -0.91467E-04
 0.81980003E+02 -0.11741E-03
 0.82030006E+02 -0.94206E-04
 0.82080002E+02 -0.40496E-05
 0.82130005E+02  0.12755E-03
 0.82180008E+02  0.23919E-03
 0.82230003E+02  0.29765E-03
 0.82280006E+02  0.29709E-03
 0.82330002E+02  0.22577E-03
 0.82380005E+02  0.87775E-04
 0.82430008E+02 -0.39864E-04
 0.82480003E+02 -0.13101E-03
 0.82530006E+02 -0.18204E-03
 0.82580002E+02 -0.15298E-03
 0.82630005E+02 -0.90259E-04
 0.82680008E+02 -0.29165E-04
 0.82730003E+02  0.26751E-04
 0.82780006E+02  0.41734E-04
 0.82830002E+02  0.16542E-04
 0.82880005E+02 -0.51274E-04
 0.82930008E+02 -0.14974E-03
 0.82980003E+02 -0.23249E-03
 0.83030006E+02 -0.28400E-03
 0.83080002E+02 -0.27524E-03
 0.83130005E+02 -0.18442E-03
 0.83180008E+02 -0.63197E-04
 0.83230003E+02  0.54561E-04
 0.83280006E+02  0.18551E-03
 0.83330002E+02  0.31129E-03
 0.83380005E+02  0.36413E-03
 0.83430008E+02  0.30310E-03
 0.83480003E+02  0.18001E-03
 0.83530006E+02  0.65729E-04
 0.83580002E+02 -0.28341E-04
 0.83630005E+02 -0.11537E-03
 0.83680008E+02 -0.19335E-03
 0.83730003E+02 -0.21509E-03
 0.83780006E+02 -0.14495E-03
 0.83830002E+02 -0.14497E-04
 0.83880005E+02  0.12391E-03
 0.83930008E+02  0.22444E-03
 0.83980003E+02  0.25034E-03
 0.84030006E+02  0.20915E-03
 0.84080002E+02  0.13062E-03
 0.84130005E+02 -0.76496E-05
 0.84180008E+02 -0.16636E-03
 0.84230003E+02 -0.25272E-03
 0.84280006E+02 -0.25523E-03
 0.84330002E+02 -0.20273E-03
 0.84380005E+02 -0.13930E-03
 0.84430008E+02 -0.71296E-04
 0.84480003E+02  0.64638E-05
 0.84530006E+02  0.53949E-04
 0.84580002E+02  0.48507E-04
 0.84630005E+02  0.69597E-05
 0.84680008E+02 -0.24875E-04
 0.84730003E+02  0.37246E-05
 0.84780006E+02  0.77926E-04
 0.84830002E+02  0.13203E-03
 0.84880005E+02  0.14572E-03
 0.84930008E+02  0.12809E-03
 0.84980003E+02  0.69836E-04
 0.85030006E+02 -0.40546E-04
 0.85080002E+02 -0.15176E-03
 0.85130005E+02 -0.19711E-03
 0.85180008E+02 -0.15576E-03
 0.85230003E+02 -0.50454E-04
 0.85280006E+02  0.56787E-04
 0.85330002E+02  0.16989E-03
 0.85380005E+02  0.28652E-03
 0.85430008E+02  0.36519E-03
 0.85480003E+02  0.37494E-03
 0.85530006E+02  0.27620E-03
 0.85580002E+02  0.10537E-03
 0.85630005E+02 -0.72646E-04
 0.85680008E+02 -0.24235E-03
 0.85730003E+02 -0.38438E-03
 0.85780006E+02 -0.44494E-03
 0.85830002E+02 -0.40781E-03
 0.85880005E+02 -0.29179E-03
 0.85930008E+02 -0.13333E-03
 0.85980003E+02  0.24702E-05
 0.86030006E+02  0.99225E-04
 0.86080002E+02  0.16130E-03
 0.86130005E+02  0.17812E-03
 0.86180008E+02  0.15123E-03
 0.86230003E+02  0.99022E-04
 0.86280006E+02  0.34113E-04
 0.86330002E+02 -0.53681E-04
 0.86380005E+02 -0.15369E-03
 0.86430008E+02 -0.20614E-03
 0.86480003E+02 -0.17107E-03
 0.86530006E+02 -0.96494E-04
 0.86580002E+02 -0.35899E-04
 0.86630005E+02  0.86280E-05
 0.86680008E+02  0.68230E-04
 0.86730003E+02  0.15204E-03
 0.86780006E+02  0.20247E-03
 0.86830002E+02  0.19446E-03
 0.86880005E+02  0.15658E-03
 0.86930008E+02  0.12342E-03
 0.86980003E+02  0.86182E-04
 0.87030006E+02  0.16413E-04
 0.87080002E+02 -0.28164E-04
 0.87130005E+02 -0.19874E-04
 0.87180008E+02 -0.24796E-05
 0.87230003E+02  0.21714E-04
 0.87280006E+02  0.52591E-04
 0.87330002E+02  0.53431E-04
 0.87380005E+02  0.16722E-04
 0.87430008E+02 -0.20689E-04
 0.87480003E+02 -0.47346E-04
 0.87530006E+02 -0.58454E-04
 0.87580002E+02 -0.49740E-04
 0.87630005E+02 -0.55896E-04
 0.87680008E+02 -0.92268E-04
 0.87730003E+02 -0.12349E-03
 0.87780006E+02 -0.12902E-03
 0.87830002E+02 -0.13218E-03
 0.87880005E+02 -0.13266E-03
 0.87930008E+02 -0.10251E-03
 0.87980003E+02 -0.35727E-04
 0.88030006E+02  0.63356E-04
 0.88080002E+02  0.17620E-03
 0.88130005E+02  0.24069E-03
 0.88180008E+02  0.22059E-03
 0.88230003E+02  0.14447E-03
 0.88280006E+02  0.46918E-04
 0.88330002E+02 -0.30860E-04
 0.88380005E+02 -0.58913E-04
 0.88430008E+02 -0.39106E-04
 0.88480003E+02  0.10444E-04
 0.88530006E+02  0.54267E-04
 0.88580002E+02  0.63984E-04
 0.88630005E+02  0.53400E-04
 0.88680008E+02  0.31953E-04
 0.88730003E+02 -0.23520E-04
 0.88780006E+02 -0.10417E-03
 0.88830002E+02 -0.16927E-03
 0.88880005E+02 -0.20305E-03
 0.88930008E+02 -0.20875E-03
 0.88980003E+02 -0.16970E-03
 0.89030006E+02 -0.96695E-04
 0.89080002E+02 -0.30879E-04
 0.89130005E+02  0.90775E-05
 0.89180008E+02  0.33967E-04
 0.89230003E+02  0.80820E-04
 0.89280006E+02  0.14961E-03
 0.89330002E+02  0.20234E-03
 0.89380005E+02  0.22313E-03
 0.89430008E+02  0.20831E-03
 0.89480003E+02  0.15102E-03
 0.89530006E+02  0.54665E-04
 0.89580002E+02 -0.55810E-04
 0.89630005E+02 -0.14400E-03
 0.89680008E+02 -0.18627E-03
 0.89730003E+02 -0.16790E-03
 0.89780006E+02 -0.98971E-04
 0.89830002E+02 -0.27124E-04
 0.89880005E+02  0.12709E-04
 0.89930008E+02  0.36417E-04
 0.89980003E+02  0.79032E-04
 0.90030006E+02  0.12332E-03
 0.90080002E+02  0.13663E-03
 0.90130005E+02  0.11578E-03
 0.90180008E+02  0.61953E-04
 0.90230003E+02 -0.34776E-05
 0.90280006E+02 -0.57615E-04
 0.90330002E+02 -0.10528E-03
 0.90380005E+02 -0.15214E-03
 0.90430008E+02 -0.16742E-03
 0.90480003E+02 -0.12322E-03
 0.90530006E+02 -0.58924E-04
 0.90580002E+02 -0.23018E-04
 0.90630005E+02 -0.83148E-05
 0.90680008E+02 -0.12125E-06
 0.90730003E+02  0.49664E-05
 0.90780006E+02  0.26245E-04
 0.90830002E+02  0.41579E-04
 0.90880005E+02  0.79171E-05
 0.90930008E+02 -0.42283E-04
 0.90980003E+02 -0.59644E-04
 0.91030006E+02 -0.46510E-04
 0.91080002E+02 -0.36549E-04
 0.91130005E+02 -0.32777E-04
 0.91180008E+02 -0.70931E-05
 0.91230003E+02  0.47110E-04
 0.91280006E+02  0.12380E-03
 0.91330002E+02  0.17507E-03
 0.91380005E+02  0.16109E-03
 0.91430008E+02  0.10717E-03
 0.91480003E+02  0.41151E-04
 0.91530006E+02 -0.16021E-04
 0.91580002E+02 -0.46614E-04
 0.91630005E+02 -0.46089E-04
 0.91680008E+02 -0.20170E-04
 0.91730003E+02  0.30868E-04
 0.91780006E+02  0.73536E-04
 0.91830002E+02  0.56898E-04
 0.91880005E+02  0.92042E-05
 0.91930008E+02 -0.14258E-04
 0.91980003E+02  0.11511E-04
 0.92030006E+02  0.62988E-04
 0.92080002E+02  0.86471E-04
 0.92130005E+02  0.84095E-04
 0.92180008E+02  0.63721E-04
 0.92230003E+02  0.11200E-04
 0.92280006E+02 -0.57465E-04
 0.92330002E+02 -0.10939E-03
 0.92380005E+02 -0.12659E-03
 0.92430008E+02 -0.13839E-03
 0.92480003E+02 -0.15084E-03
 0.92530006E+02 -0.13344E-03
 0.92580002E+02 -0.86656E-04
 0.92630005E+02 -0.34514E-04
 0.92680008E+02 -0.30251E-05
 0.92730003E+02  0.23014E-04
 0.92780006E+02  0.52163E-04
 0.92830002E+02  0.77151E-04
 0.92880005E+02  0.10765E-03
 0.92930008E+02  0.10694E-03
 0.92980003E+02  0.55872E-04
 0.93030006E+02  0.24459E-05
 0.93080002E+02 -0.46476E-04
 0.93130005E+02 -0.90847E-04
 0.93180008E+02 -0.10979E-03
 0.93230003E+02 -0.11362E-03
 0.93280006E+02 -0.93934E-04
 0.93330002E+02 -0.36421E-04
 0.93380005E+02  0.55589E-04
 0.93430008E+02  0.14532E-03
 0.93480003E+02  0.17808E-03
 0.93530006E+02  0.13306E-03
 0.93580002E+02  0.50215E-04
 0.93630005E+02 -0.13901E-04
 0.93680008E+02 -0.76644E-04
 0.93730003E+02 -0.16074E-03
 0.93780006E+02 -0.23742E-03
 0.93830002E+02 -0.27170E-03
 0.93880005E+02 -0.24687E-03
 0.93930008E+02 -0.15661E-03
 0.93980003E+02 -0.23986E-04
 0.94030006E+02  0.95321E-04
 0.94080002E+02  0.17855E-03
 0.94130005E+02  0.23836E-03
 0.94180008E+02  0.28430E-03
 0.94230003E+02  0.29611E-03
 0.94280006E+02  0.24948E-03
 0.94330002E+02  0.16031E-03
 0.94380005E+02  0.50856E-04
 0.94430008E+02 -0.57835E-04
 0.94480003E+02 -0.13161E-03
 0.94530006E+02 -0.14269E-03
 0.94580002E+02 -0.10895E-03
 0.94630005E+02 -0.60970E-04
 0.94680008E+02  0.56638E-05
 0.94730003E+02  0.55034E-04
 0.94780006E+02  0.58163E-04
 0.94830002E+02  0.38992E-04
 0.94880005E+02  0.19469E-04
 0.94930008E+02  0.22142E-04
 0.94980003E+02  0.39366E-04
 0.95030006E+02  0.63329E-04
 0.95080002E+02  0.73723E-04
 0.95130005E+02  0.42864E-04
 0.95180008E+02 -0.28600E-05
 0.95230003E+02 -0.41631E-04
 0.95280006E+02 -0.64229E-04
 0.95330002E+02 -0.78178E-04
 0.95380005E+02 -0.10311E-03
 0.95430008E+02 -0.12483E-03
 0.95480003E+02 -0.11138E-03
 0.95530006E+02 -0.52983E-04
 0.95580002E+02  0.56758E-05
 0.95630005E+02  0.84495E-05
 0.95680008E+02 -0.34304E-04
 0.95730003E+02 -0.73755E-04
 0.95780006E+02 -0.97769E-04
 0.95830002E+02 -0.11560E-03
 0.95880005E+02 -0.12264E-03
 0.95930008E+02 -0.10468E-03
 0.95980003E+02 -0.61424E-04
 0.96030006E+02 -0.20205E-04
 0.96080002E+02  0.90140E-05
 0.96130005E+02  0.31114E-04
 0.96180008E+02  0.49497E-04
 0.96230003E+02  0.81525E-04
 0.96280006E+02  0.13096E-03
 0.96330002E+02  0.18536E-03
 0.96380005E+02  0.20815E-03
 0.96430008E+02  0.19159E-03
 0.96480003E+02  0.16841E-03
 0.96530006E+02  0.12689E-03
 0.96580002E+02  0.52670E-04
 0.96630005E+02 -0.27240E-04
 0.96680008E+02 -0.79131E-04
 0.96730003E+02 -0.92780E-04
 0.96780006E+02 -0.86240E-04
 0.96830002E+02 -0.89872E-04
 0.96880005E+02 -0.97643E-04
 0.96930008E+02 -0.83528E-04
 0.96980003E+02 -0.60510E-04
 0.97030006E+02 -0.29071E-04
 0.97080002E+02  0.32410E-04
 0.97130005E+02  0.98372E-04
 0.97180008E+02  0.11396E-03
 0.97230003E+02  0.63717E-04
 0.97280006E+02 -0.10755E-04
 0.97330002E+02 -0.56354E-04
 0.97380005E+02 -0.66235E-04
 0.97430008E+02 -0.61346E-04
 0.97480003E+02 -0.47387E-04
 0.97530006E+02 -0.27423E-04
 0.97580002E+02 -0.11268E-04
 0.97630005E+02  0.53771E-06
 0.97680008E+02  0.28975E-05
 0.97730003E+02 -0.12535E-04
 0.97780006E+02 -0.29484E-04
 0.97830002E+02 -0.35570E-04
 0.97880005E+02 -0.37854E-04
 0.97930008E+02 -0.29854E-04
 0.97980003E+02  0.89664E-05
 0.98030006E+02  0.74705E-04
 0.98080002E+02  0.12864E-03
 0.98130005E+02  0.14108E-03
 0.98180008E+02  0.98990E-04
 0.98230003E+02  0.13749E-04
 0.98280006E+02 -0.63473E-04
 0.98330002E+02 -0.10578E-03
 0.98380005E+02 -0.11584E-03
 0.98430008E+02 -0.10215E-03
 0.98480003E+02 -0.80646E-04
 0.98530006E+02 -0.47140E-04
 0.98580002E+02 -0.89352E-05
 0.98630005E+02  0.10875E-04
 0.98680008E+02  0.31992E-04
 0.98730003E+02  0.80728E-04
 0.98780006E+02  0.13169E-03
 0.98830002E+02  0.15211E-03
 0.98880005E+02  0.13977E-03
 0.98930008E+02  0.11988E-03
 0.98980003E+02  0.11539E-03
 0.99030006E+02  0.11083E-03
 0.99080002E+02  0.69390E-04
 0.99130005E+02 -0.23079E-04
 0.99180008E+02 -0.13627E-03
 0.99230003E+02 -0.21913E-03
 0.99280006E+02 -0.24833E-03
 0.99330002E+02 -0.23831E-03
 0.99380005E+02 -0.20776E-03
 0.99430008E+02 -0.16812E-03
 0.99480003E+02 -0.11643E-03
 0.99530006E+02 -0.50020E-04
 0.99580002E+02  0.22222E-04
 0.99630005E+02  0.97974E-04
 0.99680008E+02  0.15892E-03
 0.99730003E+02  0.16886E-03
 0.99780006E+02  0.12551E-03
 0.99830002E+02  0.67014E-04
 0.99880005E+02  0.27573E-04
 0.99930008E+02  0.47225E-05
 0.99980003E+02 -0.12980E-04
