-0.19996643E-01 -0.38622E-06
 0.30003358E-01 -0.21583E-06
 0.80003358E-01 -0.92889E-07
 0.13000336E+00  0.60790E-08
 0.18000336E+00  0.79680E-07
 0.23000336E+00  0.10701E-06
 0.28000337E+00  0.12247E-06
 0.33000335E+00  0.12827E-06
 0.38000336E+00  0.11882E-06
 0.43000337E+00  0.10730E-06
 0.48000336E+00  0.98643E-07
 0.53000337E+00  0.93740E-07
 0.58000338E+00  0.79798E-07
 0.63000339E+00  0.64854E-07
 0.68000335E+00  0.53735E-07
 0.73000336E+00  0.42695E-07
 0.78000337E+00  0.21569E-07
 0.83000338E+00 -0.12087E-07
 0.88000339E+00 -0.38825E-07
 0.93000335E+00 -0.53264E-07
 0.98000336E+00 -0.56203E-07
 0.10300034E+01 -0.69906E-07
 0.10800034E+01 -0.65320E-07
 0.11300033E+01 -0.44883E-07
 0.11800034E+01 -0.41644E-07
 0.12300034E+01 -0.68231E-08
 0.12800034E+01  0.14016E-07
 0.13300034E+01  0.11964E-07
 0.13800033E+01  0.16629E-07
 0.14300034E+01  0.31770E-08
 0.14800034E+01 -0.20307E-08
 0.15300034E+01  0.82664E-08
 0.15800034E+01  0.12573E-07
 0.16300033E+01  0.16680E-08
 0.16800034E+01 -0.75016E-08
 0.17300034E+01 -0.12372E-07
 0.17800034E+01 -0.15726E-07
 0.18300034E+01 -0.19064E-07
 0.18800033E+01 -0.11507E-07
 0.19300034E+01 -0.10636E-07
 0.19800034E+01 -0.19022E-07
 0.20300033E+01 -0.89898E-08
 0.20800035E+01 -0.22419E-08
 0.21300035E+01 -0.34503E-08
 0.21800034E+01 -0.11706E-07
 0.22300034E+01 -0.31984E-07
 0.22800033E+01 -0.56302E-07
 0.23300035E+01 -0.71051E-07
 0.23800035E+01 -0.58878E-07
 0.24300034E+01 -0.35725E-07
 0.24800034E+01 -0.29030E-07
 0.25300033E+01 -0.21996E-07
 0.25800035E+01 -0.71436E-08
 0.26300035E+01 -0.71859E-09
 0.26800034E+01  0.67262E-08
 0.27300034E+01  0.30151E-07
 0.27800033E+01  0.46019E-07
 0.28300035E+01  0.54132E-07
 0.28800035E+01  0.57845E-07
 0.29300034E+01  0.40064E-07
 0.29800034E+01  0.20133E-07
 0.30300033E+01  0.17297E-10
 0.30800035E+01 -0.10436E-07
 0.31300035E+01 -0.13035E-07
 0.31800034E+01 -0.79386E-08
 0.32300034E+01  0.10667E-07
 0.32800033E+01  0.36849E-07
 0.33300035E+01  0.75588E-07
 0.33800035E+01  0.84153E-07
 0.34300034E+01  0.59613E-07
 0.34800034E+01  0.37452E-07
 0.35300033E+01  0.29621E-07
 0.35800035E+01  0.21811E-07
 0.36300035E+01  0.81088E-08
 0.36800034E+01 -0.54137E-08
 0.37300034E+01 -0.25084E-07
 0.37800033E+01 -0.28743E-07
 0.38300035E+01 -0.10407E-07
 0.38800035E+01  0.74962E-08
 0.39300034E+01  0.49026E-08
 0.39800034E+01 -0.28709E-08
 0.40300035E+01 -0.92590E-08
 0.40800033E+01 -0.44462E-08
 0.41300035E+01 -0.63103E-08
 0.41800036E+01 -0.19248E-07
 0.42300034E+01 -0.92588E-08
 0.42800035E+01 -0.11091E-07
 0.43300033E+01 -0.33424E-07
 0.43800035E+01 -0.63435E-07
 0.44300036E+01 -0.80854E-07
 0.44800034E+01 -0.73689E-07
 0.45300035E+01 -0.47659E-07
 0.45800033E+01 -0.20603E-07
 0.46300035E+01 -0.60865E-08
 0.46800036E+01  0.77954E-08
 0.47300034E+01  0.46399E-08
 0.47800035E+01  0.46932E-08
 0.48300033E+01  0.19866E-07
 0.48800035E+01  0.28001E-07
 0.49300036E+01  0.30561E-07
 0.49800034E+01  0.29747E-07
 0.50300035E+01  0.19487E-07
 0.50800033E+01  0.13790E-07
 0.51300035E+01  0.23728E-07
 0.51800036E+01  0.31053E-07
 0.52300034E+01  0.25091E-07
 0.52800035E+01  0.45524E-08
 0.53300033E+01  0.10204E-07
 0.53800035E+01  0.37916E-07
 0.54300036E+01  0.42844E-07
 0.54800034E+01  0.25822E-07
 0.55300035E+01  0.58163E-09
 0.55800033E+01 -0.14836E-07
 0.56300035E+01 -0.39048E-07
 0.56800036E+01 -0.46540E-07
 0.57300034E+01 -0.36582E-07
 0.57800035E+01 -0.45222E-07
 0.58300033E+01 -0.37331E-07
 0.58800035E+01 -0.25597E-07
 0.59300036E+01 -0.19689E-07
 0.59800034E+01 -0.49280E-08
 0.60300035E+01  0.11060E-07
 0.60800033E+01  0.21650E-07
 0.61300035E+01  0.22620E-07
 0.61800036E+01  0.23058E-07
 0.62300034E+01  0.10462E-07
 0.62800035E+01 -0.70307E-08
 0.63300033E+01 -0.74775E-08
 0.63800035E+01 -0.55301E-08
 0.64300036E+01 -0.87366E-08
 0.64800034E+01 -0.60082E-08
 0.65300035E+01 -0.16025E-07
 0.65800033E+01 -0.27286E-07
 0.66300035E+01 -0.90433E-08
 0.66800036E+01  0.18082E-07
 0.67300034E+01  0.38926E-07
 0.67800035E+01  0.32019E-07
 0.68300033E+01  0.12767E-07
 0.68800035E+01  0.15318E-07
 0.69300036E+01  0.10008E-07
 0.69800034E+01 -0.89009E-08
 0.70300035E+01 -0.20313E-07
 0.70800033E+01 -0.23142E-07
 0.71300035E+01 -0.20240E-07
 0.71800036E+01 -0.11444E-07
 0.72300034E+01 -0.10600E-07
 0.72800035E+01 -0.13698E-07
 0.73300033E+01 -0.39693E-08
 0.73800035E+01  0.83056E-08
 0.74300036E+01  0.17552E-07
 0.74800034E+01  0.17990E-07
 0.75300035E+01  0.66176E-08
 0.75800033E+01  0.85916E-08
 0.76300035E+01  0.79426E-08
 0.76800036E+01 -0.33193E-08
 0.77300034E+01 -0.15583E-07
 0.77800035E+01 -0.27097E-07
 0.78300033E+01 -0.21688E-07
 0.78800035E+01 -0.23418E-07
 0.79300036E+01 -0.16114E-07
 0.79800034E+01 -0.33528E-09
 0.80300035E+01  0.11853E-07
 0.80800037E+01  0.20351E-07
 0.81300039E+01  0.22941E-07
 0.81800032E+01  0.35417E-07
 0.82300034E+01  0.30365E-07
 0.82800035E+01  0.14479E-07
 0.83300037E+01 -0.10347E-07
 0.83800039E+01 -0.12781E-07
 0.84300032E+01 -0.55572E-08
 0.84800034E+01 -0.19260E-07
 0.85300035E+01 -0.52690E-08
 0.85800037E+01 -0.93466E-08
 0.86300039E+01 -0.18152E-07
 0.86800032E+01  0.11548E-07
 0.87300034E+01  0.40692E-07
 0.87800035E+01  0.27942E-07
 0.88300037E+01  0.97627E-08
 0.88800039E+01  0.12834E-07
 0.89300032E+01  0.51990E-08
 0.89800034E+01  0.13358E-07
 0.90300035E+01  0.24868E-07
 0.90800037E+01  0.19227E-07
 0.91300039E+01  0.99823E-08
 0.91800032E+01  0.13050E-07
 0.92300034E+01  0.23769E-07
 0.92800035E+01  0.12810E-07
 0.93300037E+01 -0.38219E-08
 0.93800039E+01 -0.11324E-07
 0.94300032E+01 -0.10326E-07
 0.94800034E+01 -0.55896E-08
 0.95300035E+01 -0.45530E-08
 0.95800037E+01  0.54603E-08
 0.96300039E+01  0.11035E-07
 0.96800032E+01 -0.21993E-08
 0.97300034E+01 -0.11736E-07
 0.97800035E+01 -0.99679E-08
 0.98300037E+01 -0.23549E-07
 0.98800039E+01 -0.39758E-07
 0.99300032E+01 -0.36753E-07
 0.99800034E+01 -0.38405E-07
 0.10030004E+02 -0.32297E-07
 0.10080004E+02 -0.19252E-07
 0.10130004E+02 -0.97475E-08
 0.10180003E+02  0.24393E-08
 0.10230003E+02  0.72013E-08
 0.10280004E+02  0.60022E-08
 0.10330004E+02  0.72007E-08
 0.10380004E+02  0.57578E-08
 0.10430003E+02  0.39615E-08
 0.10480003E+02  0.12699E-07
 0.10530004E+02  0.91162E-08
 0.10580004E+02  0.36364E-08
 0.10630004E+02 -0.42532E-08
 0.10680003E+02 -0.16221E-08
 0.10730003E+02  0.14078E-07
 0.10780004E+02  0.20566E-07
 0.10830004E+02  0.41041E-07
 0.10880004E+02  0.36176E-07
 0.10930003E+02  0.22393E-07
 0.10980003E+02  0.18286E-07
 0.11030004E+02 -0.25566E-08
 0.11080004E+02 -0.25926E-07
 0.11130004E+02 -0.35566E-07
 0.11180003E+02 -0.35216E-07
 0.11230003E+02 -0.37062E-07
 0.11280004E+02 -0.27103E-07
 0.11330004E+02 -0.25888E-07
 0.11380004E+02 -0.22620E-07
 0.11430003E+02 -0.85001E-08
 0.11480003E+02  0.85882E-08
 0.11530004E+02  0.22941E-07
 0.11580004E+02  0.19687E-07
 0.11630004E+02  0.94862E-08
 0.11680003E+02 -0.12109E-07
 0.11730003E+02 -0.28661E-07
 0.11780004E+02 -0.29625E-07
 0.11830004E+02 -0.28271E-07
 0.11880004E+02 -0.30032E-07
 0.11930003E+02 -0.33240E-07
 0.11980003E+02 -0.19561E-07
 0.12030004E+02 -0.35007E-08
 0.12080004E+02 -0.23100E-08
 0.12130004E+02  0.19463E-07
 0.12180003E+02  0.39212E-07
 0.12230003E+02  0.34438E-07
 0.12280004E+02  0.33510E-07
 0.12330004E+02  0.33897E-07
 0.12380004E+02  0.42038E-07
 0.12430003E+02  0.54498E-07
 0.12480003E+02  0.80568E-07
 0.12530004E+02  0.12021E-06
 0.12580004E+02  0.11557E-06
 0.12630004E+02  0.67374E-07
 0.12680003E+02  0.29419E-07
 0.12730003E+02 -0.10385E-06
 0.12780004E+02 -0.16057E-06
 0.12830004E+02 -0.15792E-06
 0.12880004E+02 -0.26683E-06
 0.12930003E+02  0.72226E-07
 0.12980003E+02 -0.36736E-06
 0.13030004E+02  0.10496E-06
 0.13080004E+02 -0.19831E-06
 0.13130004E+02 -0.10005E-06
 0.13180003E+02  0.74148E-06
 0.13230003E+02 -0.30012E-06
 0.13280004E+02  0.23097E-05
 0.13330004E+02 -0.10179E-05
 0.13380004E+02  0.83874E-06
 0.13430003E+02 -0.13073E-04
 0.13480003E+02 -0.42328E-04
 0.13530004E+02 -0.11554E-03
 0.13580004E+02 -0.20045E-03
 0.13630004E+02 -0.24222E-03
 0.13680003E+02 -0.29662E-03
 0.13730003E+02 -0.25842E-03
 0.13780004E+02 -0.16124E-03
 0.13830004E+02  0.73931E-04
 0.13880004E+02  0.36494E-03
 0.13930003E+02  0.56201E-03
 0.13980003E+02  0.67714E-03
 0.14030004E+02  0.50871E-03
 0.14080004E+02  0.38719E-03
 0.14130004E+02  0.41715E-03
 0.14180003E+02  0.33723E-03
 0.14230003E+02  0.17094E-03
 0.14280004E+02 -0.40911E-04
 0.14330004E+02 -0.44597E-03
 0.14380004E+02 -0.91738E-03
 0.14430003E+02 -0.11236E-02
 0.14480003E+02 -0.79407E-03
 0.14530004E+02 -0.36495E-04
 0.14580004E+02  0.21701E-03
 0.14630004E+02  0.27637E-03
 0.14680003E+02  0.35810E-03
 0.14730003E+02  0.22545E-03
 0.14780004E+02  0.19716E-03
 0.14830004E+02 -0.94322E-04
 0.14880004E+02 -0.15855E-03
 0.14930003E+02  0.34253E-04
 0.14980003E+02 -0.13281E-03
 0.15030004E+02 -0.30140E-03
 0.15080004E+02 -0.13255E-03
 0.15130004E+02  0.84175E-05
 0.15180003E+02  0.22570E-03
 0.15230003E+02  0.52782E-03
 0.15280004E+02  0.46072E-03
 0.15330004E+02  0.42687E-03
 0.15380004E+02 -0.39885E-04
 0.15430003E+02 -0.24443E-03
 0.15480003E+02 -0.84764E-04
 0.15530004E+02 -0.23581E-03
 0.15580004E+02 -0.79135E-04
 0.15630004E+02 -0.21140E-03
 0.15680003E+02 -0.14337E-03
 0.15730003E+02 -0.15756E-03
 0.15780004E+02 -0.26551E-03
 0.15830004E+02 -0.50793E-05
 0.15880004E+02 -0.13132E-03
 0.15930003E+02 -0.51199E-04
 0.15980003E+02  0.42583E-04
 0.16030005E+02  0.10609E-03
 0.16080004E+02  0.21013E-03
 0.16130003E+02  0.21598E-05
 0.16180004E+02  0.23618E-04
 0.16230003E+02  0.32171E-04
 0.16280005E+02 -0.74715E-04
 0.16330004E+02  0.92554E-04
 0.16380003E+02  0.26136E-03
 0.16430004E+02  0.42395E-03
 0.16480003E+02  0.40389E-03
 0.16530005E+02  0.87994E-04
 0.16580004E+02  0.11505E-03
 0.16630003E+02  0.81997E-04
 0.16680004E+02 -0.17224E-03
 0.16730003E+02 -0.82045E-04
 0.16780005E+02 -0.10072E-03
 0.16830004E+02 -0.17736E-03
 0.16880003E+02 -0.36641E-03
 0.16930004E+02 -0.54023E-03
 0.16980003E+02 -0.40338E-03
 0.17030005E+02 -0.24341E-03
 0.17080004E+02  0.29851E-03
 0.17130003E+02  0.42914E-03
 0.17180004E+02  0.11603E-03
 0.17230003E+02  0.21154E-03
 0.17280005E+02  0.24936E-03
 0.17330004E+02  0.18138E-03
 0.17380003E+02  0.65344E-04
 0.17430004E+02  0.61766E-04
 0.17480003E+02  0.40642E-04
 0.17530005E+02 -0.50324E-03
 0.17580004E+02 -0.62266E-03
 0.17630003E+02 -0.29387E-03
 0.17680004E+02 -0.42226E-03
 0.17730003E+02 -0.14230E-03
 0.17780005E+02  0.19878E-03
 0.17830004E+02  0.17785E-03
 0.17880003E+02  0.25513E-03
 0.17930004E+02  0.14995E-03
 0.17980003E+02  0.27705E-03
 0.18030005E+02  0.36171E-03
 0.18080004E+02  0.28746E-03
 0.18130003E+02  0.19466E-03
 0.18180004E+02 -0.17489E-03
 0.18230003E+02 -0.17764E-03
 0.18280005E+02  0.25682E-05
 0.18330004E+02 -0.14202E-03
 0.18380003E+02 -0.26692E-03
 0.18430004E+02 -0.48339E-04
 0.18480003E+02  0.26257E-03
 0.18530005E+02  0.34599E-03
 0.18580004E+02  0.29475E-03
 0.18630003E+02  0.11633E-03
 0.18680004E+02 -0.11816E-03
 0.18730003E+02 -0.33439E-03
 0.18780005E+02 -0.25462E-03
 0.18830004E+02 -0.15628E-03
 0.18880003E+02 -0.20257E-03
 0.18930004E+02 -0.56004E-06
 0.18980003E+02  0.72723E-04
 0.19030005E+02 -0.92333E-04
 0.19080004E+02 -0.13810E-03
 0.19130003E+02  0.20334E-03
 0.19180004E+02  0.28727E-03
 0.19230003E+02 -0.82494E-04
 0.19280005E+02 -0.20471E-03
 0.19330004E+02 -0.21947E-03
 0.19380003E+02 -0.22560E-03
 0.19430004E+02 -0.19120E-03
 0.19480003E+02  0.96477E-04
 0.19530005E+02  0.47317E-03
 0.19580004E+02  0.33283E-03
 0.19630003E+02  0.43025E-03
 0.19680004E+02  0.63455E-03
 0.19730003E+02  0.89822E-04
 0.19780005E+02 -0.30943E-03
 0.19830004E+02 -0.33156E-03
 0.19880003E+02 -0.28461E-03
 0.19930004E+02 -0.23068E-03
 0.19980003E+02 -0.22943E-03
 0.20030005E+02 -0.33893E-03
 0.20080004E+02 -0.44072E-03
 0.20130003E+02 -0.10888E-03
 0.20180004E+02  0.21570E-03
 0.20230003E+02  0.39936E-03
 0.20280005E+02  0.47631E-03
 0.20330004E+02  0.32916E-03
 0.20380003E+02 -0.95850E-04
 0.20430004E+02 -0.45981E-03
 0.20480003E+02 -0.21101E-03
 0.20530005E+02  0.66041E-04
 0.20580004E+02  0.17347E-03
 0.20630003E+02  0.12714E-03
 0.20680004E+02  0.36511E-04
 0.20730003E+02  0.29338E-04
 0.20780005E+02  0.33087E-04
 0.20830004E+02  0.34054E-03
 0.20880003E+02  0.29426E-03
 0.20930004E+02 -0.67836E-04
 0.20980003E+02 -0.11480E-03
 0.21030005E+02 -0.69395E-04
 0.21080004E+02 -0.39626E-03
 0.21130003E+02 -0.33346E-03
 0.21180004E+02  0.34646E-03
 0.21230003E+02  0.24759E-03
 0.21280005E+02  0.13846E-03
 0.21330004E+02  0.84590E-04
 0.21380003E+02 -0.19434E-03
 0.21430004E+02 -0.15236E-03
 0.21480003E+02  0.13572E-04
 0.21530005E+02  0.49657E-03
 0.21580004E+02  0.17168E-03
 0.21630003E+02 -0.36159E-03
 0.21680004E+02 -0.38556E-03
 0.21730003E+02 -0.31816E-03
 0.21780005E+02 -0.98145E-04
 0.21830004E+02 -0.42849E-03
 0.21880003E+02 -0.27763E-03
 0.21930004E+02 -0.39550E-04
 0.21980003E+02  0.11939E-04
 0.22030005E+02  0.33889E-03
 0.22080004E+02  0.35880E-03
 0.22130003E+02  0.36954E-03
 0.22180004E+02 -0.12400E-03
 0.22230003E+02 -0.18380E-03
 0.22280005E+02  0.27283E-03
 0.22330004E+02  0.27862E-03
 0.22380003E+02  0.15987E-03
 0.22430004E+02 -0.20781E-03
 0.22480003E+02 -0.12299E-03
 0.22530005E+02  0.13771E-03
 0.22580004E+02 -0.72623E-04
 0.22630003E+02 -0.21054E-03
 0.22680004E+02 -0.75731E-04
 0.22730003E+02  0.78102E-04
 0.22780005E+02 -0.15443E-03
 0.22830004E+02 -0.66543E-04
 0.22880003E+02  0.47016E-03
 0.22930004E+02  0.59894E-03
 0.22980003E+02  0.38899E-03
 0.23030005E+02  0.37140E-03
 0.23080004E+02  0.17050E-03
 0.23130003E+02 -0.33956E-03
 0.23180004E+02 -0.42147E-03
 0.23230003E+02 -0.87538E-03
 0.23280005E+02 -0.12820E-02
 0.23330004E+02 -0.95632E-03
 0.23380003E+02 -0.53011E-03
 0.23430004E+02 -0.21042E-03
 0.23480003E+02 -0.32254E-03
 0.23530005E+02  0.31740E-03
 0.23580004E+02  0.10930E-02
 0.23630003E+02  0.10272E-02
 0.23680004E+02  0.12318E-02
 0.23730003E+02  0.14983E-02
 0.23780005E+02  0.13912E-02
 0.23830004E+02  0.30387E-03
 0.23880003E+02 -0.11434E-02
 0.23930004E+02 -0.20732E-02
 0.23980003E+02 -0.29239E-02
 0.24030005E+02 -0.28814E-02
 0.24080004E+02 -0.14804E-02
 0.24130003E+02  0.21860E-03
 0.24180004E+02  0.15119E-02
 0.24230003E+02  0.27857E-02
 0.24280005E+02  0.35485E-02
 0.24330004E+02  0.34464E-02
 0.24380003E+02  0.28662E-02
 0.24430004E+02  0.13594E-02
 0.24480003E+02 -0.17282E-03
 0.24530005E+02 -0.13430E-02
 0.24580004E+02 -0.24117E-02
 0.24630003E+02 -0.26327E-02
 0.24680004E+02 -0.25250E-02
 0.24730003E+02 -0.23710E-02
 0.24780005E+02 -0.16009E-02
 0.24830004E+02 -0.31139E-03
 0.24880003E+02  0.64643E-03
 0.24930004E+02  0.11353E-02
 0.24980003E+02  0.14438E-02
 0.25030005E+02  0.12799E-02
 0.25080004E+02  0.95658E-03
 0.25130003E+02  0.36257E-03
 0.25180004E+02 -0.28002E-03
 0.25230003E+02 -0.43757E-03
 0.25280005E+02 -0.49710E-03
 0.25330004E+02 -0.31226E-03
 0.25380003E+02 -0.14362E-03
 0.25430004E+02 -0.69727E-03
 0.25480003E+02 -0.91584E-03
 0.25530005E+02 -0.25243E-03
 0.25580004E+02  0.29169E-03
 0.25630003E+02  0.53758E-03
 0.25680004E+02  0.10733E-02
 0.25730003E+02  0.19411E-02
 0.25780005E+02  0.19427E-02
 0.25830004E+02  0.11737E-02
 0.25880003E+02 -0.73736E-04
 0.25930004E+02 -0.18934E-02
 0.25980003E+02 -0.27673E-02
 0.26030005E+02 -0.24799E-02
 0.26080004E+02 -0.16192E-02
 0.26130003E+02 -0.14027E-03
 0.26180004E+02  0.45211E-03
 0.26230003E+02  0.77944E-04
 0.26280005E+02  0.68186E-03
 0.26330004E+02  0.13730E-02
 0.26380003E+02  0.16207E-02
 0.26430004E+02  0.20726E-02
 0.26480003E+02  0.20168E-02
 0.26530005E+02  0.11851E-02
 0.26580004E+02 -0.18317E-04
 0.26630003E+02 -0.11543E-02
 0.26680004E+02 -0.18624E-02
 0.26730003E+02 -0.20453E-02
 0.26780005E+02 -0.20373E-02
 0.26830004E+02 -0.15674E-02
 0.26880003E+02 -0.87096E-03
 0.26930004E+02 -0.37176E-03
 0.26980003E+02 -0.41909E-05
 0.27030005E+02  0.28873E-03
 0.27080004E+02  0.91732E-03
 0.27130003E+02  0.11391E-02
 0.27180004E+02  0.15363E-02
 0.27230003E+02  0.19942E-02
 0.27280005E+02  0.14942E-02
 0.27330004E+02  0.10076E-02
 0.27380003E+02  0.15645E-03
 0.27430004E+02 -0.16595E-03
 0.27480003E+02  0.27708E-03
 0.27530005E+02  0.14488E-03
 0.27580004E+02 -0.18026E-03
 0.27630003E+02 -0.52737E-03
 0.27680004E+02 -0.64354E-03
 0.27730003E+02 -0.87303E-03
 0.27780005E+02 -0.11024E-02
 0.27830004E+02 -0.87679E-03
 0.27880003E+02 -0.95242E-03
 0.27930004E+02 -0.12886E-02
 0.27980003E+02 -0.18841E-02
 0.28030005E+02 -0.19846E-02
 0.28080004E+02 -0.91288E-03
 0.28130003E+02  0.12248E-03
 0.28180004E+02  0.10126E-02
 0.28230003E+02  0.15293E-02
 0.28280005E+02  0.16923E-02
 0.28330004E+02  0.21190E-02
 0.28380003E+02  0.20826E-02
 0.28430004E+02  0.15209E-02
 0.28480003E+02  0.11969E-02
 0.28530005E+02  0.94258E-03
 0.28580004E+02  0.29129E-03
 0.28630003E+02 -0.38352E-03
 0.28680004E+02 -0.73438E-03
 0.28730003E+02 -0.67221E-03
 0.28780005E+02 -0.87938E-03
 0.28830004E+02 -0.12735E-02
 0.28880003E+02 -0.11601E-02
 0.28930004E+02 -0.12696E-02
 0.28980003E+02 -0.98171E-03
 0.29030005E+02 -0.31587E-03
 0.29080004E+02  0.24855E-03
 0.29130003E+02  0.87455E-03
 0.29180004E+02  0.69708E-03
 0.29230003E+02  0.28215E-03
 0.29280005E+02 -0.30041E-03
 0.29330004E+02 -0.94962E-03
 0.29380003E+02 -0.92979E-03
 0.29430004E+02 -0.53347E-03
 0.29480003E+02  0.13091E-03
 0.29530005E+02  0.46755E-03
 0.29580004E+02  0.40723E-03
 0.29630003E+02  0.40157E-03
 0.29680004E+02  0.34561E-03
 0.29730003E+02  0.82131E-03
 0.29780005E+02  0.13056E-02
 0.29830004E+02  0.99365E-03
 0.29880003E+02  0.51038E-03
 0.29930004E+02 -0.42038E-03
 0.29980003E+02 -0.73390E-03
 0.30030005E+02 -0.63338E-04
 0.30080004E+02  0.25453E-03
 0.30130003E+02  0.33144E-03
 0.30180004E+02 -0.23835E-03
 0.30230003E+02 -0.46765E-03
 0.30280005E+02  0.16752E-03
 0.30330004E+02  0.14282E-03
 0.30380003E+02 -0.23691E-03
 0.30430004E+02 -0.43649E-03
 0.30480003E+02 -0.12603E-02
 0.30530005E+02 -0.18536E-02
 0.30580004E+02 -0.88831E-03
 0.30630003E+02 -0.41162E-03
 0.30680004E+02 -0.58925E-03
 0.30730003E+02  0.13299E-04
 0.30780005E+02  0.74512E-03
 0.30830004E+02  0.14955E-02
 0.30880003E+02  0.15820E-02
 0.30930004E+02  0.12472E-02
 0.30980003E+02  0.10606E-02
 0.31030005E+02  0.62406E-03
 0.31080004E+02 -0.10520E-03
 0.31130003E+02 -0.71041E-03
 0.31180004E+02 -0.44448E-03
 0.31230003E+02 -0.17345E-03
 0.31280005E+02 -0.12305E-03
 0.31330004E+02 -0.23793E-04
 0.31380003E+02 -0.41897E-03
 0.31430004E+02 -0.33783E-03
 0.31480003E+02 -0.11881E-03
 0.31530005E+02 -0.54176E-03
 0.31580004E+02  0.12454E-04
 0.31630003E+02  0.47930E-03
 0.31680004E+02  0.25190E-03
 0.31730003E+02  0.24028E-03
 0.31780005E+02 -0.85773E-04
 0.31830004E+02  0.14572E-03
 0.31880003E+02  0.29876E-03
 0.31930004E+02 -0.11485E-03
 0.31980003E+02 -0.17731E-03
 0.32030003E+02  0.64899E-04
 0.32080006E+02 -0.78558E-04
 0.32130005E+02 -0.46443E-03
 0.32180004E+02 -0.49084E-03
 0.32230003E+02 -0.68446E-03
 0.32280003E+02 -0.68960E-03
 0.32330006E+02 -0.28485E-03
 0.32380005E+02  0.29091E-04
 0.32430004E+02  0.24563E-03
 0.32480003E+02  0.58853E-03
 0.32530003E+02  0.49224E-03
 0.32580006E+02 -0.13781E-04
 0.32630005E+02  0.13588E-03
 0.32680004E+02  0.32268E-03
 0.32730003E+02 -0.23343E-03
 0.32780003E+02 -0.55879E-03
 0.32830006E+02 -0.15178E-03
 0.32880005E+02  0.37060E-03
 0.32930004E+02  0.77987E-03
 0.32980003E+02  0.98568E-03
 0.33030003E+02  0.98334E-03
 0.33080006E+02  0.60235E-03
 0.33130005E+02  0.10402E-03
 0.33180004E+02 -0.40443E-03
 0.33230003E+02 -0.82968E-03
 0.33280003E+02 -0.94072E-03
 0.33330006E+02 -0.10596E-02
 0.33380005E+02 -0.82682E-03
 0.33430004E+02 -0.40397E-03
 0.33480003E+02 -0.24862E-03
 0.33530003E+02 -0.24816E-03
 0.33580006E+02  0.85416E-04
 0.33630005E+02  0.55823E-03
 0.33680004E+02  0.69347E-03
 0.33730003E+02  0.63918E-03
 0.33780003E+02  0.31558E-03
 0.33830006E+02  0.17044E-03
 0.33880005E+02  0.37532E-03
 0.33930004E+02  0.41848E-03
 0.33980003E+02  0.32399E-03
 0.34030003E+02  0.23222E-03
 0.34080006E+02  0.62411E-04
 0.34130005E+02 -0.19237E-03
 0.34180004E+02 -0.37263E-03
 0.34230003E+02 -0.24955E-03
 0.34280003E+02 -0.65453E-04
 0.34330006E+02 -0.10768E-03
 0.34380005E+02 -0.37674E-05
 0.34430004E+02  0.23592E-03
 0.34480003E+02  0.18123E-03
 0.34530003E+02  0.89974E-04
 0.34580006E+02 -0.17530E-03
 0.34630005E+02 -0.61536E-03
 0.34680004E+02 -0.60680E-03
 0.34730003E+02 -0.44775E-03
 0.34780003E+02 -0.32582E-03
 0.34830006E+02 -0.18204E-03
 0.34880005E+02 -0.22832E-03
 0.34930004E+02 -0.23465E-03
 0.34980003E+02  0.91236E-05
 0.35030003E+02  0.31962E-03
 0.35080006E+02  0.44128E-03
 0.35130005E+02  0.31525E-03
 0.35180004E+02  0.10483E-03
 0.35230003E+02 -0.19262E-03
 0.35280003E+02 -0.44148E-03
 0.35330006E+02 -0.15494E-03
 0.35380005E+02  0.17627E-03
 0.35430004E+02  0.30096E-03
 0.35480003E+02  0.62490E-03
 0.35530003E+02  0.59633E-03
 0.35580006E+02  0.71541E-03
 0.35630005E+02  0.87181E-03
 0.35680004E+02  0.42457E-03
 0.35730003E+02  0.26047E-03
 0.35780003E+02  0.13289E-03
 0.35830006E+02 -0.20143E-03
 0.35880005E+02 -0.34804E-03
 0.35930004E+02 -0.52164E-03
 0.35980003E+02 -0.82027E-03
 0.36030003E+02 -0.93122E-03
 0.36080006E+02 -0.87629E-03
 0.36130005E+02 -0.67952E-03
 0.36180004E+02 -0.38381E-03
 0.36230003E+02 -0.24571E-03
 0.36280003E+02  0.22655E-04
 0.36330006E+02  0.27980E-03
 0.36380005E+02  0.33852E-03
 0.36430004E+02  0.49801E-03
 0.36480003E+02  0.54342E-03
 0.36530003E+02  0.35237E-03
 0.36580006E+02  0.12277E-03
 0.36630005E+02 -0.45821E-04
 0.36680004E+02  0.29403E-03
 0.36730003E+02  0.49742E-03
 0.36780003E+02  0.11980E-03
 0.36830006E+02  0.45808E-04
 0.36880005E+02 -0.15479E-03
 0.36930004E+02 -0.54991E-03
 0.36980003E+02 -0.51254E-03
 0.37030003E+02 -0.40455E-03
 0.37080006E+02 -0.30708E-03
 0.37130005E+02  0.19439E-04
 0.37180004E+02  0.18274E-03
 0.37230003E+02  0.71161E-04
 0.37280003E+02  0.12991E-04
 0.37330006E+02  0.11524E-03
 0.37380005E+02  0.26560E-03
 0.37430004E+02  0.30576E-03
 0.37480003E+02  0.46440E-03
 0.37530003E+02  0.53054E-03
 0.37580006E+02  0.50032E-03
 0.37630005E+02  0.31728E-03
 0.37680004E+02 -0.76879E-04
 0.37730003E+02 -0.51193E-04
 0.37780003E+02  0.66149E-04
 0.37830006E+02 -0.13200E-03
 0.37880005E+02 -0.56421E-03
 0.37930004E+02 -0.76311E-03
 0.37980003E+02 -0.67516E-03
 0.38030003E+02 -0.59875E-03
 0.38080006E+02 -0.23593E-03
 0.38130005E+02 -0.21783E-04
 0.38180004E+02  0.15011E-04
 0.38230003E+02  0.17865E-03
 0.38280003E+02  0.33199E-03
 0.38330006E+02  0.49081E-03
 0.38380005E+02  0.46756E-03
 0.38430004E+02  0.27581E-03
 0.38480003E+02  0.86491E-04
 0.38530003E+02 -0.99545E-04
 0.38580006E+02 -0.30312E-03
 0.38630005E+02 -0.18270E-03
 0.38680004E+02 -0.56379E-05
 0.38730003E+02  0.72239E-05
 0.38780003E+02  0.76097E-04
 0.38830006E+02 -0.23693E-04
 0.38880005E+02 -0.12637E-03
 0.38930004E+02 -0.16582E-03
 0.38980003E+02 -0.64355E-04
 0.39030003E+02  0.95187E-04
 0.39080006E+02  0.16705E-03
 0.39130005E+02  0.12213E-03
 0.39180004E+02 -0.74589E-04
 0.39230003E+02 -0.97165E-04
 0.39280003E+02 -0.53638E-04
 0.39330006E+02 -0.80308E-04
 0.39380005E+02 -0.11412E-03
 0.39430004E+02 -0.12073E-03
 0.39480003E+02 -0.10156E-03
 0.39530003E+02  0.86854E-04
 0.39580006E+02  0.41755E-03
 0.39630005E+02  0.55979E-03
 0.39680004E+02  0.53395E-03
 0.39730003E+02  0.38452E-03
 0.39780003E+02  0.55947E-04
 0.39830006E+02 -0.28954E-03
 0.39880005E+02 -0.33355E-03
 0.39930004E+02 -0.22226E-03
 0.39980003E+02 -0.77394E-04
 0.40030003E+02 -0.38920E-04
 0.40080006E+02 -0.14268E-03
 0.40130005E+02 -0.10968E-03
 0.40180004E+02 -0.14994E-03
 0.40230003E+02 -0.19109E-03
 0.40280003E+02 -0.18332E-03
 0.40330006E+02 -0.18470E-03
 0.40380005E+02 -0.75345E-04
 0.40430004E+02  0.30864E-04
 0.40480003E+02  0.16843E-04
 0.40530003E+02 -0.47141E-05
 0.40580006E+02  0.27585E-04
 0.40630005E+02 -0.76199E-04
 0.40680004E+02 -0.12146E-03
 0.40730003E+02 -0.14210E-03
 0.40780003E+02 -0.22603E-03
 0.40830006E+02 -0.11952E-03
 0.40880005E+02  0.13673E-04
 0.40930004E+02  0.13830E-03
 0.40980003E+02  0.20793E-03
 0.41030003E+02  0.25926E-03
 0.41080006E+02  0.47325E-03
 0.41130005E+02  0.54159E-03
 0.41180004E+02  0.48408E-03
 0.41230003E+02  0.43867E-03
 0.41280003E+02  0.34724E-03
 0.41330006E+02  0.26051E-03
 0.41380005E+02  0.52442E-04
 0.41430004E+02 -0.23825E-03
 0.41480003E+02 -0.37529E-03
 0.41530003E+02 -0.35855E-03
 0.41580006E+02 -0.30613E-03
 0.41630005E+02 -0.28952E-03
 0.41680004E+02 -0.35608E-03
 0.41730003E+02 -0.40963E-03
 0.41780003E+02 -0.38197E-03
 0.41830006E+02 -0.22669E-03
 0.41880005E+02 -0.11150E-03
 0.41930004E+02 -0.37080E-04
 0.41980003E+02  0.12397E-03
 0.42030003E+02  0.15333E-03
 0.42080006E+02  0.97583E-04
 0.42130005E+02  0.63086E-05
 0.42180004E+02 -0.29633E-04
 0.42230003E+02 -0.60848E-05
 0.42280003E+02  0.68476E-04
 0.42330006E+02  0.13194E-03
 0.42380005E+02  0.98413E-04
 0.42430004E+02  0.23894E-03
 0.42480003E+02  0.39795E-03
 0.42530003E+02  0.41454E-03
 0.42580006E+02  0.29527E-03
 0.42630005E+02  0.18878E-03
 0.42680004E+02  0.19983E-03
 0.42730003E+02  0.25432E-04
 0.42780003E+02 -0.18098E-03
 0.42830006E+02 -0.29449E-03
 0.42880005E+02 -0.39947E-03
 0.42930004E+02 -0.33272E-03
 0.42980003E+02 -0.32475E-03
 0.43030003E+02 -0.34094E-03
 0.43080006E+02 -0.17789E-03
 0.43130005E+02 -0.48295E-04
 0.43180004E+02  0.90964E-04
 0.43230003E+02  0.18291E-03
 0.43280003E+02  0.20555E-03
 0.43330006E+02  0.12412E-03
 0.43380005E+02 -0.12833E-03
 0.43430004E+02 -0.17136E-03
 0.43480003E+02  0.14797E-04
 0.43530003E+02  0.13726E-03
 0.43580006E+02  0.11883E-03
 0.43630005E+02  0.72575E-04
 0.43680004E+02  0.38291E-04
 0.43730003E+02 -0.55222E-04
 0.43780003E+02 -0.30386E-04
 0.43830006E+02  0.61006E-04
 0.43880005E+02  0.11326E-03
 0.43930004E+02  0.16031E-03
 0.43980003E+02  0.21555E-03
 0.44030003E+02  0.36162E-03
 0.44080006E+02  0.23590E-03
 0.44130005E+02 -0.48801E-04
 0.44180004E+02 -0.10945E-03
 0.44230003E+02 -0.19873E-03
 0.44280003E+02 -0.28780E-03
 0.44330006E+02 -0.30384E-03
 0.44380005E+02 -0.24243E-03
 0.44430004E+02 -0.14136E-03
 0.44480003E+02 -0.75755E-04
 0.44530003E+02  0.43124E-04
 0.44580006E+02  0.14112E-03
 0.44630005E+02  0.15212E-03
 0.44680004E+02  0.54413E-04
 0.44730003E+02  0.79129E-05
 0.44780003E+02 -0.18806E-04
 0.44830006E+02 -0.12334E-03
 0.44880005E+02 -0.15838E-03
 0.44930004E+02 -0.21568E-03
 0.44980003E+02 -0.15004E-03
 0.45030003E+02  0.74564E-04
 0.45080006E+02  0.21751E-03
 0.45130005E+02  0.35970E-03
 0.45180004E+02  0.37602E-03
 0.45230003E+02  0.22353E-03
 0.45280003E+02  0.11730E-03
 0.45330006E+02  0.20888E-04
 0.45380005E+02 -0.45213E-04
 0.45430004E+02 -0.15973E-03
 0.45480003E+02 -0.34142E-03
 0.45530003E+02 -0.36304E-03
 0.45580006E+02 -0.32397E-03
 0.45630005E+02 -0.23541E-03
 0.45680004E+02 -0.30712E-04
 0.45730003E+02  0.12367E-03
 0.45780003E+02  0.18176E-03
 0.45830006E+02  0.12571E-03
 0.45880005E+02  0.11109E-03
 0.45930004E+02  0.10984E-03
 0.45980003E+02  0.57350E-04
 0.46030003E+02  0.16110E-03
 0.46080006E+02  0.19889E-03
 0.46130005E+02  0.14962E-03
 0.46180004E+02  0.42231E-04
 0.46230003E+02 -0.18437E-03
 0.46280003E+02 -0.26736E-03
 0.46330006E+02 -0.24893E-03
 0.46380005E+02 -0.11247E-03
 0.46430004E+02  0.10754E-03
 0.46480003E+02  0.24137E-03
 0.46530003E+02  0.17144E-03
 0.46580006E+02  0.43174E-04
 0.46630005E+02  0.11646E-03
 0.46680004E+02  0.75956E-04
 0.46730003E+02 -0.32813E-04
 0.46780003E+02 -0.76045E-04
 0.46830006E+02 -0.11449E-03
 0.46880005E+02  0.27736E-05
 0.46930004E+02  0.68562E-04
 0.46980003E+02  0.12429E-04
 0.47030003E+02 -0.51984E-04
 0.47080006E+02 -0.11813E-03
 0.47130005E+02 -0.15910E-04
 0.47180004E+02  0.10418E-03
 0.47230003E+02  0.17696E-04
 0.47280003E+02 -0.74496E-04
 0.47330006E+02 -0.43512E-04
 0.47380005E+02 -0.28344E-04
 0.47430004E+02 -0.13108E-03
 0.47480003E+02 -0.13691E-03
 0.47530003E+02 -0.10013E-03
 0.47580006E+02 -0.50433E-04
 0.47630005E+02  0.28684E-04
 0.47680004E+02 -0.12697E-06
 0.47730003E+02  0.88172E-04
 0.47780003E+02  0.14856E-03
 0.47830006E+02  0.10696E-03
 0.47880005E+02  0.34248E-04
 0.47930004E+02 -0.61591E-04
 0.47980003E+02 -0.62056E-04
 0.48030003E+02 -0.58392E-04
 0.48080006E+02 -0.98201E-05
 0.48130005E+02  0.17149E-04
 0.48180004E+02  0.20661E-04
 0.48230003E+02  0.41511E-04
 0.48280003E+02  0.87772E-04
 0.48330006E+02  0.16419E-03
 0.48380005E+02  0.41180E-04
 0.48430004E+02 -0.62830E-04
 0.48480003E+02 -0.44402E-04
 0.48530003E+02 -0.60579E-04
 0.48580006E+02 -0.45507E-04
 0.48630005E+02 -0.55563E-04
 0.48680004E+02 -0.19446E-04
 0.48730003E+02  0.27133E-04
 0.48780003E+02  0.70491E-04
 0.48830006E+02  0.92531E-04
 0.48880005E+02  0.52458E-04
 0.48930004E+02 -0.93360E-05
 0.48980003E+02 -0.93148E-04
 0.49030003E+02 -0.45554E-04
 0.49080006E+02 -0.14830E-04
 0.49130005E+02 -0.41871E-04
 0.49180004E+02 -0.90746E-04
 0.49230003E+02 -0.19654E-03
 0.49280003E+02 -0.17241E-03
 0.49330006E+02 -0.48956E-04
 0.49380005E+02  0.50564E-04
 0.49430004E+02  0.13431E-03
 0.49480003E+02  0.17713E-03
 0.49530003E+02  0.15789E-03
 0.49580006E+02  0.14378E-03
 0.49630005E+02  0.69032E-04
 0.49680004E+02 -0.96761E-05
 0.49730003E+02  0.10169E-04
 0.49780003E+02  0.17014E-04
 0.49830006E+02 -0.43221E-04
 0.49880005E+02 -0.12080E-03
 0.49930004E+02 -0.10475E-03
 0.49980003E+02 -0.41228E-04
 0.50030003E+02 -0.25949E-04
 0.50080006E+02 -0.74708E-05
 0.50130005E+02  0.84317E-04
 0.50180004E+02  0.20280E-03
 0.50230003E+02  0.18401E-03
 0.50280003E+02  0.10096E-03
 0.50330006E+02  0.89322E-04
 0.50380005E+02 -0.11646E-05
 0.50430004E+02 -0.10701E-03
 0.50480003E+02 -0.14607E-03
 0.50530003E+02 -0.18225E-03
 0.50580006E+02 -0.16281E-03
 0.50630005E+02 -0.10885E-03
 0.50680004E+02  0.26375E-04
 0.50730003E+02  0.79824E-04
 0.50780003E+02  0.27711E-04
 0.50830006E+02  0.24621E-04
 0.50880005E+02 -0.22804E-04
 0.50930004E+02 -0.89857E-05
 0.50980003E+02  0.63439E-04
 0.51030003E+02  0.74854E-04
 0.51080006E+02 -0.11411E-04
 0.51130005E+02 -0.78827E-04
 0.51180004E+02  0.75119E-05
 0.51230003E+02  0.69859E-04
 0.51280003E+02  0.82065E-04
 0.51330006E+02  0.28303E-04
 0.51380005E+02 -0.10563E-03
 0.51430004E+02 -0.97727E-04
 0.51480003E+02 -0.60248E-04
 0.51530003E+02 -0.11674E-03
 0.51580006E+02 -0.17011E-03
 0.51630005E+02 -0.17477E-03
 0.51680004E+02 -0.11706E-03
 0.51730003E+02 -0.56818E-04
 0.51780003E+02  0.70089E-04
 0.51830006E+02  0.15587E-03
 0.51880005E+02  0.16413E-03
 0.51930004E+02  0.22238E-03
 0.51980003E+02  0.19241E-03
 0.52030003E+02  0.99084E-04
 0.52080006E+02  0.87351E-04
 0.52130005E+02  0.55421E-04
 0.52180004E+02 -0.19944E-04
 0.52230003E+02 -0.17577E-04
 0.52280003E+02 -0.45446E-04
 0.52330006E+02 -0.89348E-04
 0.52380005E+02 -0.87305E-04
 0.52430004E+02 -0.52541E-04
 0.52480003E+02 -0.45168E-04
 0.52530003E+02 -0.12420E-03
 0.52580006E+02 -0.76359E-04
 0.52630005E+02  0.23960E-04
 0.52680004E+02  0.82407E-05
 0.52730003E+02  0.24117E-05
 0.52780003E+02  0.89460E-04
 0.52830006E+02  0.13247E-03
 0.52880005E+02  0.50395E-04
 0.52930004E+02 -0.72578E-06
 0.52980003E+02  0.25259E-04
 0.53030003E+02  0.20522E-04
 0.53080006E+02 -0.25667E-04
 0.53130005E+02 -0.15933E-04
 0.53180004E+02 -0.50216E-05
 0.53230003E+02 -0.21694E-04
 0.53280003E+02  0.44923E-04
 0.53330006E+02  0.10268E-03
 0.53380005E+02  0.89641E-04
 0.53430004E+02  0.10351E-03
 0.53480003E+02  0.11230E-03
 0.53530003E+02  0.13685E-03
 0.53580006E+02  0.15850E-03
 0.53630005E+02  0.48514E-04
 0.53680004E+02 -0.12499E-03
 0.53730003E+02 -0.27175E-03
 0.53780003E+02 -0.37221E-03
 0.53830006E+02 -0.40380E-03
 0.53880005E+02 -0.32533E-03
 0.53930004E+02 -0.21514E-03
 0.53980003E+02 -0.16579E-03
 0.54030003E+02 -0.77742E-04
 0.54080006E+02  0.44029E-04
 0.54130005E+02  0.12638E-03
 0.54180004E+02  0.15519E-03
 0.54230003E+02  0.17247E-03
 0.54280003E+02  0.22292E-03
 0.54330006E+02  0.20613E-03
 0.54380005E+02  0.16057E-03
 0.54430004E+02  0.14865E-03
 0.54480003E+02  0.91838E-04
 0.54530003E+02  0.63278E-04
 0.54580006E+02  0.69106E-04
 0.54630005E+02  0.27964E-04
 0.54680004E+02 -0.37821E-04
 0.54730003E+02 -0.48951E-04
 0.54780003E+02 -0.15146E-05
 0.54830006E+02  0.42866E-04
 0.54880005E+02  0.81713E-04
 0.54930004E+02  0.80107E-04
 0.54980003E+02  0.50291E-04
 0.55030003E+02  0.24827E-04
 0.55080006E+02  0.19558E-05
 0.55130005E+02 -0.28636E-04
 0.55180004E+02 -0.66244E-04
 0.55230003E+02 -0.75092E-04
 0.55280003E+02 -0.69298E-04
 0.55330006E+02 -0.13722E-03
 0.55380005E+02 -0.26339E-03
 0.55430004E+02 -0.32198E-03
 0.55480003E+02 -0.32828E-03
 0.55530003E+02 -0.26472E-03
 0.55580006E+02 -0.97127E-04
 0.55630005E+02  0.43781E-04
 0.55680004E+02  0.13355E-03
 0.55730003E+02  0.22926E-03
 0.55780003E+02  0.24661E-03
 0.55830006E+02  0.22761E-03
 0.55880005E+02  0.24855E-03
 0.55930004E+02  0.19804E-03
 0.55980003E+02  0.14264E-03
 0.56030003E+02  0.11205E-03
 0.56080006E+02  0.30490E-04
 0.56130005E+02 -0.22100E-04
 0.56180004E+02 -0.67784E-04
 0.56230003E+02 -0.12572E-03
 0.56280003E+02 -0.16475E-03
 0.56330006E+02 -0.17068E-03
 0.56380005E+02 -0.11543E-03
 0.56430004E+02 -0.46962E-04
 0.56480003E+02  0.74157E-05
 0.56530003E+02  0.72363E-04
 0.56580006E+02  0.14051E-03
 0.56630005E+02  0.14027E-03
 0.56680004E+02  0.95683E-04
 0.56730003E+02  0.39487E-04
 0.56780003E+02 -0.37020E-05
 0.56830006E+02 -0.28191E-04
 0.56880005E+02 -0.12671E-03
 0.56930004E+02 -0.18786E-03
 0.56980003E+02 -0.19651E-03
 0.57030003E+02 -0.22932E-03
 0.57080006E+02 -0.19732E-03
 0.57130005E+02 -0.96181E-04
 0.57180004E+02  0.49945E-04
 0.57230003E+02  0.19404E-03
 0.57280003E+02  0.29380E-03
 0.57330006E+02  0.31037E-03
 0.57380005E+02  0.24905E-03
 0.57430004E+02  0.17742E-03
 0.57480003E+02  0.82658E-04
 0.57530003E+02 -0.32080E-04
 0.57580006E+02 -0.13650E-03
 0.57630005E+02 -0.18163E-03
 0.57680004E+02 -0.16675E-03
 0.57730003E+02 -0.16640E-03
 0.57780003E+02 -0.15630E-03
 0.57830006E+02 -0.84386E-04
 0.57880005E+02 -0.19401E-04
 0.57930004E+02  0.20386E-05
 0.57980003E+02  0.64348E-04
 0.58030003E+02  0.15940E-03
 0.58080006E+02  0.17695E-03
 0.58130005E+02  0.12664E-03
 0.58180004E+02  0.73044E-04
 0.58230003E+02  0.51769E-05
 0.58280003E+02 -0.84624E-04
 0.58330006E+02 -0.17630E-03
 0.58380005E+02 -0.21808E-03
 0.58430004E+02 -0.17381E-03
 0.58480003E+02 -0.96567E-04
 0.58530003E+02 -0.15131E-04
 0.58580006E+02  0.85848E-04
 0.58630005E+02  0.15730E-03
 0.58680004E+02  0.15668E-03
 0.58730003E+02  0.13703E-03
 0.58780003E+02  0.11591E-03
 0.58830006E+02  0.42494E-04
 0.58880005E+02  0.12107E-04
 0.58930004E+02  0.25261E-04
 0.58980003E+02 -0.13438E-04
 0.59030003E+02 -0.29791E-04
 0.59080006E+02 -0.54258E-04
 0.59130005E+02 -0.95787E-04
 0.59180004E+02 -0.82845E-04
 0.59230003E+02 -0.49060E-04
 0.59280003E+02 -0.69987E-05
 0.59330006E+02  0.55582E-04
 0.59380005E+02  0.64123E-04
 0.59430004E+02  0.12365E-04
 0.59480003E+02  0.15561E-04
 0.59530003E+02 -0.66653E-05
 0.59580006E+02 -0.55504E-04
 0.59630005E+02 -0.35096E-04
 0.59680004E+02 -0.21464E-04
 0.59730003E+02  0.32564E-04
 0.59780003E+02  0.63720E-04
 0.59830006E+02  0.10894E-04
 0.59880005E+02 -0.57741E-04
 0.59930004E+02 -0.11501E-03
 0.59980003E+02 -0.83424E-04
 0.60030003E+02 -0.30031E-04
 0.60080006E+02 -0.52226E-05
 0.60130005E+02  0.14728E-04
 0.60180004E+02  0.47068E-04
 0.60230003E+02  0.71303E-04
 0.60280003E+02  0.84334E-04
 0.60330006E+02  0.72148E-04
 0.60380005E+02  0.31921E-04
 0.60430004E+02  0.44697E-04
 0.60480003E+02  0.34925E-04
 0.60530003E+02  0.74283E-06
 0.60580006E+02 -0.44986E-04
 0.60630005E+02 -0.10649E-03
 0.60680004E+02 -0.61526E-04
 0.60730003E+02  0.42326E-04
 0.60780003E+02  0.77841E-04
 0.60830006E+02  0.58173E-04
 0.60880005E+02  0.30923E-04
 0.60930004E+02  0.18873E-04
 0.60980003E+02  0.31394E-04
 0.61030003E+02  0.31776E-04
 0.61080006E+02  0.17431E-04
 0.61130005E+02 -0.39974E-05
 0.61180004E+02 -0.33700E-04
 0.61230003E+02 -0.33681E-04
 0.61280003E+02  0.32662E-05
 0.61330006E+02  0.13851E-04
 0.61380005E+02 -0.18847E-04
 0.61430004E+02 -0.48598E-04
 0.61480003E+02 -0.78242E-04
 0.61530003E+02 -0.11069E-03
 0.61580006E+02 -0.14069E-03
 0.61630005E+02 -0.17869E-03
 0.61680004E+02 -0.19019E-03
 0.61730003E+02 -0.13977E-03
 0.61780003E+02 -0.75272E-04
 0.61830006E+02  0.90067E-06
 0.61880005E+02  0.10529E-03
 0.61930004E+02  0.19275E-03
 0.61980003E+02  0.25251E-03
 0.62030003E+02  0.28399E-03
 0.62080006E+02  0.28836E-03
 0.62130005E+02  0.23285E-03
 0.62180004E+02  0.13473E-03
 0.62230003E+02  0.45742E-04
 0.62280003E+02 -0.44534E-04
 0.62330006E+02 -0.12148E-03
 0.62380005E+02 -0.16445E-03
 0.62430004E+02 -0.17549E-03
 0.62480003E+02 -0.20664E-03
 0.62530003E+02 -0.21933E-03
 0.62580006E+02 -0.17428E-03
 0.62630005E+02 -0.14261E-03
 0.62680004E+02 -0.98526E-04
 0.62730003E+02 -0.35370E-04
 0.62780003E+02  0.18251E-04
 0.62830006E+02  0.62855E-04
 0.62880005E+02  0.10102E-03
 0.62930004E+02  0.13742E-03
 0.62980003E+02  0.16422E-03
 0.63030003E+02  0.18330E-03
 0.63080006E+02  0.17692E-03
 0.63130005E+02  0.13441E-03
 0.63180004E+02  0.67169E-04
 0.63230003E+02  0.10253E-04
 0.63280003E+02 -0.22039E-04
 0.63330006E+02 -0.37247E-04
 0.63380005E+02 -0.67324E-04
 0.63430004E+02 -0.12012E-03
 0.63480003E+02 -0.11921E-03
 0.63530003E+02 -0.90915E-04
 0.63580006E+02 -0.62682E-04
 0.63630005E+02 -0.17004E-04
 0.63680004E+02 -0.19011E-05
 0.63730003E+02 -0.17558E-05
 0.63780003E+02  0.22310E-07
 0.63830006E+02  0.95809E-05
 0.63880005E+02  0.40550E-04
 0.63930004E+02  0.69905E-04
 0.63980003E+02  0.67816E-04
 0.64030006E+02  0.47214E-04
 0.64080002E+02  0.27466E-04
 0.64130005E+02  0.84131E-05
 0.64180008E+02  0.17327E-04
 0.64230003E+02  0.16145E-04
 0.64280006E+02 -0.50066E-05
 0.64330002E+02 -0.23649E-04
 0.64380005E+02 -0.29085E-04
 0.64430008E+02 -0.17453E-04
 0.64480003E+02 -0.24959E-04
 0.64530006E+02 -0.36468E-04
 0.64580002E+02 -0.53733E-04
 0.64630005E+02 -0.68902E-04
 0.64680008E+02 -0.51273E-04
 0.64730003E+02 -0.18338E-04
 0.64780006E+02 -0.10198E-04
 0.64830002E+02 -0.19977E-04
 0.64880005E+02 -0.33444E-04
 0.64930008E+02 -0.36177E-04
 0.64980003E+02  0.71085E-05
 0.65030006E+02  0.70988E-04
 0.65080002E+02  0.12289E-03
 0.65130005E+02  0.10997E-03
 0.65180008E+02  0.58611E-04
 0.65230003E+02  0.21553E-04
 0.65280006E+02 -0.20017E-04
 0.65330002E+02 -0.74752E-04
 0.65380005E+02 -0.13008E-03
 0.65430008E+02 -0.13989E-03
 0.65480003E+02 -0.12765E-03
 0.65530006E+02 -0.94318E-04
 0.65580002E+02 -0.30817E-04
 0.65630005E+02  0.52056E-04
 0.65680008E+02  0.13300E-03
 0.65730003E+02  0.16008E-03
 0.65780006E+02  0.16484E-03
 0.65830002E+02  0.11878E-03
 0.65880005E+02  0.41975E-04
 0.65930008E+02  0.17311E-04
 0.65980003E+02  0.24910E-05
 0.66030006E+02 -0.36044E-04
 0.66080002E+02 -0.63890E-04
 0.66130005E+02 -0.47810E-04
 0.66180008E+02 -0.36133E-04
 0.66230003E+02 -0.42522E-04
 0.66280006E+02 -0.25669E-04
 0.66330002E+02 -0.11556E-04
 0.66380005E+02 -0.17320E-04
 0.66430008E+02  0.15712E-04
 0.66480003E+02  0.82529E-04
 0.66530006E+02  0.90447E-04
 0.66580002E+02  0.57478E-04
 0.66630005E+02  0.42367E-04
 0.66680008E+02  0.39963E-04
 0.66730003E+02  0.12163E-04
 0.66780006E+02 -0.50110E-04
 0.66830002E+02 -0.96237E-04
 0.66880005E+02 -0.11910E-03
 0.66930008E+02 -0.11133E-03
 0.66980003E+02 -0.80945E-04
 0.67030006E+02 -0.50141E-04
 0.67080002E+02 -0.71408E-05
 0.67130005E+02  0.38743E-04
 0.67180008E+02  0.84162E-04
 0.67230003E+02  0.98026E-04
 0.67280006E+02  0.65228E-04
 0.67330002E+02  0.13867E-04
 0.67380005E+02 -0.22150E-04
 0.67430008E+02 -0.32235E-04
 0.67480003E+02 -0.46239E-04
 0.67530006E+02 -0.65400E-04
 0.67580002E+02 -0.55755E-04
 0.67630005E+02 -0.64449E-05
 0.67680008E+02  0.40981E-04
 0.67730003E+02  0.55458E-04
 0.67780006E+02  0.41662E-04
 0.67830002E+02  0.16380E-05
 0.67880005E+02 -0.52148E-04
 0.67930008E+02 -0.67055E-04
 0.67980003E+02 -0.47867E-04
 0.68030006E+02 -0.38204E-04
 0.68080002E+02 -0.14587E-04
 0.68130005E+02  0.23067E-04
 0.68180008E+02  0.38886E-04
 0.68230003E+02  0.35148E-04
 0.68280006E+02  0.34329E-04
 0.68330002E+02  0.24550E-04
 0.68380005E+02  0.18854E-04
 0.68430008E+02  0.29510E-04
 0.68480003E+02  0.41592E-04
 0.68530006E+02  0.51291E-04
 0.68580002E+02  0.69500E-04
 0.68630005E+02  0.91813E-04
 0.68680008E+02  0.68241E-04
 0.68730003E+02  0.33044E-04
 0.68780006E+02  0.62469E-05
 0.68830002E+02 -0.14580E-04
 0.68880005E+02 -0.36689E-04
 0.68930008E+02 -0.72492E-04
 0.68980003E+02 -0.79601E-04
 0.69030006E+02 -0.83727E-04
 0.69080002E+02 -0.71438E-04
 0.69130005E+02 -0.29946E-04
 0.69180008E+02  0.23745E-05
 0.69230003E+02  0.94090E-05
 0.69280006E+02 -0.71308E-05
 0.69330002E+02 -0.12443E-04
 0.69380005E+02 -0.34762E-06
 0.69430008E+02  0.65274E-05
 0.69480003E+02 -0.29004E-05
 0.69530006E+02 -0.12140E-04
 0.69580002E+02 -0.73258E-05
 0.69630005E+02  0.46644E-05
 0.69680008E+02  0.85297E-06
 0.69730003E+02 -0.44263E-05
 0.69780006E+02  0.27401E-04
 0.69830002E+02  0.36015E-04
 0.69880005E+02  0.69870E-05
 0.69930008E+02 -0.31924E-05
 0.69980003E+02 -0.18835E-05
 0.70030006E+02  0.66249E-05
 0.70080002E+02 -0.53286E-06
 0.70130005E+02 -0.13803E-05
 0.70180008E+02  0.21758E-04
 0.70230003E+02  0.36310E-04
 0.70280006E+02  0.44100E-04
 0.70330002E+02  0.31042E-04
 0.70380005E+02  0.14074E-04
 0.70430008E+02 -0.13421E-04
 0.70480003E+02 -0.29994E-04
 0.70530006E+02 -0.26703E-04
 0.70580002E+02 -0.44731E-04
 0.70630005E+02 -0.47097E-04
 0.70680008E+02 -0.42983E-04
 0.70730003E+02 -0.37475E-04
 0.70780006E+02 -0.38542E-04
 0.70830002E+02 -0.22487E-04
 0.70880005E+02  0.19415E-04
 0.70930008E+02  0.28346E-04
 0.70980003E+02  0.40033E-04
 0.71030006E+02  0.47873E-04
 0.71080002E+02  0.54402E-04
 0.71130005E+02  0.55499E-04
 0.71180008E+02  0.27007E-04
 0.71230003E+02  0.11991E-04
 0.71280006E+02  0.13389E-04
 0.71330002E+02  0.11390E-04
 0.71380005E+02 -0.96099E-05
 0.71430008E+02 -0.38107E-04
 0.71480003E+02 -0.55312E-04
 0.71530006E+02 -0.34312E-04
 0.71580002E+02  0.10113E-04
 0.71630005E+02  0.11953E-04
 0.71680008E+02 -0.16924E-04
 0.71730003E+02 -0.34087E-04
 0.71780006E+02 -0.36002E-04
 0.71830002E+02 -0.32143E-04
 0.71880005E+02 -0.20390E-04
 0.71930008E+02 -0.12555E-05
 0.71980003E+02  0.10966E-04
 0.72030006E+02  0.16032E-04
 0.72080002E+02  0.18394E-04
 0.72130005E+02  0.34894E-05
 0.72180008E+02 -0.22015E-04
 0.72230003E+02 -0.23785E-04
 0.72280006E+02 -0.92508E-05
 0.72330002E+02  0.31268E-05
 0.72380005E+02  0.71707E-05
 0.72430008E+02 -0.24459E-05
 0.72480003E+02 -0.10216E-04
 0.72530006E+02 -0.40936E-05
 0.72580002E+02  0.27955E-04
 0.72630005E+02  0.55895E-04
 0.72680008E+02  0.58971E-04
 0.72730003E+02  0.53435E-04
 0.72780006E+02  0.33072E-04
 0.72830002E+02  0.12482E-04
 0.72880005E+02 -0.14913E-04
 0.72930008E+02 -0.36946E-04
 0.72980003E+02 -0.45494E-04
 0.73030006E+02 -0.58369E-04
 0.73080002E+02 -0.49174E-04
 0.73130005E+02 -0.17410E-04
 0.73180008E+02  0.23565E-04
 0.73230003E+02  0.66133E-04
 0.73280006E+02  0.85464E-04
 0.73330002E+02  0.80543E-04
 0.73380005E+02  0.69759E-04
 0.73430008E+02  0.50920E-04
 0.73480003E+02  0.19064E-04
 0.73530006E+02 -0.22119E-04
 0.73580002E+02 -0.62654E-04
 0.73630005E+02 -0.93525E-04
 0.73680008E+02 -0.98098E-04
 0.73730003E+02 -0.67432E-04
 0.73780006E+02 -0.21404E-04
 0.73830002E+02  0.17714E-05
 0.73880005E+02 -0.14465E-04
 0.73930008E+02 -0.23679E-04
 0.73980003E+02 -0.25910E-05
 0.74030006E+02  0.49258E-05
 0.74080002E+02 -0.19650E-04
 0.74130005E+02 -0.54176E-04
 0.74180008E+02 -0.76552E-04
 0.74230003E+02 -0.52471E-04
 0.74280006E+02  0.82646E-05
 0.74330002E+02  0.60608E-04
 0.74380005E+02  0.87854E-04
 0.74430008E+02  0.91467E-04
 0.74480003E+02  0.93418E-04
 0.74530006E+02  0.95614E-04
 0.74580002E+02  0.82750E-04
 0.74630005E+02  0.62399E-04
 0.74680008E+02  0.34067E-04
 0.74730003E+02 -0.30143E-05
 0.74780006E+02 -0.42881E-04
 0.74830002E+02 -0.80033E-04
 0.74880005E+02 -0.91116E-04
 0.74930008E+02 -0.74807E-04
 0.74980003E+02 -0.47686E-04
 0.75030006E+02 -0.34571E-04
 0.75080002E+02 -0.34717E-04
 0.75130005E+02 -0.19398E-04
 0.75180008E+02 -0.24321E-05
 0.75230003E+02  0.30408E-05
 0.75280006E+02  0.11277E-05
 0.75330002E+02  0.21284E-05
 0.75380005E+02  0.19726E-04
 0.75430008E+02  0.39219E-04
 0.75480003E+02  0.37728E-04
 0.75530006E+02  0.21637E-04
 0.75580002E+02 -0.26059E-05
 0.75630005E+02 -0.23968E-04
 0.75680008E+02 -0.21457E-04
 0.75730003E+02 -0.14943E-04
 0.75780006E+02  0.19353E-05
 0.75830002E+02  0.31825E-04
 0.75880005E+02  0.43248E-04
 0.75930008E+02  0.41892E-04
 0.75980003E+02  0.39871E-04
 0.76030006E+02  0.30221E-04
 0.76080002E+02  0.21359E-05
 0.76130005E+02 -0.11856E-04
 0.76180008E+02 -0.29245E-05
 0.76230003E+02  0.36956E-05
 0.76280006E+02 -0.25042E-05
 0.76330002E+02 -0.29913E-05
 0.76380005E+02  0.18459E-04
 0.76430008E+02  0.19344E-04
 0.76480003E+02  0.12168E-04
 0.76530006E+02  0.71837E-05
 0.76580002E+02 -0.83748E-05
 0.76630005E+02 -0.18017E-04
 0.76680008E+02 -0.36968E-04
 0.76730003E+02 -0.51490E-04
 0.76780006E+02 -0.58366E-04
 0.76830002E+02 -0.65378E-04
 0.76880005E+02 -0.46675E-04
 0.76930008E+02 -0.27452E-04
 0.76980003E+02 -0.37080E-04
 0.77030006E+02 -0.58139E-04
 0.77080002E+02 -0.69751E-04
 0.77130005E+02 -0.55381E-04
 0.77180008E+02 -0.13559E-04
 0.77230003E+02  0.33734E-04
 0.77280006E+02  0.67765E-04
 0.77330002E+02  0.88573E-04
 0.77380005E+02  0.84220E-04
 0.77430008E+02  0.52772E-04
 0.77480003E+02  0.31228E-04
 0.77530006E+02  0.38668E-04
 0.77580002E+02  0.46036E-04
 0.77630005E+02  0.35882E-04
 0.77680008E+02  0.31070E-04
 0.77730003E+02  0.30464E-04
 0.77780006E+02  0.20083E-04
 0.77830002E+02  0.22780E-04
 0.77880005E+02  0.37219E-04
 0.77930008E+02  0.27503E-04
 0.77980003E+02 -0.63751E-05
 0.78030006E+02 -0.40454E-04
 0.78080002E+02 -0.74946E-04
 0.78130005E+02 -0.11011E-03
 0.78180008E+02 -0.11342E-03
 0.78230003E+02 -0.83292E-04
 0.78280006E+02 -0.52142E-04
 0.78330002E+02 -0.19199E-04
 0.78380005E+02  0.16481E-04
 0.78430008E+02  0.42988E-04
 0.78480003E+02  0.60653E-04
 0.78530006E+02  0.68747E-04
 0.78580002E+02  0.56221E-04
 0.78630005E+02  0.35801E-04
 0.78680008E+02  0.26243E-04
 0.78730003E+02  0.16179E-04
 0.78780006E+02  0.58987E-05
 0.78830002E+02 -0.78362E-05
 0.78880005E+02 -0.20456E-04
 0.78930008E+02 -0.23704E-04
 0.78980003E+02 -0.29152E-04
 0.79030006E+02 -0.29686E-04
 0.79080002E+02 -0.18104E-04
 0.79130005E+02  0.12579E-04
 0.79180008E+02  0.40970E-04
 0.79230003E+02  0.26657E-04
 0.79280006E+02  0.61214E-06
 0.79330002E+02  0.71647E-05
 0.79380005E+02  0.45406E-05
 0.79430008E+02 -0.22616E-04
 0.79480003E+02 -0.22946E-04
 0.79530006E+02 -0.13122E-04
 0.79580002E+02 -0.12879E-04
 0.79630005E+02 -0.17410E-04
 0.79680008E+02 -0.34236E-04
 0.79730003E+02 -0.34847E-04
 0.79780006E+02 -0.24226E-04
 0.79830002E+02 -0.53172E-05
 0.79880005E+02  0.26085E-04
 0.79930008E+02  0.43420E-04
 0.79980003E+02  0.53695E-04
 0.80030006E+02  0.40758E-04
 0.80080002E+02  0.81902E-05
 0.80130005E+02 -0.14073E-04
 0.80180008E+02 -0.21858E-04
 0.80230003E+02 -0.11229E-04
 0.80280006E+02  0.35168E-06
 0.80330002E+02  0.20015E-04
 0.80380005E+02  0.32476E-04
 0.80430008E+02  0.26453E-05
 0.80480003E+02 -0.32297E-04
 0.80530006E+02 -0.42574E-04
 0.80580002E+02 -0.41913E-04
 0.80630005E+02 -0.39407E-04
 0.80680008E+02 -0.36341E-04
 0.80730003E+02 -0.18412E-04
 0.80780006E+02  0.89460E-05
 0.80830002E+02  0.22871E-04
 0.80880005E+02  0.31468E-04
 0.80930008E+02  0.29266E-04
 0.80980003E+02  0.16132E-04
 0.81030006E+02  0.69174E-05
 0.81080002E+02 -0.59536E-07
 0.81130005E+02 -0.13177E-05
 0.81180008E+02  0.31764E-05
 0.81230003E+02  0.23984E-04
 0.81280006E+02  0.35825E-04
 0.81330002E+02  0.18077E-04
 0.81380005E+02  0.16080E-04
 0.81430008E+02  0.16125E-04
 0.81480003E+02  0.39521E-05
 0.81530006E+02 -0.10375E-04
 0.81580002E+02 -0.31693E-04
 0.81630005E+02 -0.29435E-04
 0.81680008E+02 -0.50816E-05
 0.81730003E+02  0.23084E-04
 0.81780006E+02  0.37097E-04
 0.81830002E+02  0.37986E-04
 0.81880005E+02  0.36445E-04
 0.81930008E+02  0.25091E-04
 0.81980003E+02  0.18653E-04
 0.82030006E+02 -0.95543E-06
 0.82080002E+02 -0.29607E-04
 0.82130005E+02 -0.40470E-04
 0.82180008E+02 -0.54793E-04
 0.82230003E+02 -0.68454E-04
 0.82280006E+02 -0.60038E-04
 0.82330002E+02 -0.33292E-04
 0.82380005E+02 -0.13724E-04
 0.82430008E+02 -0.93848E-05
 0.82480003E+02 -0.12400E-04
 0.82530006E+02 -0.23532E-05
 0.82580002E+02  0.32521E-04
 0.82630005E+02  0.55058E-04
 0.82680008E+02  0.61529E-04
 0.82730003E+02  0.49438E-04
 0.82780006E+02  0.19442E-04
 0.82830002E+02  0.82139E-05
 0.82880005E+02  0.16916E-04
 0.82930008E+02  0.13597E-04
 0.82980003E+02 -0.13381E-04
 0.83030006E+02 -0.42662E-04
 0.83080002E+02 -0.65946E-04
 0.83130005E+02 -0.70883E-04
 0.83180008E+02 -0.59113E-04
 0.83230003E+02 -0.38067E-04
 0.83280006E+02 -0.17232E-04
 0.83330002E+02  0.54422E-06
 0.83380005E+02  0.29191E-04
 0.83430008E+02  0.58548E-04
 0.83480003E+02  0.81560E-04
 0.83530006E+02  0.81235E-04
 0.83580002E+02  0.62297E-04
 0.83630005E+02  0.29409E-04
 0.83680008E+02 -0.13218E-04
 0.83730003E+02 -0.34014E-04
 0.83780006E+02 -0.40232E-04
 0.83830002E+02 -0.44614E-04
 0.83880005E+02 -0.35960E-04
 0.83930008E+02 -0.20242E-04
 0.83980003E+02 -0.13122E-04
 0.84030006E+02 -0.10795E-04
 0.84080002E+02 -0.10184E-04
 0.84130005E+02  0.22495E-05
 0.84180008E+02  0.31936E-04
 0.84230003E+02  0.53730E-04
 0.84280006E+02  0.66355E-04
 0.84330002E+02  0.64100E-04
 0.84380005E+02  0.34413E-04
 0.84430008E+02 -0.45512E-05
 0.84480003E+02 -0.37824E-04
 0.84530006E+02 -0.37019E-04
 0.84580002E+02 -0.12711E-04
 0.84630005E+02 -0.83002E-05
 0.84680008E+02 -0.12871E-04
 0.84730003E+02 -0.18916E-04
 0.84780006E+02 -0.17684E-04
 0.84830002E+02 -0.68376E-05
 0.84880005E+02 -0.91848E-05
 0.84930008E+02 -0.22461E-04
 0.84980003E+02 -0.21585E-04
 0.85030006E+02 -0.67180E-05
 0.85080002E+02 -0.18878E-05
 0.85130005E+02 -0.75653E-06
 0.85180008E+02 -0.80767E-05
 0.85230003E+02 -0.21287E-04
 0.85280006E+02 -0.27096E-04
 0.85330002E+02 -0.24162E-04
 0.85380005E+02  0.18709E-05
 0.85430008E+02  0.30720E-04
 0.85480003E+02  0.47914E-04
 0.85530006E+02  0.41175E-04
 0.85580002E+02  0.69910E-05
 0.85630005E+02 -0.12639E-04
 0.85680008E+02 -0.11970E-04
 0.85730003E+02 -0.43699E-05
 0.85780006E+02  0.21363E-05
 0.85830002E+02 -0.37708E-05
 0.85880005E+02  0.20222E-05
 0.85930008E+02  0.23847E-04
 0.85980003E+02  0.29053E-04
 0.86030006E+02  0.16341E-04
 0.86080002E+02  0.43998E-05
 0.86130005E+02 -0.37546E-05
 0.86180008E+02 -0.15880E-04
 0.86230003E+02 -0.21508E-04
 0.86280006E+02 -0.24510E-04
 0.86330002E+02 -0.24205E-04
 0.86380005E+02 -0.39582E-05
 0.86430008E+02  0.11694E-04
 0.86480003E+02  0.42775E-05
 0.86530006E+02 -0.23143E-04
 0.86580002E+02 -0.32445E-04
 0.86630005E+02  0.19173E-05
 0.86680008E+02  0.31108E-04
 0.86730003E+02  0.40523E-04
 0.86780006E+02  0.41719E-04
 0.86830002E+02  0.18707E-04
 0.86880005E+02 -0.10070E-04
 0.86930008E+02 -0.17931E-04
 0.86980003E+02 -0.77093E-05
 0.87030006E+02  0.11824E-05
 0.87080002E+02 -0.90107E-05
 0.87130005E+02 -0.23984E-04
 0.87180008E+02 -0.18767E-04
 0.87230003E+02  0.54483E-06
 0.87280006E+02  0.12626E-04
 0.87330002E+02  0.76462E-05
 0.87380005E+02 -0.10120E-04
 0.87430008E+02 -0.14681E-04
 0.87480003E+02 -0.73773E-05
 0.87530006E+02 -0.14951E-05
 0.87580002E+02  0.28385E-05
 0.87630005E+02  0.96162E-05
 0.87680008E+02  0.26574E-04
 0.87730003E+02  0.25958E-04
 0.87780006E+02  0.13717E-04
 0.87830002E+02  0.77519E-05
 0.87880005E+02  0.74654E-05
 0.87930008E+02  0.20684E-04
 0.87980003E+02  0.23892E-04
 0.88030006E+02  0.15622E-04
 0.88080002E+02  0.63438E-05
 0.88130005E+02 -0.96681E-05
 0.88180008E+02 -0.19865E-04
 0.88230003E+02 -0.24505E-04
 0.88280006E+02 -0.34696E-04
 0.88330002E+02 -0.39774E-04
 0.88380005E+02 -0.37304E-04
 0.88430008E+02 -0.23644E-04
 0.88480003E+02 -0.12389E-05
 0.88530006E+02  0.93415E-05
 0.88580002E+02  0.10945E-04
 0.88630005E+02 -0.15747E-05
 0.88680008E+02 -0.13239E-04
 0.88730003E+02  0.51041E-06
 0.88780006E+02  0.19218E-04
 0.88830002E+02  0.35120E-04
 0.88880005E+02  0.45661E-04
 0.88930008E+02  0.35880E-04
 0.88980003E+02  0.13785E-04
 0.89030006E+02 -0.18221E-05
 0.89080002E+02  0.54534E-05
 0.89130005E+02  0.28060E-04
 0.89180008E+02  0.34373E-04
 0.89230003E+02  0.17603E-04
 0.89280006E+02 -0.15149E-04
 0.89330002E+02 -0.45124E-04
 0.89380005E+02 -0.53967E-04
 0.89430008E+02 -0.44344E-04
 0.89480003E+02 -0.24266E-04
 0.89530006E+02 -0.77888E-05
 0.89580002E+02  0.48321E-05
 0.89630005E+02  0.18093E-04
 0.89680008E+02  0.16133E-04
 0.89730003E+02  0.28315E-05
 0.89780006E+02 -0.32497E-05
 0.89830002E+02 -0.15014E-04
 0.89880005E+02 -0.31473E-04
 0.89930008E+02 -0.37176E-04
 0.89980003E+02 -0.26864E-04
 0.90030006E+02 -0.10271E-04
 0.90080002E+02 -0.14839E-05
 0.90130005E+02  0.38249E-05
 0.90180008E+02  0.29240E-05
 0.90230003E+02  0.15269E-05
 0.90280006E+02  0.46562E-05
 0.90330002E+02  0.91109E-05
 0.90380005E+02  0.20943E-04
 0.90430008E+02  0.36925E-04
 0.90480003E+02  0.38767E-04
 0.90530006E+02  0.26352E-04
 0.90580002E+02  0.16069E-04
 0.90630005E+02  0.94011E-05
 0.90680008E+02  0.73351E-05
 0.90730003E+02  0.35724E-05
 0.90780006E+02 -0.12689E-05
 0.90830002E+02 -0.26547E-05
 0.90880005E+02 -0.11635E-04
 0.90930008E+02 -0.20559E-04
 0.90980003E+02 -0.23042E-04
 0.91030006E+02 -0.18867E-04
 0.91080002E+02 -0.97942E-05
 0.91130005E+02 -0.75814E-05
 0.91180008E+02 -0.87457E-05
 0.91230003E+02 -0.15244E-04
 0.91280006E+02 -0.25993E-04
 0.91330002E+02 -0.31210E-04
 0.91380005E+02 -0.26896E-04
 0.91430008E+02 -0.73170E-05
 0.91480003E+02  0.14085E-04
 0.91530006E+02  0.22018E-04
 0.91580002E+02  0.23946E-04
 0.91630005E+02  0.28307E-04
 0.91680008E+02  0.33930E-04
 0.91730003E+02  0.43163E-04
 0.91780006E+02  0.42314E-04
 0.91830002E+02  0.28523E-04
 0.91880005E+02  0.24550E-04
 0.91930008E+02  0.23728E-04
 0.91980003E+02  0.14101E-04
 0.92030006E+02 -0.63253E-05
 0.92080002E+02 -0.29701E-04
 0.92130005E+02 -0.47907E-04
 0.92180008E+02 -0.59289E-04
 0.92230003E+02 -0.51473E-04
 0.92280006E+02 -0.24345E-04
 0.92330002E+02  0.84943E-05
 0.92380005E+02  0.33962E-04
 0.92430008E+02  0.47070E-04
 0.92480003E+02  0.42427E-04
 0.92530006E+02  0.27850E-04
 0.92580002E+02  0.73471E-05
 0.92630005E+02 -0.22515E-04
 0.92680008E+02 -0.37661E-04
 0.92730003E+02 -0.42576E-04
 0.92780006E+02 -0.51027E-04
 0.92830002E+02 -0.47866E-04
 0.92880005E+02 -0.32401E-04
 0.92930008E+02 -0.63064E-05
 0.92980003E+02  0.21924E-04
 0.93030006E+02  0.37796E-04
 0.93080002E+02  0.44476E-04
 0.93130005E+02  0.42351E-04
 0.93180008E+02  0.29379E-04
 0.93230003E+02  0.12092E-04
 0.93280006E+02 -0.87346E-05
 0.93330002E+02 -0.25322E-04
 0.93380005E+02 -0.26855E-04
 0.93430008E+02 -0.26472E-04
 0.93480003E+02 -0.24683E-04
 0.93530006E+02 -0.69629E-05
 0.93580002E+02  0.16225E-04
 0.93630005E+02  0.29945E-04
 0.93680008E+02  0.35265E-04
 0.93730003E+02  0.33050E-04
 0.93780006E+02  0.25670E-04
 0.93830002E+02  0.17704E-04
 0.93880005E+02  0.10541E-04
 0.93930008E+02  0.29965E-05
 0.93980003E+02 -0.95629E-05
 0.94030006E+02 -0.23582E-04
 0.94080002E+02 -0.26047E-04
 0.94130005E+02 -0.19743E-04
 0.94180008E+02 -0.11919E-04
 0.94230003E+02  0.11587E-05
 0.94280006E+02  0.67100E-05
 0.94330002E+02 -0.48121E-06
 0.94380005E+02 -0.15263E-04
 0.94430008E+02 -0.25384E-04
 0.94480003E+02 -0.20379E-04
 0.94530006E+02 -0.17280E-04
 0.94580002E+02 -0.19912E-04
 0.94630005E+02 -0.15231E-04
 0.94680008E+02  0.77971E-06
 0.94730003E+02  0.26440E-04
 0.94780006E+02  0.50127E-04
 0.94830002E+02  0.51825E-04
 0.94880005E+02  0.33340E-04
 0.94930008E+02  0.93569E-05
 0.94980003E+02 -0.62323E-05
 0.95030006E+02 -0.12196E-04
 0.95080002E+02 -0.19686E-04
 0.95130005E+02 -0.29131E-04
 0.95180008E+02 -0.39102E-04
 0.95230003E+02 -0.41532E-04
 0.95280006E+02 -0.33893E-04
 0.95330002E+02 -0.14027E-04
 0.95380005E+02  0.11235E-04
 0.95430008E+02  0.23520E-04
 0.95480003E+02  0.28320E-04
 0.95530006E+02  0.25721E-04
 0.95580002E+02  0.21541E-04
 0.95630005E+02  0.17304E-04
 0.95680008E+02  0.55931E-05
 0.95730003E+02  0.15517E-05
 0.95780006E+02  0.34667E-06
 0.95830002E+02 -0.63585E-05
 0.95880005E+02 -0.20628E-04
 0.95930008E+02 -0.26885E-04
 0.95980003E+02 -0.11098E-04
 0.96030006E+02  0.15863E-05
 0.96080002E+02  0.67246E-05
 0.96130005E+02  0.11432E-04
 0.96180008E+02  0.15423E-04
 0.96230003E+02  0.19119E-04
 0.96280006E+02  0.23656E-04
 0.96330002E+02  0.27817E-04
 0.96380005E+02  0.28319E-04
 0.96430008E+02  0.22980E-04
 0.96480003E+02  0.71124E-05
 0.96530006E+02 -0.89113E-05
 0.96580002E+02 -0.21129E-04
 0.96630005E+02 -0.29436E-04
 0.96680008E+02 -0.31549E-04
 0.96730003E+02 -0.25322E-04
 0.96780006E+02 -0.90305E-05
 0.96830002E+02  0.27478E-05
 0.96880005E+02  0.69751E-05
 0.96930008E+02  0.10429E-04
 0.96980003E+02  0.96836E-05
 0.97030006E+02  0.21020E-05
 0.97080002E+02 -0.51505E-05
 0.97130005E+02 -0.11005E-04
 0.97180008E+02 -0.15712E-04
 0.97230003E+02 -0.17753E-04
 0.97280006E+02 -0.17670E-04
 0.97330002E+02 -0.12795E-04
 0.97380005E+02 -0.10383E-04
 0.97430008E+02 -0.30104E-05
 0.97480003E+02  0.97033E-05
 0.97530006E+02  0.16249E-04
 0.97580002E+02  0.23577E-04
 0.97630005E+02  0.25838E-04
 0.97680008E+02  0.16420E-04
 0.97730003E+02 -0.79007E-07
 0.97780006E+02 -0.19360E-04
 0.97830002E+02 -0.27170E-04
 0.97880005E+02 -0.17565E-04
 0.97930008E+02  0.50484E-07
 0.97980003E+02  0.12563E-04
 0.98030006E+02  0.93425E-05
 0.98080002E+02  0.14203E-05
 0.98130005E+02  0.12475E-05
 0.98180008E+02  0.27031E-05
 0.98230003E+02 -0.26466E-05
 0.98280006E+02 -0.59761E-05
 0.98330002E+02  0.30796E-05
 0.98380005E+02  0.16277E-04
 0.98430008E+02  0.24838E-04
 0.98480003E+02  0.22027E-04
 0.98530006E+02  0.10118E-04
 0.98580002E+02  0.46332E-05
 0.98630005E+02  0.52629E-05
 0.98680008E+02 -0.34340E-05
 0.98730003E+02 -0.16079E-04
 0.98780006E+02 -0.23748E-04
 0.98830002E+02 -0.24379E-04
 0.98880005E+02 -0.20722E-04
 0.98930008E+02 -0.20997E-04
 0.98980003E+02 -0.16267E-04
 0.99030006E+02 -0.12510E-04
 0.99080002E+02 -0.16782E-04
 0.99130005E+02 -0.13530E-04
 0.99180008E+02 -0.13590E-06
 0.99230003E+02  0.12459E-04
 0.99280006E+02  0.10324E-04
 0.99330002E+02  0.36696E-05
 0.99380005E+02  0.61316E-05
 0.99430008E+02  0.11397E-04
 0.99480003E+02  0.16778E-04
 0.99530006E+02  0.18218E-04
 0.99580002E+02  0.22029E-04
 0.99630005E+02  0.27583E-04
 0.99680008E+02  0.29330E-04
 0.99730003E+02  0.31404E-04
 0.99780006E+02  0.30081E-04
 0.99830002E+02  0.26067E-04
 0.99880005E+02  0.17389E-04
 0.99930008E+02  0.68191E-06
 0.99980003E+02 -0.17437E-04
