-0.19996643E-01 -0.39444E-06
 0.30003358E-01 -0.10296E-06
 0.80003358E-01 -0.40129E-07
 0.13000336E+00  0.11026E-07
 0.18000336E+00  0.20716E-06
 0.23000336E+00  0.18265E-06
 0.28000337E+00  0.12043E-06
 0.33000335E+00  0.20324E-06
 0.38000336E+00  0.12164E-06
 0.43000337E+00 -0.15572E-07
 0.48000336E+00  0.22428E-07
 0.53000337E+00 -0.93754E-07
 0.58000338E+00 -0.39806E-07
 0.63000339E+00 -0.23649E-07
 0.68000335E+00 -0.10940E-06
 0.73000336E+00  0.81154E-07
 0.78000337E+00  0.20891E-08
 0.83000338E+00 -0.78065E-07
 0.88000339E+00  0.34644E-07
 0.93000335E+00  0.93964E-07
 0.98000336E+00  0.98950E-08
 0.10300034E+01  0.54472E-07
 0.10800034E+01  0.13470E-06
 0.11300033E+01  0.36575E-07
 0.11800034E+01  0.13364E-06
 0.12300034E+01  0.94784E-07
 0.12800034E+01  0.97890E-07
 0.13300034E+01  0.57648E-07
 0.13800033E+01 -0.10391E-06
 0.14300034E+01  0.91060E-07
 0.14800034E+01  0.20391E-07
 0.15300034E+01 -0.17296E-06
 0.15800034E+01  0.23709E-07
 0.16300033E+01 -0.51914E-07
 0.16800034E+01 -0.19426E-06
 0.17300034E+01 -0.12102E-06
 0.17800034E+01 -0.99961E-07
 0.18300034E+01 -0.10898E-06
 0.18800033E+01 -0.26258E-06
 0.19300034E+01 -0.15160E-06
 0.19800034E+01 -0.78429E-07
 0.20300033E+01 -0.20596E-06
 0.20800035E+01 -0.90446E-07
 0.21300035E+01  0.24000E-07
 0.21800034E+01 -0.64919E-07
 0.22300034E+01 -0.88727E-07
 0.22800033E+01  0.10298E-06
 0.23300035E+01 -0.38277E-08
 0.23800035E+01 -0.87299E-07
 0.24300034E+01  0.10022E-07
 0.24800034E+01  0.16220E-08
 0.25300033E+01 -0.20444E-07
 0.25800035E+01  0.52347E-08
 0.26300035E+01  0.11803E-06
 0.26800034E+01  0.12360E-06
 0.27300034E+01  0.37053E-07
 0.27800033E+01  0.14023E-06
 0.28300035E+01  0.27915E-06
 0.28800035E+01  0.58143E-07
 0.29300034E+01  0.10521E-06
 0.29800034E+01  0.26825E-06
 0.30300033E+01  0.99215E-07
 0.30800035E+01  0.40119E-07
 0.31300035E+01  0.13393E-06
 0.31800034E+01  0.22788E-06
 0.32300034E+01  0.43255E-07
 0.32800033E+01  0.20656E-07
 0.33300035E+01  0.13562E-06
 0.33800035E+01 -0.23040E-07
 0.34300034E+01 -0.17259E-06
 0.34800034E+01 -0.48420E-07
 0.35300033E+01  0.45288E-07
 0.35800035E+01 -0.18084E-06
 0.36300035E+01 -0.49118E-07
 0.36800034E+01  0.45674E-07
 0.37300034E+01 -0.14415E-06
 0.37800033E+01 -0.16012E-06
 0.38300035E+01 -0.17277E-06
 0.38800035E+01 -0.16319E-06
 0.39300034E+01 -0.23304E-06
 0.39800034E+01 -0.26421E-06
 0.40300035E+01 -0.20824E-06
 0.40800033E+01 -0.12379E-06
 0.41300035E+01 -0.17425E-06
 0.41800036E+01 -0.18879E-06
 0.42300034E+01 -0.17472E-07
 0.42800035E+01 -0.85677E-07
 0.43300033E+01 -0.58890E-07
 0.43800035E+01  0.13105E-06
 0.44300036E+01  0.90858E-07
 0.44800034E+01 -0.32596E-07
 0.45300035E+01  0.46145E-07
 0.45800033E+01  0.20241E-06
 0.46300035E+01  0.99249E-07
 0.46800036E+01  0.26387E-07
 0.47300034E+01  0.29577E-06
 0.47800035E+01  0.26402E-06
 0.48300033E+01 -0.19406E-07
 0.48800035E+01  0.23445E-06
 0.49300036E+01  0.39624E-06
 0.49800034E+01  0.35573E-08
 0.50300035E+01  0.72203E-07
 0.50800033E+01  0.38029E-06
 0.51300035E+01  0.95441E-07
 0.51800036E+01 -0.50363E-07
 0.52300034E+01  0.14531E-06
 0.52800035E+01  0.21458E-06
 0.53300033E+01  0.11811E-08
 0.53800035E+01 -0.45398E-07
 0.54300036E+01  0.21224E-06
 0.54800034E+01  0.65508E-08
 0.55300035E+01 -0.18700E-06
 0.55800033E+01  0.48861E-07
 0.56300035E+01  0.11346E-06
 0.56800036E+01 -0.15336E-06
 0.57300034E+01 -0.17469E-06
 0.57800035E+01  0.81523E-07
 0.58300033E+01 -0.11967E-06
 0.58800035E+01 -0.33075E-06
 0.59300036E+01 -0.90764E-07
 0.59800034E+01 -0.92496E-07
 0.60300035E+01 -0.33567E-06
 0.60800033E+01 -0.21899E-06
 0.61300035E+01 -0.82011E-07
 0.61800036E+01 -0.24852E-06
 0.62300034E+01 -0.29844E-06
 0.62800035E+01 -0.15245E-06
 0.63300033E+01 -0.83487E-07
 0.63800035E+01 -0.12930E-06
 0.64300036E+01 -0.10374E-06
 0.64800034E+01  0.40648E-07
 0.65300035E+01  0.21783E-07
 0.65800033E+01 -0.12318E-06
 0.66300035E+01  0.50879E-07
 0.66800036E+01  0.12533E-06
 0.67300034E+01 -0.11831E-06
 0.67800035E+01  0.22504E-08
 0.68300033E+01  0.14686E-06
 0.68800035E+01 -0.25509E-07
 0.69300036E+01  0.22563E-07
 0.69800034E+01  0.13178E-06
 0.70300035E+01  0.13268E-06
 0.70800033E+01  0.14933E-06
 0.71300035E+01  0.25112E-06
 0.71800036E+01  0.38407E-06
 0.72300034E+01  0.23608E-06
 0.72800035E+01  0.23168E-06
 0.73300033E+01  0.37827E-06
 0.73800035E+01  0.27005E-06
 0.74300036E+01  0.12040E-06
 0.74800034E+01  0.69479E-07
 0.75300035E+01  0.13944E-06
 0.75800033E+01 -0.63656E-07
 0.76300035E+01 -0.22317E-06
 0.76800036E+01 -0.21133E-07
 0.77300034E+01 -0.13426E-06
 0.77800035E+01 -0.31824E-06
 0.78300033E+01 -0.15989E-06
 0.78800035E+01 -0.78592E-07
 0.79300036E+01 -0.21235E-06
 0.79800034E+01 -0.18306E-06
 0.80300035E+01  0.57920E-07
 0.80800037E+01 -0.54405E-07
 0.81300039E+01 -0.33720E-06
 0.81800032E+01 -0.47229E-07
 0.82300034E+01  0.27975E-07
 0.82800035E+01 -0.26464E-06
 0.83300037E+01  0.55652E-08
 0.83800039E+01  0.20897E-06
 0.84300032E+01 -0.19789E-07
 0.84800034E+01  0.13299E-07
 0.85300035E+01  0.30077E-06
 0.85800037E+01  0.15674E-06
 0.86300039E+01 -0.16957E-07
 0.86800032E+01  0.16069E-06
 0.87300034E+01  0.18151E-06
 0.87800035E+01 -0.19561E-07
 0.88300037E+01 -0.12913E-06
 0.88800039E+01  0.13371E-07
 0.89300032E+01 -0.93616E-07
 0.89800034E+01 -0.23109E-06
 0.90300035E+01 -0.84293E-07
 0.90800037E+01  0.50996E-07
 0.91300039E+01 -0.78915E-07
 0.91800032E+01 -0.19154E-06
 0.92300034E+01  0.12969E-06
 0.92800035E+01  0.78332E-07
 0.93300037E+01 -0.20912E-06
 0.93800039E+01  0.23025E-07
 0.94300032E+01  0.12296E-06
 0.94800034E+01 -0.27599E-06
 0.95300035E+01 -0.26910E-06
 0.95800037E+01  0.10255E-07
 0.96300039E+01 -0.17929E-06
 0.96800032E+01 -0.28645E-06
 0.97300034E+01 -0.38113E-07
 0.97800035E+01  0.10131E-06
 0.98300037E+01 -0.18530E-06
 0.98800039E+01 -0.91999E-07
 0.99300032E+01  0.22218E-06
 0.99800034E+01 -0.11695E-07
 0.10030004E+02 -0.81829E-07
 0.10080004E+02  0.10635E-06
 0.10130004E+02  0.16885E-06
 0.10180003E+02  0.69720E-08
 0.10230003E+02  0.20173E-06
 0.10280004E+02  0.43137E-06
 0.10330004E+02  0.12774E-06
 0.10380004E+02  0.13660E-06
 0.10430003E+02  0.29934E-06
 0.10480003E+02  0.20272E-06
 0.10530004E+02  0.16273E-07
 0.10580004E+02  0.58323E-07
 0.10630004E+02  0.22699E-06
 0.10680003E+02  0.55984E-07
 0.10730003E+02 -0.25094E-07
 0.10780004E+02  0.77675E-07
 0.10830004E+02  0.40602E-07
 0.10880004E+02 -0.92090E-07
 0.10930003E+02 -0.69232E-07
 0.10980003E+02  0.97378E-07
 0.11030004E+02 -0.77272E-07
 0.11080004E+02 -0.67239E-07
 0.11130004E+02  0.22719E-06
 0.11180003E+02  0.66808E-07
 0.11230003E+02 -0.50332E-07
 0.11280004E+02  0.19881E-07
 0.11330004E+02 -0.23246E-07
 0.11380004E+02 -0.13051E-06
 0.11430003E+02 -0.13790E-06
 0.11480003E+02 -0.44424E-09
 0.11530004E+02  0.11860E-08
 0.11580004E+02 -0.78059E-07
 0.11630004E+02 -0.22050E-07
 0.11680003E+02  0.18367E-06
 0.11730003E+02  0.33538E-07
 0.11780004E+02 -0.57807E-07
 0.11830004E+02  0.16575E-06
 0.11880004E+02  0.18319E-07
 0.11930003E+02 -0.38250E-07
 0.11980003E+02  0.72385E-07
 0.12030004E+02  0.15153E-06
 0.12080004E+02  0.61547E-07
 0.12130004E+02 -0.69846E-07
 0.12180003E+02 -0.42850E-07
 0.12230003E+02 -0.12520E-06
 0.12280004E+02 -0.24688E-06
 0.12330004E+02 -0.27581E-06
 0.12380004E+02 -0.11564E-06
 0.12430003E+02 -0.19456E-06
 0.12480003E+02 -0.37594E-06
 0.12530004E+02 -0.21511E-06
 0.12580004E+02 -0.15833E-06
 0.12630004E+02 -0.39943E-06
 0.12680003E+02 -0.23428E-06
 0.12730003E+02 -0.34443E-07
 0.12780004E+02 -0.26375E-06
 0.12830004E+02 -0.24579E-06
 0.12880004E+02 -0.87227E-07
 0.12930003E+02 -0.14169E-07
 0.12980003E+02 -0.22458E-06
 0.13030004E+02 -0.13145E-06
 0.13080004E+02  0.17051E-06
 0.13130004E+02 -0.73414E-07
 0.13180003E+02 -0.11321E-06
 0.13230003E+02  0.16568E-06
 0.13280004E+02  0.15430E-06
 0.13330004E+02 -0.88156E-07
 0.13380004E+02  0.17077E-06
 0.13430003E+02  0.27855E-06
 0.13480003E+02 -0.36208E-07
 0.13530004E+02  0.15180E-06
 0.13580004E+02  0.28565E-06
 0.13630004E+02  0.19451E-06
 0.13680003E+02  0.14208E-06
 0.13730003E+02  0.32490E-06
 0.13780004E+02  0.36131E-06
 0.13830004E+02  0.17615E-06
 0.13880004E+02  0.36021E-06
 0.13930003E+02  0.37676E-06
 0.13980003E+02  0.28201E-06
 0.14030004E+02  0.28387E-06
 0.14080004E+02  0.33355E-06
 0.14130004E+02  0.22914E-06
 0.14180003E+02  0.83938E-07
 0.14230003E+02  0.21447E-06
 0.14280004E+02  0.17913E-06
 0.14330004E+02  0.61874E-07
 0.14380004E+02 -0.19570E-07
 0.14430003E+02  0.10671E-06
 0.14480003E+02  0.14730E-06
 0.14530004E+02 -0.12894E-07
 0.14580004E+02  0.10308E-06
 0.14630004E+02  0.10680E-06
 0.14680003E+02 -0.45783E-07
 0.14730003E+02 -0.73769E-07
 0.14780004E+02 -0.55242E-07
 0.14830004E+02 -0.15476E-06
 0.14880004E+02 -0.27362E-06
 0.14930003E+02 -0.30496E-06
 0.14980003E+02 -0.37566E-06
 0.15030004E+02 -0.46338E-06
 0.15080004E+02 -0.42387E-06
 0.15130004E+02 -0.33265E-06
 0.15180003E+02 -0.41418E-06
 0.15230003E+02 -0.37336E-06
 0.15280004E+02 -0.27137E-06
 0.15330004E+02 -0.38274E-06
 0.15380004E+02 -0.27193E-06
 0.15430003E+02 -0.20321E-06
 0.15480003E+02 -0.23446E-06
 0.15530004E+02 -0.68914E-07
 0.15580004E+02 -0.11250E-06
 0.15630004E+02 -0.14670E-06
 0.15680003E+02 -0.52460E-07
 0.15730003E+02 -0.55274E-07
 0.15780004E+02  0.35195E-07
 0.15830004E+02  0.21768E-06
 0.15880004E+02  0.16830E-06
 0.15930003E+02  0.73467E-07
 0.15980003E+02  0.19259E-06
 0.16030005E+02  0.90583E-07
 0.16080004E+02  0.31886E-07
 0.16130003E+02  0.23608E-06
 0.16180004E+02  0.94766E-07
 0.16230003E+02  0.28828E-08
 0.16280005E+02  0.11812E-06
 0.16330004E+02  0.12016E-06
 0.16380003E+02  0.13600E-06
 0.16430004E+02  0.13396E-06
 0.16480003E+02  0.21355E-06
 0.16530005E+02  0.26143E-06
 0.16580004E+02  0.24187E-06
 0.16630003E+02  0.26717E-06
 0.16680004E+02  0.21993E-06
 0.16730003E+02  0.15032E-06
 0.16780005E+02  0.11525E-06
 0.16830004E+02  0.10386E-06
 0.16880003E+02  0.61478E-07
 0.16930004E+02 -0.12647E-07
 0.16980003E+02 -0.13346E-07
 0.17030005E+02 -0.56002E-07
 0.17080004E+02 -0.49583E-07
 0.17130003E+02 -0.52939E-07
 0.17180004E+02 -0.13995E-06
 0.17230003E+02  0.64371E-08
 0.17280005E+02 -0.84774E-07
 0.17330004E+02 -0.13392E-06
 0.17380003E+02  0.37538E-07
 0.17430004E+02 -0.12156E-06
 0.17480003E+02 -0.83992E-07
 0.17530005E+02 -0.58242E-07
 0.17580004E+02 -0.94331E-07
 0.17630003E+02  0.40309E-07
 0.17680004E+02 -0.64974E-07
 0.17730003E+02  0.43297E-07
 0.17780005E+02  0.11562E-06
 0.17830004E+02 -0.61133E-07
 0.17880003E+02  0.55726E-07
 0.17930004E+02  0.13129E-06
 0.17980003E+02 -0.35740E-07
 0.18030005E+02  0.89418E-08
 0.18080004E+02  0.17436E-06
 0.18130003E+02  0.56405E-07
 0.18180004E+02  0.36053E-07
 0.18230003E+02  0.51928E-07
 0.18280005E+02  0.63029E-07
 0.18330004E+02  0.14387E-08
 0.18380003E+02 -0.10437E-06
 0.18430004E+02  0.88195E-07
 0.18480003E+02  0.98517E-08
 0.18530005E+02 -0.64098E-07
 0.18580004E+02  0.41285E-07
 0.18630003E+02  0.75005E-07
 0.18680004E+02 -0.17594E-07
 0.18730003E+02 -0.75569E-07
 0.18780005E+02 -0.61182E-08
 0.18830004E+02 -0.19785E-06
 0.18880003E+02 -0.21073E-06
 0.18930004E+02 -0.10022E-06
 0.18980003E+02 -0.13332E-06
 0.19030005E+02 -0.21512E-06
 0.19080004E+02 -0.24266E-06
 0.19130003E+02 -0.15427E-06
 0.19180004E+02 -0.23794E-06
 0.19230003E+02 -0.28268E-06
 0.19280005E+02 -0.23010E-06
 0.19330004E+02 -0.18935E-06
 0.19380003E+02 -0.16074E-06
 0.19430004E+02 -0.20330E-06
 0.19480003E+02 -0.65337E-07
 0.19530005E+02  0.76769E-07
 0.19580004E+02 -0.63569E-07
 0.19630003E+02  0.61567E-07
 0.19680004E+02  0.26035E-06
 0.19730003E+02  0.12507E-06
 0.19780005E+02  0.17847E-06
 0.19830004E+02  0.29512E-06
 0.19880003E+02  0.27494E-06
 0.19930004E+02  0.25901E-06
 0.19980003E+02  0.25471E-06
 0.20030005E+02  0.30405E-06
 0.20080004E+02  0.22726E-06
 0.20130003E+02  0.10501E-06
 0.20180004E+02  0.12892E-06
 0.20230003E+02  0.88072E-07
 0.20280005E+02 -0.76315E-07
 0.20330004E+02 -0.94146E-07
 0.20380003E+02  0.10183E-06
 0.20430004E+02  0.15673E-07
 0.20480003E+02 -0.17578E-06
 0.20530005E+02  0.11017E-06
 0.20580004E+02  0.11541E-06
 0.20630003E+02 -0.15018E-06
 0.20680004E+02  0.50517E-07
 0.20730003E+02  0.19172E-06
 0.20780005E+02  0.14844E-07
 0.20830004E+02 -0.22142E-07
 0.20880003E+02  0.18886E-06
 0.20930004E+02  0.16645E-06
 0.20980003E+02 -0.84059E-07
 0.21030005E+02  0.35711E-07
 0.21080004E+02  0.52374E-07
 0.21130003E+02 -0.11299E-06
 0.21180004E+02 -0.58495E-07
 0.21230003E+02 -0.27470E-06
 0.21280005E+02  0.16497E-06
 0.21330004E+02 -0.62156E-06
 0.21380003E+02 -0.86222E-06
 0.21430004E+02 -0.32615E-05
 0.21480003E+02 -0.63026E-05
 0.21530005E+02 -0.43759E-05
 0.21580004E+02 -0.69843E-05
 0.21630003E+02 -0.17907E-04
 0.21680004E+02 -0.14345E-04
 0.21730003E+02  0.18502E-04
 0.21780005E+02  0.81357E-05
 0.21830004E+02 -0.48994E-05
 0.21880003E+02  0.14381E-04
 0.21930004E+02  0.32122E-04
 0.21980003E+02  0.49717E-04
 0.22030005E+02 -0.18736E-04
 0.22080004E+02 -0.56353E-04
 0.22130003E+02 -0.44182E-04
 0.22180004E+02 -0.40676E-06
 0.22230003E+02  0.63644E-04
 0.22280005E+02  0.40381E-05
 0.22330004E+02 -0.24023E-04
 0.22380003E+02  0.22232E-04
 0.22430004E+02  0.55273E-04
 0.22480003E+02  0.64174E-04
 0.22530005E+02  0.22494E-05
 0.22580004E+02 -0.68700E-04
 0.22630003E+02 -0.26933E-04
 0.22680004E+02  0.98764E-04
 0.22730003E+02  0.83623E-04
 0.22780005E+02 -0.11223E-04
 0.22830004E+02 -0.11496E-04
 0.22880003E+02 -0.60349E-04
 0.22930004E+02 -0.67454E-05
 0.22980003E+02 -0.20260E-04
 0.23030005E+02 -0.19690E-03
 0.23080004E+02 -0.12287E-03
 0.23130003E+02 -0.14396E-03
 0.23180004E+02 -0.18663E-03
 0.23230003E+02 -0.15141E-05
 0.23280005E+02  0.60875E-04
 0.23330004E+02 -0.17033E-04
 0.23380003E+02  0.54479E-04
 0.23430004E+02  0.26779E-03
 0.23480003E+02  0.63875E-04
 0.23530005E+02  0.68236E-04
 0.23580004E+02  0.34367E-03
 0.23630003E+02 -0.10866E-03
 0.23680004E+02 -0.42140E-04
 0.23730003E+02  0.26176E-03
 0.23780005E+02 -0.22339E-03
 0.23830004E+02  0.83528E-04
 0.23880003E+02  0.41208E-03
 0.23930004E+02 -0.98023E-04
 0.23980003E+02  0.91087E-04
 0.24030005E+02  0.21473E-03
 0.24080004E+02 -0.37061E-03
 0.24130003E+02 -0.29304E-03
 0.24180004E+02 -0.67097E-04
 0.24230003E+02 -0.49993E-03
 0.24280005E+02 -0.31398E-03
 0.24330004E+02  0.10511E-03
 0.24380003E+02 -0.12228E-03
 0.24430004E+02  0.26488E-03
 0.24480003E+02  0.34278E-03
 0.24530005E+02 -0.15533E-03
 0.24580004E+02  0.13624E-03
 0.24630003E+02  0.11228E-04
 0.24680004E+02 -0.18002E-03
 0.24730003E+02  0.13019E-03
 0.24780005E+02 -0.40936E-04
 0.24830004E+02  0.46695E-04
 0.24880003E+02  0.21754E-03
 0.24930004E+02 -0.12401E-03
 0.24980003E+02 -0.43953E-04
 0.25030005E+02  0.83747E-04
 0.25080004E+02 -0.20889E-03
 0.25130003E+02 -0.65386E-04
 0.25180004E+02  0.18510E-03
 0.25230003E+02  0.89113E-04
 0.25280005E+02  0.13045E-03
 0.25330004E+02  0.89162E-04
 0.25380003E+02 -0.11552E-03
 0.25430004E+02 -0.73956E-04
 0.25480003E+02  0.34521E-04
 0.25530005E+02 -0.95189E-07
 0.25580004E+02  0.66773E-04
 0.25630003E+02  0.91754E-04
 0.25680004E+02 -0.30017E-04
 0.25730003E+02 -0.60166E-04
 0.25780005E+02 -0.88992E-04
 0.25830004E+02 -0.13247E-04
 0.25880003E+02  0.54750E-04
 0.25930004E+02  0.18831E-04
 0.25980003E+02  0.64748E-05
 0.26030005E+02 -0.26594E-04
 0.26080004E+02 -0.52199E-04
 0.26130003E+02 -0.98660E-04
 0.26180004E+02 -0.11147E-03
 0.26230003E+02 -0.61010E-04
 0.26280005E+02  0.55474E-04
 0.26330004E+02  0.12272E-04
 0.26380003E+02 -0.41240E-04
 0.26430004E+02  0.50441E-04
 0.26480003E+02 -0.91401E-04
 0.26530005E+02 -0.11994E-03
 0.26580004E+02  0.14876E-03
 0.26630003E+02  0.15596E-03
 0.26680004E+02  0.14021E-03
 0.26730003E+02  0.19094E-03
 0.26780005E+02 -0.13877E-03
 0.26830004E+02 -0.43173E-04
 0.26880003E+02  0.87701E-04
 0.26930004E+02 -0.20750E-03
 0.26980003E+02 -0.70515E-04
 0.27030005E+02 -0.38338E-04
 0.27080004E+02  0.11410E-04
 0.27130003E+02  0.19507E-03
 0.27180004E+02  0.55113E-04
 0.27230003E+02 -0.76984E-05
 0.27280005E+02 -0.11043E-04
 0.27330004E+02 -0.55678E-04
 0.27380003E+02  0.55044E-04
 0.27430004E+02  0.21679E-04
 0.27480003E+02 -0.11457E-03
 0.27530005E+02  0.20427E-04
 0.27580004E+02  0.14422E-03
 0.27630003E+02  0.49911E-04
 0.27680004E+02 -0.11829E-03
 0.27730003E+02 -0.86612E-04
 0.27780005E+02 -0.55952E-04
 0.27830004E+02 -0.50227E-04
 0.27880003E+02  0.43378E-04
 0.27930004E+02 -0.34460E-04
 0.27980003E+02  0.95877E-05
 0.28030005E+02  0.73475E-04
 0.28080004E+02 -0.72868E-04
 0.28130003E+02 -0.73531E-04
 0.28180004E+02 -0.19400E-04
 0.28230003E+02  0.74746E-04
 0.28280005E+02  0.12883E-03
 0.28330004E+02  0.81668E-05
 0.28380003E+02  0.44670E-04
 0.28430004E+02 -0.32735E-04
 0.28480003E+02 -0.19380E-03
 0.28530005E+02 -0.31962E-04
 0.28580004E+02  0.55927E-04
 0.28630003E+02 -0.38447E-04
 0.28680004E+02  0.10367E-03
 0.28730003E+02  0.19513E-03
 0.28780005E+02  0.99114E-04
 0.28830004E+02  0.83864E-04
 0.28880003E+02 -0.10339E-03
 0.28930004E+02 -0.26241E-03
 0.28980003E+02 -0.11127E-03
 0.29030005E+02 -0.28949E-04
 0.29080004E+02 -0.70005E-04
 0.29130003E+02 -0.93160E-05
 0.29180004E+02  0.75164E-05
 0.29230003E+02 -0.40948E-04
 0.29280005E+02 -0.39295E-06
 0.29330004E+02  0.17385E-03
 0.29380003E+02  0.13776E-03
 0.29430004E+02 -0.14930E-03
 0.29480003E+02 -0.69076E-04
 0.29530005E+02  0.12403E-03
 0.29580004E+02  0.10081E-03
 0.29630003E+02  0.20806E-03
 0.29680004E+02  0.17264E-03
 0.29730003E+02 -0.13931E-03
 0.29780005E+02 -0.48306E-04
 0.29830004E+02  0.14199E-03
 0.29880003E+02 -0.65420E-04
 0.29930004E+02 -0.42031E-04
 0.29980003E+02 -0.76493E-04
 0.30030005E+02 -0.42938E-03
 0.30080004E+02 -0.25185E-03
 0.30130003E+02  0.19486E-03
 0.30180004E+02  0.19626E-03
 0.30230003E+02 -0.61779E-04
 0.30280005E+02 -0.28993E-04
 0.30330004E+02  0.10255E-03
 0.30380003E+02  0.53911E-04
 0.30430004E+02  0.18883E-03
 0.30480003E+02  0.12509E-03
 0.30530005E+02 -0.10507E-03
 0.30580004E+02 -0.82498E-04
 0.30630003E+02  0.66933E-05
 0.30680004E+02  0.75423E-05
 0.30730003E+02 -0.22151E-03
 0.30780005E+02 -0.11386E-03
 0.30830004E+02  0.66585E-04
 0.30880003E+02 -0.76870E-04
 0.30930004E+02  0.75619E-04
 0.30980003E+02  0.59643E-04
 0.31030005E+02 -0.13955E-03
 0.31080004E+02 -0.68731E-04
 0.31130003E+02  0.17182E-03
 0.31180004E+02  0.84912E-04
 0.31230003E+02 -0.12162E-03
 0.31280005E+02  0.12816E-04
 0.31330004E+02 -0.16671E-04
 0.31380003E+02  0.20036E-03
 0.31430004E+02  0.36175E-03
 0.31480003E+02  0.57987E-04
 0.31530005E+02 -0.17797E-03
 0.31580004E+02 -0.18431E-03
 0.31630003E+02  0.58996E-04
 0.31680004E+02  0.57142E-04
 0.31730003E+02 -0.13521E-04
 0.31780005E+02  0.65176E-04
 0.31830004E+02  0.10448E-05
 0.31880003E+02 -0.63215E-04
 0.31930004E+02 -0.23279E-03
 0.31980003E+02 -0.12117E-03
 0.32030003E+02  0.55614E-04
 0.32080006E+02 -0.71415E-04
 0.32130005E+02  0.64305E-04
 0.32180004E+02  0.26082E-04
 0.32230003E+02  0.44517E-04
 0.32280003E+02  0.18006E-03
 0.32330006E+02  0.64960E-04
 0.32380005E+02 -0.70743E-05
 0.32430004E+02 -0.33910E-04
 0.32480003E+02  0.12407E-04
 0.32530003E+02 -0.12108E-03
 0.32580006E+02 -0.87893E-04
 0.32630005E+02  0.78908E-04
 0.32680004E+02 -0.43342E-04
 0.32730003E+02  0.12394E-04
 0.32780003E+02  0.45865E-04
 0.32830006E+02 -0.25289E-03
 0.32880005E+02 -0.32674E-03
 0.32930004E+02 -0.72805E-04
 0.32980003E+02  0.17015E-03
 0.33030003E+02  0.32732E-03
 0.33080006E+02  0.33588E-03
 0.33130005E+02  0.38162E-04
 0.33180004E+02 -0.27646E-03
 0.33230003E+02 -0.19950E-03
 0.33280003E+02  0.92076E-04
 0.33330006E+02  0.71107E-04
 0.33380005E+02 -0.52310E-05
 0.33430004E+02  0.16403E-03
 0.33480003E+02  0.23887E-05
 0.33530003E+02 -0.29379E-04
 0.33580006E+02  0.23353E-03
 0.33630005E+02  0.12489E-03
 0.33680004E+02 -0.39625E-04
 0.33730003E+02  0.61995E-04
 0.33780003E+02 -0.13041E-03
 0.33830006E+02 -0.42850E-03
 0.33880005E+02 -0.33167E-03
 0.33930004E+02 -0.29977E-03
 0.33980003E+02 -0.55599E-04
 0.34030003E+02  0.35438E-03
 0.34080006E+02  0.36775E-03
 0.34130005E+02  0.28964E-03
 0.34180004E+02  0.11720E-03
 0.34230003E+02 -0.12716E-03
 0.34280003E+02  0.57667E-04
 0.34330006E+02  0.20506E-03
 0.34380005E+02 -0.17470E-03
 0.34430004E+02 -0.35195E-03
 0.34480003E+02 -0.19108E-03
 0.34530003E+02 -0.61878E-04
 0.34580006E+02  0.12323E-03
 0.34630005E+02  0.95891E-04
 0.34680004E+02 -0.35885E-04
 0.34730003E+02  0.84021E-04
 0.34780003E+02  0.62978E-04
 0.34830006E+02 -0.68232E-04
 0.34880005E+02 -0.11544E-03
 0.34930004E+02 -0.33786E-04
 0.34980003E+02  0.24867E-03
 0.35030003E+02  0.12860E-03
 0.35080006E+02  0.11247E-04
 0.35130005E+02  0.20349E-03
 0.35180004E+02 -0.81215E-04
 0.35230003E+02 -0.21434E-03
 0.35280003E+02 -0.82711E-04
 0.35330006E+02 -0.16675E-03
 0.35380005E+02  0.60214E-05
 0.35430004E+02  0.83923E-04
 0.35480003E+02 -0.20153E-03
 0.35530003E+02 -0.14495E-03
 0.35580006E+02  0.12461E-03
 0.35630005E+02 -0.78146E-06
 0.35680004E+02 -0.78299E-04
 0.35730003E+02  0.94481E-04
 0.35780003E+02 -0.64276E-04
 0.35830006E+02 -0.71340E-04
 0.35880005E+02  0.15096E-03
 0.35930004E+02  0.68368E-04
 0.35980003E+02  0.17384E-03
 0.36030003E+02  0.95423E-04
 0.36080006E+02 -0.71040E-04
 0.36130005E+02  0.83718E-04
 0.36180004E+02  0.60096E-04
 0.36230003E+02 -0.39919E-04
 0.36280003E+02 -0.14451E-04
 0.36330006E+02  0.97697E-04
 0.36380005E+02 -0.49537E-04
 0.36430004E+02 -0.21963E-03
 0.36480003E+02 -0.15545E-03
 0.36530003E+02  0.29027E-04
 0.36580006E+02  0.28732E-03
 0.36630005E+02  0.19684E-03
 0.36680004E+02 -0.26455E-04
 0.36730003E+02 -0.12714E-03
 0.36780003E+02 -0.21947E-03
 0.36830006E+02 -0.16045E-03
 0.36880005E+02 -0.26907E-04
 0.36930004E+02  0.11584E-03
 0.36980003E+02  0.25608E-03
 0.37030003E+02  0.27630E-03
 0.37080006E+02  0.14959E-03
 0.37130005E+02  0.13675E-04
 0.37180004E+02 -0.78847E-04
 0.37230003E+02 -0.33283E-03
 0.37280003E+02 -0.49260E-03
 0.37330006E+02 -0.18860E-03
 0.37380005E+02  0.19354E-03
 0.37430004E+02  0.18757E-03
 0.37480003E+02  0.14382E-03
 0.37530003E+02  0.62306E-04
 0.37580006E+02 -0.54438E-04
 0.37630005E+02  0.13621E-03
 0.37680004E+02  0.47545E-05
 0.37730003E+02 -0.22320E-03
 0.37780003E+02 -0.80987E-04
 0.37830006E+02  0.58997E-04
 0.37880005E+02  0.11512E-03
 0.37930004E+02  0.16875E-03
 0.37980003E+02  0.23348E-03
 0.38030003E+02  0.43177E-04
 0.38080006E+02 -0.16890E-03
 0.38130005E+02 -0.22523E-03
 0.38180004E+02 -0.31402E-03
 0.38230003E+02 -0.91934E-04
 0.38280003E+02  0.16889E-03
 0.38330006E+02  0.11035E-03
 0.38380005E+02  0.25102E-04
 0.38430004E+02 -0.72396E-04
 0.38480003E+02 -0.67205E-04
 0.38530003E+02 -0.30946E-04
 0.38580006E+02 -0.96819E-04
 0.38630005E+02  0.17846E-04
 0.38680004E+02  0.16225E-03
 0.38730003E+02  0.89648E-05
 0.38780003E+02  0.81444E-04
 0.38830006E+02  0.29830E-03
 0.38880005E+02  0.17480E-03
 0.38930004E+02  0.21896E-03
 0.38980003E+02  0.27702E-03
 0.39030003E+02  0.13377E-03
 0.39080006E+02 -0.97322E-04
 0.39130005E+02 -0.36725E-03
 0.39180004E+02 -0.37778E-03
 0.39230003E+02 -0.30264E-03
 0.39280003E+02 -0.14768E-03
 0.39330006E+02  0.21164E-03
 0.39380005E+02  0.22257E-03
 0.39430004E+02 -0.15442E-03
 0.39480003E+02 -0.80140E-04
 0.39530003E+02  0.93950E-04
 0.39580006E+02 -0.15897E-03
 0.39630005E+02 -0.25938E-03
 0.39680004E+02 -0.20261E-03
 0.39730003E+02 -0.28266E-03
 0.39780003E+02 -0.20778E-03
 0.39830006E+02  0.15855E-03
 0.39880005E+02  0.18405E-03
 0.39930004E+02 -0.98749E-04
 0.39980003E+02 -0.34631E-04
 0.40030003E+02 -0.97376E-05
 0.40080006E+02 -0.12468E-03
 0.40130005E+02 -0.37619E-05
 0.40180004E+02  0.79759E-04
 0.40230003E+02  0.19259E-03
 0.40280003E+02  0.36479E-03
 0.40330006E+02  0.38916E-03
 0.40380005E+02  0.35732E-03
 0.40430004E+02  0.15987E-03
 0.40480003E+02 -0.15793E-03
 0.40530003E+02 -0.28094E-03
 0.40580006E+02 -0.14002E-03
 0.40630005E+02 -0.15169E-03
 0.40680004E+02 -0.18427E-03
 0.40730003E+02  0.10243E-03
 0.40780003E+02  0.29501E-03
 0.40830006E+02  0.45604E-03
 0.40880005E+02  0.42177E-03
 0.40930004E+02  0.18161E-04
 0.40980003E+02  0.19952E-05
 0.41030003E+02  0.27214E-03
 0.41080006E+02  0.12511E-03
 0.41130005E+02 -0.19046E-04
 0.41180004E+02  0.21880E-03
 0.41230003E+02 -0.95891E-04
 0.41280003E+02 -0.67057E-03
 0.41330006E+02 -0.61151E-03
 0.41380005E+02 -0.50766E-03
 0.41430004E+02 -0.22548E-03
 0.41480003E+02  0.34493E-03
 0.41530003E+02  0.47191E-03
 0.41580006E+02  0.19590E-03
 0.41630005E+02 -0.27983E-03
 0.41680004E+02 -0.54414E-03
 0.41730003E+02 -0.27682E-03
 0.41780003E+02 -0.81076E-04
 0.41830006E+02 -0.49912E-04
 0.41880005E+02  0.12593E-04
 0.41930004E+02  0.44662E-04
 0.41980003E+02  0.72977E-04
 0.42030003E+02  0.15274E-03
 0.42080006E+02  0.36723E-03
 0.42130005E+02  0.26342E-03
 0.42180004E+02 -0.20458E-03
 0.42230003E+02 -0.48131E-03
 0.42280003E+02 -0.45704E-03
 0.42330006E+02 -0.75339E-04
 0.42380005E+02  0.51247E-03
 0.42430004E+02  0.60613E-03
 0.42480003E+02  0.11180E-03
 0.42530003E+02 -0.22273E-03
 0.42580006E+02 -0.17149E-03
 0.42630005E+02 -0.12197E-03
 0.42680004E+02 -0.11419E-03
 0.42730003E+02  0.72226E-04
 0.42780003E+02  0.33274E-03
 0.42830006E+02  0.43229E-03
 0.42880005E+02  0.38088E-03
 0.42930004E+02  0.38581E-03
 0.42980003E+02  0.34280E-03
 0.43030003E+02 -0.51334E-05
 0.43080006E+02 -0.28939E-03
 0.43130005E+02 -0.41418E-03
 0.43180004E+02 -0.49727E-03
 0.43230003E+02 -0.31653E-03
 0.43280003E+02 -0.83716E-04
 0.43330006E+02  0.12121E-03
 0.43380005E+02  0.28581E-03
 0.43430004E+02  0.16947E-03
 0.43480003E+02 -0.53031E-04
 0.43530003E+02 -0.27680E-05
 0.43580006E+02 -0.20540E-04
 0.43630005E+02 -0.30223E-03
 0.43680004E+02 -0.29474E-03
 0.43730003E+02 -0.22680E-03
 0.43780003E+02 -0.19101E-03
 0.43830006E+02  0.10611E-03
 0.43880005E+02  0.22294E-03
 0.43930004E+02 -0.38970E-04
 0.43980003E+02 -0.21931E-03
 0.44030003E+02 -0.21791E-03
 0.44080006E+02 -0.30764E-03
 0.44130005E+02 -0.24561E-03
 0.44180004E+02  0.60219E-04
 0.44230003E+02  0.19998E-03
 0.44280003E+02  0.14974E-03
 0.44330006E+02  0.33711E-03
 0.44380005E+02  0.60892E-03
 0.44430004E+02  0.58378E-03
 0.44480003E+02  0.59814E-03
 0.44530003E+02  0.43097E-03
 0.44580006E+02 -0.23869E-03
 0.44630005E+02 -0.63645E-03
 0.44680004E+02 -0.56291E-03
 0.44730003E+02 -0.51183E-03
 0.44780003E+02 -0.26581E-03
 0.44830006E+02  0.25684E-03
 0.44880005E+02  0.57180E-03
 0.44930004E+02  0.62013E-03
 0.44980003E+02  0.37393E-03
 0.45030003E+02 -0.84304E-04
 0.45080006E+02 -0.28921E-03
 0.45130005E+02 -0.27156E-03
 0.45180004E+02 -0.27896E-03
 0.45230003E+02 -0.25792E-03
 0.45280003E+02 -0.21348E-03
 0.45330006E+02 -0.26432E-03
 0.45380005E+02 -0.27011E-03
 0.45430004E+02 -0.99403E-04
 0.45480003E+02  0.16083E-03
 0.45530003E+02  0.29476E-03
 0.45580006E+02  0.16369E-03
 0.45630005E+02  0.14434E-04
 0.45680004E+02 -0.92193E-04
 0.45730003E+02 -0.12323E-03
 0.45780003E+02  0.78045E-04
 0.45830006E+02  0.17974E-03
 0.45880005E+02  0.13585E-04
 0.45930004E+02 -0.14224E-03
 0.45980003E+02 -0.11128E-03
 0.46030003E+02  0.65159E-04
 0.46080006E+02  0.24193E-03
 0.46130005E+02  0.31670E-03
 0.46180004E+02  0.21413E-03
 0.46230003E+02  0.30462E-04
 0.46280003E+02 -0.83881E-04
 0.46330006E+02 -0.12496E-03
 0.46380005E+02 -0.10034E-03
 0.46430004E+02 -0.59192E-04
 0.46480003E+02 -0.92991E-04
 0.46530003E+02 -0.17354E-03
 0.46580006E+02 -0.23985E-03
 0.46630005E+02 -0.16749E-03
 0.46680004E+02  0.35273E-04
 0.46730003E+02  0.13499E-03
 0.46780003E+02  0.22171E-03
 0.46830006E+02  0.23067E-03
 0.46880005E+02  0.12006E-03
 0.46930004E+02  0.14607E-03
 0.46980003E+02  0.15244E-03
 0.47030003E+02  0.11864E-03
 0.47080006E+02  0.10946E-03
 0.47130005E+02 -0.35024E-04
 0.47180004E+02 -0.77492E-04
 0.47230003E+02  0.32330E-04
 0.47280003E+02 -0.83598E-04
 0.47330006E+02 -0.19163E-03
 0.47380005E+02 -0.12622E-03
 0.47430004E+02 -0.19280E-03
 0.47480003E+02 -0.15066E-03
 0.47530003E+02  0.82067E-04
 0.47580006E+02  0.15075E-03
 0.47630005E+02  0.12364E-03
 0.47680004E+02  0.49135E-04
 0.47730003E+02 -0.19456E-03
 0.47780003E+02 -0.45918E-03
 0.47830006E+02 -0.52205E-03
 0.47880005E+02 -0.30800E-03
 0.47930004E+02 -0.77035E-04
 0.47980003E+02  0.35353E-04
 0.48030003E+02  0.20652E-03
 0.48080006E+02  0.20693E-03
 0.48130005E+02  0.16299E-03
 0.48180004E+02  0.31158E-03
 0.48230003E+02  0.19522E-03
 0.48280003E+02  0.79409E-05
 0.48330006E+02  0.27889E-04
 0.48380005E+02  0.69211E-04
 0.48430004E+02  0.11108E-03
 0.48480003E+02  0.12053E-03
 0.48530003E+02  0.43528E-04
 0.48580006E+02 -0.14224E-03
 0.48630005E+02 -0.11988E-03
 0.48680004E+02  0.14734E-03
 0.48730003E+02  0.28387E-03
 0.48780003E+02  0.17775E-03
 0.48830006E+02  0.88742E-04
 0.48880005E+02  0.10773E-03
 0.48930004E+02 -0.30252E-04
 0.48980003E+02 -0.61075E-04
 0.49030003E+02  0.72422E-04
 0.49080006E+02 -0.12663E-03
 0.49130005E+02 -0.31499E-03
 0.49180004E+02 -0.67504E-04
 0.49230003E+02  0.10227E-03
 0.49280003E+02  0.15312E-04
 0.49330006E+02 -0.90386E-05
 0.49380005E+02 -0.67770E-04
 0.49430004E+02 -0.23292E-03
 0.49480003E+02 -0.32203E-03
 0.49530003E+02 -0.25192E-03
 0.49580006E+02 -0.84855E-04
 0.49630005E+02  0.44673E-04
 0.49680004E+02  0.70152E-04
 0.49730003E+02 -0.15785E-04
 0.49780003E+02 -0.26957E-04
 0.49830006E+02  0.51885E-04
 0.49880005E+02  0.10176E-04
 0.49930004E+02  0.47475E-04
 0.49980003E+02  0.17086E-03
 0.50030003E+02  0.23995E-03
 0.50080006E+02  0.34183E-03
 0.50130005E+02  0.29854E-03
 0.50180004E+02  0.11797E-03
 0.50230003E+02  0.11116E-04
 0.50280003E+02 -0.35563E-04
 0.50330006E+02 -0.70416E-04
 0.50380005E+02 -0.12540E-03
 0.50430004E+02 -0.26362E-03
 0.50480003E+02 -0.29765E-03
 0.50530003E+02 -0.21468E-03
 0.50580006E+02 -0.27539E-03
 0.50630005E+02 -0.24519E-03
 0.50680004E+02 -0.79539E-04
 0.50730003E+02 -0.41961E-04
 0.50780003E+02 -0.59778E-04
 0.50830006E+02 -0.33579E-04
 0.50880005E+02 -0.42855E-04
 0.50930004E+02 -0.25436E-04
 0.50980003E+02  0.13144E-03
 0.51030003E+02  0.26819E-03
 0.51080006E+02  0.28904E-03
 0.51130005E+02  0.24524E-03
 0.51180004E+02  0.19153E-03
 0.51230003E+02  0.35106E-04
 0.51280003E+02 -0.10756E-03
 0.51330006E+02 -0.30466E-04
 0.51380005E+02  0.11465E-05
 0.51430004E+02  0.13640E-04
 0.51480003E+02  0.17630E-03
 0.51530003E+02  0.25621E-03
 0.51580006E+02  0.18130E-03
 0.51630005E+02  0.15667E-03
 0.51680004E+02  0.15209E-03
 0.51730003E+02  0.23000E-04
 0.51780003E+02 -0.33191E-04
 0.51830006E+02 -0.90674E-05
 0.51880005E+02 -0.70163E-04
 0.51930004E+02 -0.95482E-04
 0.51980003E+02 -0.73737E-04
 0.52030003E+02 -0.12470E-03
 0.52080006E+02 -0.16159E-03
 0.52130005E+02 -0.87185E-04
 0.52180004E+02 -0.39763E-04
 0.52230003E+02 -0.10903E-03
 0.52280003E+02 -0.14636E-03
 0.52330006E+02 -0.13891E-03
 0.52380005E+02 -0.20725E-03
 0.52430004E+02 -0.23246E-03
 0.52480003E+02 -0.17245E-03
 0.52530003E+02 -0.60340E-04
 0.52580006E+02  0.17314E-03
 0.52630005E+02  0.29802E-03
 0.52680004E+02  0.21510E-03
 0.52730003E+02  0.16434E-03
 0.52780003E+02  0.11724E-03
 0.52830006E+02  0.16906E-06
 0.52880005E+02 -0.64745E-04
 0.52930004E+02 -0.93906E-04
 0.52980003E+02 -0.12771E-03
 0.53030003E+02 -0.30651E-04
 0.53080006E+02  0.17584E-03
 0.53130005E+02  0.25888E-03
 0.53180004E+02  0.14162E-03
 0.53230003E+02 -0.59767E-04
 0.53280003E+02 -0.16467E-03
 0.53330006E+02 -0.92625E-04
 0.53380005E+02 -0.46609E-04
 0.53430004E+02 -0.81477E-04
 0.53480003E+02 -0.29129E-04
 0.53530003E+02  0.20657E-04
 0.53580006E+02  0.19334E-04
 0.53630005E+02  0.56633E-04
 0.53680004E+02  0.11055E-03
 0.53730003E+02  0.76247E-04
 0.53780003E+02 -0.10883E-03
 0.53830006E+02 -0.23852E-03
 0.53880005E+02 -0.22357E-03
 0.53930004E+02 -0.21383E-03
 0.53980003E+02 -0.10518E-03
 0.54030003E+02  0.84949E-05
 0.54080006E+02  0.19252E-04
 0.54130005E+02  0.21362E-03
 0.54180004E+02  0.41385E-03
 0.54230003E+02  0.34727E-03
 0.54280003E+02  0.16141E-03
 0.54330006E+02 -0.14539E-04
 0.54380005E+02 -0.91020E-04
 0.54430004E+02 -0.80107E-04
 0.54480003E+02 -0.64225E-04
 0.54530003E+02 -0.96088E-04
 0.54580006E+02 -0.13415E-03
 0.54630005E+02 -0.42338E-04
 0.54680004E+02  0.28392E-04
 0.54730003E+02  0.51621E-05
 0.54780003E+02 -0.50597E-06
 0.54830006E+02 -0.91041E-04
 0.54880005E+02 -0.14568E-03
 0.54930004E+02 -0.71353E-04
 0.54980003E+02  0.23213E-04
 0.55030003E+02  0.10600E-03
 0.55080006E+02  0.13246E-03
 0.55130005E+02  0.76340E-04
 0.55180004E+02  0.10367E-05
 0.55230003E+02 -0.26288E-04
 0.55280003E+02 -0.15231E-03
 0.55330006E+02 -0.27838E-03
 0.55380005E+02 -0.17550E-03
 0.55430004E+02  0.41606E-04
 0.55480003E+02  0.20440E-03
 0.55530003E+02  0.21954E-03
 0.55580006E+02  0.15784E-03
 0.55630005E+02  0.89951E-04
 0.55680004E+02  0.45684E-04
 0.55730003E+02  0.83545E-04
 0.55780003E+02  0.12584E-03
 0.55830006E+02  0.12413E-03
 0.55880005E+02  0.13578E-03
 0.55930004E+02  0.95328E-04
 0.55980003E+02 -0.78850E-04
 0.56030003E+02 -0.19632E-03
 0.56080006E+02 -0.17362E-03
 0.56130005E+02 -0.16882E-03
 0.56180004E+02 -0.19861E-03
 0.56230003E+02 -0.19574E-03
 0.56280003E+02 -0.13262E-03
 0.56330006E+02 -0.60975E-04
 0.56380005E+02  0.78119E-04
 0.56430004E+02  0.21965E-03
 0.56480003E+02  0.11699E-03
 0.56530003E+02 -0.20868E-05
 0.56580006E+02  0.35532E-04
 0.56630005E+02  0.22848E-04
 0.56680004E+02  0.18254E-04
 0.56730003E+02  0.76188E-04
 0.56780003E+02  0.52396E-04
 0.56830006E+02  0.63954E-05
 0.56880005E+02 -0.29125E-04
 0.56930004E+02 -0.37627E-04
 0.56980003E+02  0.59308E-04
 0.57030003E+02  0.14619E-03
 0.57080006E+02  0.14793E-03
 0.57130005E+02  0.60790E-04
 0.57180004E+02 -0.31887E-04
 0.57230003E+02 -0.83678E-04
 0.57280003E+02 -0.14400E-03
 0.57330006E+02 -0.11827E-03
 0.57380005E+02 -0.20318E-04
 0.57430004E+02  0.28885E-04
 0.57480003E+02  0.11955E-04
 0.57530003E+02 -0.20731E-04
 0.57580006E+02 -0.16001E-04
 0.57630005E+02 -0.40022E-04
 0.57680004E+02 -0.14766E-03
 0.57730003E+02 -0.21824E-03
 0.57780003E+02 -0.19313E-03
 0.57830006E+02 -0.92186E-04
 0.57880005E+02  0.41550E-04
 0.57930004E+02  0.10098E-03
 0.57980003E+02  0.64645E-04
 0.58030003E+02  0.11686E-04
 0.58080006E+02  0.41121E-04
 0.58130005E+02  0.89226E-04
 0.58180004E+02  0.77649E-04
 0.58230003E+02  0.23909E-04
 0.58280003E+02 -0.56529E-04
 0.58330006E+02 -0.40015E-04
 0.58380005E+02  0.70628E-04
 0.58430004E+02  0.17647E-03
 0.58480003E+02  0.25572E-03
 0.58530003E+02  0.23921E-03
 0.58580006E+02  0.13705E-03
 0.58630005E+02  0.41103E-04
 0.58680004E+02 -0.66969E-04
 0.58730003E+02 -0.16642E-03
 0.58780003E+02 -0.14779E-03
 0.58830006E+02 -0.76405E-04
 0.58880005E+02 -0.14809E-04
 0.58930004E+02  0.35911E-04
 0.58980003E+02  0.93660E-05
 0.59030003E+02 -0.64746E-04
 0.59080006E+02 -0.13852E-03
 0.59130005E+02 -0.18412E-03
 0.59180004E+02 -0.12943E-03
 0.59230003E+02 -0.10653E-04
 0.59280003E+02  0.44261E-04
 0.59330006E+02  0.36695E-04
 0.59380005E+02 -0.15666E-04
 0.59430004E+02 -0.93101E-04
 0.59480003E+02 -0.12016E-03
 0.59530003E+02 -0.12701E-03
 0.59580006E+02 -0.13234E-03
 0.59630005E+02 -0.10065E-03
 0.59680004E+02 -0.19706E-04
 0.59730003E+02  0.84072E-04
 0.59780003E+02  0.17548E-03
 0.59830006E+02  0.20407E-03
 0.59880005E+02  0.18721E-03
 0.59930004E+02  0.22634E-03
 0.59980003E+02  0.23612E-03
 0.60030003E+02  0.12921E-03
 0.60080006E+02  0.54330E-04
 0.60130005E+02  0.28667E-04
 0.60180004E+02 -0.58458E-05
 0.60230003E+02  0.32628E-04
 0.60280003E+02  0.35939E-04
 0.60330006E+02 -0.50730E-04
 0.60380005E+02 -0.10021E-03
 0.60430004E+02 -0.10506E-03
 0.60480003E+02 -0.71785E-04
 0.60530003E+02 -0.98068E-05
 0.60580006E+02  0.42802E-04
 0.60630005E+02  0.30775E-04
 0.60680004E+02 -0.78123E-05
 0.60730003E+02  0.16668E-05
 0.60780003E+02 -0.86648E-05
 0.60830006E+02 -0.94980E-04
 0.60880005E+02 -0.20046E-03
 0.60930004E+02 -0.25267E-03
 0.60980003E+02 -0.27782E-03
 0.61030003E+02 -0.23043E-03
 0.61080006E+02 -0.10798E-03
 0.61130005E+02 -0.16315E-04
 0.61180004E+02  0.64394E-04
 0.61230003E+02  0.14757E-03
 0.61280003E+02  0.21340E-03
 0.61330006E+02  0.22246E-03
 0.61380005E+02  0.19253E-03
 0.61430004E+02  0.17648E-03
 0.61480003E+02  0.16474E-03
 0.61530003E+02  0.14146E-03
 0.61580006E+02  0.12157E-03
 0.61630005E+02  0.44113E-04
 0.61680004E+02 -0.93417E-04
 0.61730003E+02 -0.13017E-03
 0.61780003E+02 -0.93394E-04
 0.61830006E+02 -0.51323E-04
 0.61880005E+02 -0.14977E-04
 0.61930004E+02 -0.31494E-04
 0.61980003E+02 -0.68688E-04
 0.62030003E+02 -0.67156E-04
 0.62080006E+02 -0.15688E-04
 0.62130005E+02  0.55354E-04
 0.62180004E+02  0.66633E-04
 0.62230003E+02 -0.10236E-05
 0.62280003E+02 -0.44940E-04
 0.62330006E+02 -0.74163E-05
 0.62380005E+02  0.48293E-04
 0.62430004E+02  0.44289E-04
 0.62480003E+02  0.14822E-04
 0.62530003E+02 -0.22092E-04
 0.62580006E+02 -0.30710E-04
 0.62630005E+02  0.92811E-05
 0.62680004E+02  0.63622E-05
 0.62730003E+02 -0.15012E-04
 0.62780003E+02 -0.16663E-04
 0.62830006E+02 -0.21440E-04
 0.62880005E+02 -0.53782E-04
 0.62930004E+02 -0.11119E-03
 0.62980003E+02 -0.11767E-03
 0.63030003E+02 -0.12313E-03
 0.63080006E+02 -0.15684E-03
 0.63130005E+02 -0.14965E-03
 0.63180004E+02 -0.12778E-03
 0.63230003E+02 -0.84124E-04
 0.63280003E+02 -0.23680E-04
 0.63330006E+02  0.32021E-04
 0.63380005E+02  0.11273E-03
 0.63430004E+02  0.16721E-03
 0.63480003E+02  0.16031E-03
 0.63530003E+02  0.11200E-03
 0.63580006E+02  0.58934E-04
 0.63630005E+02  0.49283E-04
 0.63680004E+02  0.51202E-04
 0.63730003E+02  0.49098E-04
 0.63780003E+02  0.29833E-04
 0.63830006E+02  0.10604E-04
 0.63880005E+02  0.39962E-04
 0.63930004E+02  0.65016E-04
 0.63980003E+02  0.57967E-04
 0.64030006E+02  0.62366E-04
 0.64080002E+02  0.66493E-04
 0.64130005E+02  0.27533E-04
 0.64180008E+02 -0.37696E-04
 0.64230003E+02 -0.92265E-04
 0.64280006E+02 -0.72815E-04
 0.64330002E+02 -0.39426E-04
 0.64380005E+02 -0.51686E-04
 0.64430008E+02 -0.99462E-05
 0.64480003E+02  0.30340E-04
 0.64530006E+02  0.21709E-04
 0.64580002E+02  0.45177E-04
 0.64630005E+02  0.51489E-04
 0.64680008E+02 -0.50559E-05
 0.64730003E+02 -0.24773E-04
 0.64780006E+02  0.26410E-04
 0.64830002E+02  0.62041E-04
 0.64880005E+02  0.10316E-03
 0.64930008E+02  0.11333E-03
 0.64980003E+02 -0.30146E-05
 0.65030006E+02 -0.11590E-03
 0.65080002E+02 -0.17307E-03
 0.65130005E+02 -0.17604E-03
 0.65180008E+02 -0.11584E-03
 0.65230003E+02 -0.62650E-04
 0.65280006E+02 -0.19352E-04
 0.65330002E+02 -0.11523E-04
 0.65380005E+02 -0.93842E-05
 0.65430008E+02  0.62598E-05
 0.65480003E+02  0.76052E-06
 0.65530006E+02 -0.57311E-05
 0.65580002E+02  0.17882E-05
 0.65630005E+02  0.24955E-04
 0.65680008E+02  0.75264E-04
 0.65730003E+02  0.13600E-03
 0.65780006E+02  0.12110E-03
 0.65830002E+02  0.48986E-04
 0.65880005E+02  0.17689E-04
 0.65930008E+02 -0.10922E-04
 0.65980003E+02 -0.49424E-04
 0.66030006E+02 -0.21340E-04
 0.66080002E+02 -0.25596E-04
 0.66130005E+02 -0.91480E-04
 0.66180008E+02 -0.83079E-04
 0.66230003E+02 -0.44135E-04
 0.66280006E+02 -0.37732E-04
 0.66330002E+02 -0.22145E-04
 0.66380005E+02  0.20058E-04
 0.66430008E+02  0.76484E-04
 0.66480003E+02  0.10611E-03
 0.66530006E+02  0.85441E-04
 0.66580002E+02  0.28855E-04
 0.66630005E+02 -0.56317E-04
 0.66680008E+02 -0.98875E-04
 0.66730003E+02 -0.81356E-04
 0.66780006E+02 -0.52322E-04
 0.66830002E+02  0.20448E-04
 0.66880005E+02  0.88482E-04
 0.66930008E+02  0.93787E-04
 0.66980003E+02  0.70699E-04
 0.67030006E+02  0.33375E-04
 0.67080002E+02 -0.31192E-04
 0.67130005E+02 -0.79051E-04
 0.67180008E+02 -0.61998E-04
 0.67230003E+02 -0.34488E-04
 0.67280006E+02 -0.11240E-04
 0.67330002E+02  0.13584E-04
 0.67380005E+02  0.21615E-04
 0.67430008E+02  0.31856E-04
 0.67480003E+02  0.53901E-04
 0.67530006E+02  0.56876E-04
 0.67580002E+02  0.48979E-05
 0.67630005E+02 -0.37272E-04
 0.67680008E+02 -0.34423E-04
 0.67730003E+02 -0.30002E-04
 0.67780006E+02 -0.15253E-04
 0.67830002E+02  0.19416E-05
 0.67880005E+02  0.31582E-04
 0.67930008E+02  0.10308E-03
 0.67980003E+02  0.15077E-03
 0.68030006E+02  0.11998E-03
 0.68080002E+02  0.42694E-04
 0.68130005E+02 -0.27650E-04
 0.68180008E+02 -0.62106E-04
 0.68230003E+02 -0.88086E-04
 0.68280006E+02 -0.10817E-03
 0.68330002E+02 -0.98739E-04
 0.68380005E+02 -0.87045E-04
 0.68430008E+02 -0.10704E-03
 0.68480003E+02 -0.14060E-03
 0.68530006E+02 -0.13067E-03
 0.68580002E+02 -0.88104E-04
 0.68630005E+02 -0.21514E-04
 0.68680008E+02  0.65734E-04
 0.68730003E+02  0.11841E-03
 0.68780006E+02  0.13572E-03
 0.68830002E+02  0.10303E-03
 0.68880005E+02  0.45826E-04
 0.68930008E+02  0.12731E-04
 0.68980003E+02 -0.26110E-05
 0.69030006E+02  0.20443E-04
 0.69080002E+02  0.46845E-04
 0.69130005E+02  0.43208E-04
 0.69180008E+02  0.56681E-05
 0.69230003E+02 -0.54987E-04
 0.69280006E+02 -0.75202E-04
 0.69330002E+02 -0.70948E-04
 0.69380005E+02 -0.52457E-04
 0.69430008E+02 -0.10662E-04
 0.69480003E+02  0.60929E-05
 0.69530006E+02  0.12158E-04
 0.69580002E+02  0.20454E-04
 0.69630005E+02  0.13768E-04
 0.69680008E+02  0.54354E-05
 0.69730003E+02  0.22289E-04
 0.69780006E+02  0.52538E-04
 0.69830002E+02  0.55688E-04
 0.69880005E+02  0.48478E-04
 0.69930008E+02  0.45503E-04
 0.69980003E+02  0.30585E-04
 0.70030006E+02  0.19970E-04
 0.70080002E+02  0.44268E-04
 0.70130005E+02  0.93667E-04
 0.70180008E+02  0.10421E-03
 0.70230003E+02  0.37322E-04
 0.70280006E+02 -0.57642E-04
 0.70330002E+02 -0.10672E-03
 0.70380005E+02 -0.10661E-03
 0.70430008E+02 -0.97891E-04
 0.70480003E+02 -0.62073E-04
 0.70530006E+02 -0.11836E-04
 0.70580002E+02 -0.39105E-05
 0.70630005E+02 -0.13852E-04
 0.70680008E+02 -0.37781E-04
 0.70730003E+02 -0.47662E-04
 0.70780006E+02 -0.55262E-05
 0.70830002E+02  0.21761E-04
 0.70880005E+02  0.45228E-04
 0.70930008E+02  0.51641E-04
 0.70980003E+02 -0.43291E-05
 0.71030006E+02 -0.44175E-04
 0.71080002E+02 -0.38407E-04
 0.71130005E+02 -0.14782E-05
 0.71180008E+02  0.49730E-04
 0.71230003E+02  0.65929E-04
 0.71280006E+02  0.43020E-04
 0.71330002E+02  0.18372E-04
 0.71380005E+02  0.94390E-05
 0.71430008E+02  0.20878E-04
 0.71480003E+02  0.34347E-04
 0.71530006E+02  0.37046E-04
 0.71580002E+02  0.23261E-04
 0.71630005E+02 -0.20135E-04
 0.71680008E+02 -0.31088E-04
 0.71730003E+02  0.62439E-05
 0.71780006E+02  0.15410E-04
 0.71830002E+02 -0.22471E-04
 0.71880005E+02 -0.51732E-04
 0.71930008E+02 -0.43807E-04
 0.71980003E+02 -0.31294E-04
 0.72030006E+02 -0.49865E-04
 0.72080002E+02 -0.89401E-04
 0.72130005E+02 -0.99258E-04
 0.72180008E+02 -0.88130E-04
 0.72230003E+02 -0.66224E-04
 0.72280006E+02 -0.16208E-04
 0.72330002E+02  0.22219E-04
 0.72380005E+02  0.32895E-04
 0.72430008E+02  0.53494E-04
 0.72480003E+02  0.54472E-04
 0.72530006E+02  0.29688E-04
 0.72580002E+02  0.56649E-04
 0.72630005E+02  0.93462E-04
 0.72680008E+02  0.90212E-04
 0.72730003E+02  0.74112E-04
 0.72780006E+02  0.41544E-04
 0.72830002E+02 -0.97803E-06
 0.72880005E+02 -0.14706E-04
 0.72930008E+02  0.58082E-05
 0.72980003E+02  0.10251E-04
 0.73030006E+02 -0.20395E-04
 0.73080002E+02 -0.51583E-04
 0.73130005E+02 -0.36806E-04
 0.73180008E+02 -0.58012E-05
 0.73230003E+02 -0.12883E-04
 0.73280006E+02 -0.80349E-05
 0.73330002E+02  0.21646E-04
 0.73380005E+02  0.17756E-04
 0.73430008E+02  0.15773E-04
 0.73480003E+02  0.16370E-04
 0.73530006E+02 -0.18766E-04
 0.73580002E+02 -0.18241E-04
 0.73630005E+02  0.48779E-05
 0.73680008E+02 -0.81732E-05
 0.73730003E+02 -0.17487E-04
 0.73780006E+02 -0.24513E-04
 0.73830002E+02 -0.54480E-04
 0.73880005E+02 -0.73515E-04
 0.73930008E+02 -0.70683E-04
 0.73980003E+02 -0.63310E-04
 0.74030006E+02 -0.38601E-04
 0.74080002E+02  0.78886E-05
 0.74130005E+02  0.48911E-04
 0.74180008E+02  0.63130E-04
 0.74230003E+02  0.61047E-04
 0.74280006E+02  0.61571E-04
 0.74330002E+02  0.56543E-04
 0.74380005E+02  0.30860E-04
 0.74430008E+02  0.13603E-04
 0.74480003E+02 -0.91421E-05
 0.74530006E+02 -0.63565E-04
 0.74580002E+02 -0.76867E-04
 0.74630005E+02 -0.47661E-04
 0.74680008E+02 -0.52691E-05
 0.74730003E+02  0.71287E-04
 0.74780006E+02  0.12805E-03
 0.74830002E+02  0.12842E-03
 0.74880005E+02  0.10498E-03
 0.74930008E+02  0.53654E-04
 0.74980003E+02 -0.15316E-04
 0.75030006E+02 -0.33568E-04
 0.75080002E+02 -0.31013E-04
 0.75130005E+02 -0.49815E-04
 0.75180008E+02 -0.45320E-04
 0.75230003E+02 -0.42234E-04
 0.75280006E+02 -0.63215E-04
 0.75330002E+02 -0.65480E-04
 0.75380005E+02 -0.44757E-04
 0.75430008E+02 -0.19718E-04
 0.75480003E+02  0.20268E-06
 0.75530006E+02  0.10051E-04
 0.75580002E+02  0.50785E-05
 0.75630005E+02 -0.21112E-04
 0.75680008E+02 -0.23653E-04
 0.75730003E+02  0.10806E-04
 0.75780006E+02  0.36862E-04
 0.75830002E+02  0.60579E-04
 0.75880005E+02  0.67778E-04
 0.75930008E+02  0.44620E-04
 0.75980003E+02  0.27003E-04
 0.76030006E+02  0.18255E-04
 0.76080002E+02 -0.30454E-06
 0.76130005E+02 -0.18572E-04
 0.76180008E+02 -0.19575E-04
 0.76230003E+02 -0.36077E-04
 0.76280006E+02 -0.68408E-04
 0.76330002E+02 -0.86335E-04
 0.76380005E+02 -0.12112E-03
 0.76430008E+02 -0.14503E-03
 0.76480003E+02 -0.10907E-03
 0.76530006E+02 -0.65322E-04
 0.76580002E+02 -0.40305E-04
 0.76630005E+02 -0.27614E-05
 0.76680008E+02  0.40121E-04
 0.76730003E+02  0.56522E-04
 0.76780006E+02  0.76132E-04
 0.76830002E+02  0.12480E-03
 0.76880005E+02  0.14726E-03
 0.76930008E+02  0.14165E-03
 0.76980003E+02  0.13014E-03
 0.77030006E+02  0.89054E-04
 0.77080002E+02  0.34616E-04
 0.77130005E+02 -0.16802E-04
 0.77180008E+02 -0.49119E-04
 0.77230003E+02 -0.45124E-04
 0.77280006E+02 -0.34040E-04
 0.77330002E+02 -0.39599E-04
 0.77380005E+02 -0.39496E-04
 0.77430008E+02 -0.13157E-04
 0.77480003E+02  0.43943E-05
 0.77530006E+02  0.11044E-04
 0.77580002E+02  0.19933E-04
 0.77630005E+02  0.49512E-05
 0.77680008E+02 -0.71795E-05
 0.77730003E+02 -0.27545E-05
 0.77780006E+02  0.67268E-05
 0.77830002E+02  0.35907E-04
 0.77880005E+02  0.57646E-04
 0.77930008E+02  0.49247E-04
 0.77980003E+02  0.52958E-05
 0.78030006E+02 -0.66191E-04
 0.78080002E+02 -0.10111E-03
 0.78130005E+02 -0.81988E-04
 0.78180008E+02 -0.56740E-04
 0.78230003E+02 -0.30105E-04
 0.78280006E+02  0.17545E-04
 0.78330002E+02  0.36807E-04
 0.78380005E+02  0.17169E-04
 0.78430008E+02  0.12554E-04
 0.78480003E+02  0.21684E-05
 0.78530006E+02  0.64259E-05
 0.78580002E+02  0.32200E-04
 0.78630005E+02  0.10475E-04
 0.78680008E+02 -0.35088E-04
 0.78730003E+02 -0.68225E-04
 0.78780006E+02 -0.82776E-04
 0.78830002E+02 -0.69190E-04
 0.78880005E+02 -0.40288E-04
 0.78930008E+02 -0.21665E-04
 0.78980003E+02 -0.22424E-04
 0.79030006E+02 -0.20901E-04
 0.79080002E+02 -0.35818E-05
 0.79130005E+02  0.20193E-04
 0.79180008E+02  0.35357E-04
 0.79230003E+02  0.68070E-04
 0.79280006E+02  0.10722E-03
 0.79330002E+02  0.11094E-03
 0.79380005E+02  0.90575E-04
 0.79430008E+02  0.53608E-04
 0.79480003E+02  0.10875E-04
 0.79530006E+02 -0.14644E-04
 0.79580002E+02 -0.10038E-04
 0.79630005E+02  0.68186E-05
 0.79680008E+02  0.33608E-04
 0.79730003E+02  0.54895E-04
 0.79780006E+02  0.21503E-04
 0.79830002E+02 -0.33424E-04
 0.79880005E+02 -0.66933E-04
 0.79930008E+02 -0.84392E-04
 0.79980003E+02 -0.65507E-04
 0.80030006E+02 -0.60526E-05
 0.80080002E+02  0.54183E-04
 0.80130005E+02  0.86489E-04
 0.80180008E+02  0.65829E-04
 0.80230003E+02  0.38438E-05
 0.80280006E+02 -0.44075E-04
 0.80330002E+02 -0.64791E-04
 0.80380005E+02 -0.67972E-04
 0.80430008E+02 -0.63101E-04
 0.80480003E+02 -0.56418E-04
 0.80530006E+02 -0.36030E-04
 0.80580002E+02 -0.19855E-05
 0.80630005E+02  0.28565E-04
 0.80680008E+02  0.36384E-04
 0.80730003E+02  0.17755E-04
 0.80780006E+02 -0.10355E-04
 0.80830002E+02 -0.27136E-04
 0.80880005E+02 -0.35694E-04
 0.80930008E+02 -0.42694E-04
 0.80980003E+02 -0.26868E-04
 0.81030006E+02 -0.92113E-05
 0.81080002E+02 -0.13232E-04
 0.81130005E+02 -0.14629E-05
 0.81180008E+02  0.16800E-04
 0.81230003E+02  0.12924E-04
 0.81280006E+02 -0.61236E-05
 0.81330002E+02 -0.41657E-04
 0.81380005E+02 -0.64210E-04
 0.81430008E+02 -0.33148E-04
 0.81480003E+02  0.21790E-04
 0.81530006E+02  0.57174E-04
 0.81580002E+02  0.82055E-04
 0.81630005E+02  0.95220E-04
 0.81680008E+02  0.92840E-04
 0.81730003E+02  0.83078E-04
 0.81780006E+02  0.51797E-04
 0.81830002E+02  0.25848E-04
 0.81880005E+02  0.20149E-04
 0.81930008E+02  0.14217E-04
 0.81980003E+02  0.18416E-04
 0.82030006E+02  0.31613E-04
 0.82080002E+02  0.34962E-04
 0.82130005E+02  0.23607E-04
 0.82180008E+02  0.17454E-04
 0.82230003E+02 -0.28764E-05
 0.82280006E+02 -0.46825E-04
 0.82330002E+02 -0.69593E-04
 0.82380005E+02 -0.81009E-04
 0.82430008E+02 -0.98699E-04
 0.82480003E+02 -0.91145E-04
 0.82530006E+02 -0.62994E-04
 0.82580002E+02 -0.48402E-04
 0.82630005E+02 -0.39872E-04
 0.82680008E+02 -0.22548E-04
 0.82730003E+02  0.20119E-06
 0.82780006E+02  0.23849E-04
 0.82830002E+02  0.51924E-04
 0.82880005E+02  0.58192E-04
 0.82930008E+02  0.29271E-04
 0.82980003E+02  0.86763E-05
 0.83030006E+02 -0.10759E-04
 0.83080002E+02 -0.37973E-04
 0.83130005E+02 -0.43685E-04
 0.83180008E+02 -0.36230E-04
 0.83230003E+02 -0.27164E-04
 0.83280006E+02 -0.74268E-05
 0.83330002E+02  0.21638E-04
 0.83380005E+02  0.40355E-04
 0.83430008E+02  0.42193E-04
 0.83480003E+02  0.37651E-04
 0.83530006E+02  0.29405E-04
 0.83580002E+02  0.21198E-04
 0.83630005E+02  0.30416E-04
 0.83680008E+02  0.60778E-04
 0.83730003E+02  0.86229E-04
 0.83780006E+02  0.77947E-04
 0.83830002E+02  0.27481E-04
 0.83880005E+02 -0.34695E-04
 0.83930008E+02 -0.69367E-04
 0.83980003E+02 -0.84802E-04
 0.84030006E+02 -0.10154E-03
 0.84080002E+02 -0.11012E-03
 0.84130005E+02 -0.96443E-04
 0.84180008E+02 -0.56682E-04
 0.84230003E+02 -0.35431E-05
 0.84280006E+02  0.45811E-04
 0.84330002E+02  0.79935E-04
 0.84380005E+02  0.91381E-04
 0.84430008E+02  0.87944E-04
 0.84480003E+02  0.70940E-04
 0.84530006E+02  0.45370E-04
 0.84580002E+02  0.44372E-04
 0.84630005E+02  0.71444E-04
 0.84680008E+02  0.68712E-04
 0.84730003E+02  0.14226E-04
 0.84780006E+02 -0.39926E-04
 0.84830002E+02 -0.74566E-04
 0.84880005E+02 -0.88438E-04
 0.84930008E+02 -0.80566E-04
 0.84980003E+02 -0.68271E-04
 0.85030006E+02 -0.41331E-04
 0.85080002E+02 -0.16631E-04
 0.85130005E+02 -0.61536E-05
 0.85180008E+02  0.52652E-05
 0.85230003E+02  0.53453E-05
 0.85280006E+02 -0.12220E-04
 0.85330002E+02 -0.38511E-04
 0.85380005E+02 -0.62463E-04
 0.85430008E+02 -0.52392E-04
 0.85480003E+02 -0.11481E-04
 0.85530006E+02  0.50499E-05
 0.85580002E+02  0.18654E-04
 0.85630005E+02  0.60099E-04
 0.85680008E+02  0.93538E-04
 0.85730003E+02  0.97807E-04
 0.85780006E+02  0.87712E-04
 0.85830002E+02  0.65464E-04
 0.85880005E+02  0.18559E-04
 0.85930008E+02 -0.27506E-04
 0.85980003E+02 -0.55844E-04
 0.86030006E+02 -0.59381E-04
 0.86080002E+02 -0.37980E-04
 0.86130005E+02 -0.14854E-04
 0.86180008E+02 -0.11033E-04
 0.86230003E+02 -0.19752E-04
 0.86280006E+02 -0.72298E-05
 0.86330002E+02  0.19040E-04
 0.86380005E+02  0.21148E-04
 0.86430008E+02  0.41195E-05
 0.86480003E+02 -0.60645E-06
 0.86530006E+02  0.47006E-05
 0.86580002E+02  0.27075E-05
 0.86630005E+02 -0.52714E-05
 0.86680008E+02 -0.94814E-05
 0.86730003E+02 -0.10563E-04
 0.86780006E+02 -0.16819E-04
 0.86830002E+02 -0.18413E-04
 0.86880005E+02 -0.13496E-04
 0.86930008E+02 -0.22731E-04
 0.86980003E+02 -0.45199E-04
 0.87030006E+02 -0.59920E-04
 0.87080002E+02 -0.49781E-04
 0.87130005E+02 -0.15748E-04
 0.87180008E+02  0.16301E-04
 0.87230003E+02  0.28845E-04
 0.87280006E+02  0.40598E-04
 0.87330002E+02  0.56224E-04
 0.87380005E+02  0.62098E-04
 0.87430008E+02  0.64215E-04
 0.87480003E+02  0.53823E-04
 0.87530006E+02  0.34374E-04
 0.87580002E+02  0.24246E-04
 0.87630005E+02  0.10237E-04
 0.87680008E+02 -0.49646E-05
 0.87730003E+02  0.35520E-05
 0.87780006E+02  0.50615E-05
 0.87830002E+02 -0.18727E-04
 0.87880005E+02 -0.24777E-04
 0.87930008E+02 -0.19653E-04
 0.87980003E+02 -0.14706E-04
 0.88030006E+02 -0.13776E-04
 0.88080002E+02 -0.29769E-04
 0.88130005E+02 -0.22255E-04
 0.88180008E+02 -0.43975E-06
 0.88230003E+02  0.64503E-06
 0.88280006E+02  0.56004E-05
 0.88330002E+02  0.45569E-05
 0.88380005E+02 -0.20062E-04
 0.88430008E+02 -0.28183E-04
 0.88480003E+02 -0.13956E-04
 0.88530006E+02  0.49080E-06
 0.88580002E+02  0.15756E-04
 0.88630005E+02  0.20557E-05
 0.88680008E+02 -0.30177E-04
 0.88730003E+02 -0.36188E-04
 0.88780006E+02 -0.32834E-04
 0.88830002E+02 -0.23228E-04
 0.88880005E+02  0.24123E-05
 0.88930008E+02  0.23613E-04
 0.88980003E+02  0.33891E-04
 0.89030006E+02  0.28652E-04
 0.89080002E+02  0.60508E-05
 0.89130005E+02 -0.91149E-05
 0.89180008E+02 -0.63689E-05
 0.89230003E+02  0.68652E-05
 0.89280006E+02  0.24942E-04
 0.89330002E+02  0.33327E-04
 0.89380005E+02  0.35581E-04
 0.89430008E+02  0.44549E-04
 0.89480003E+02  0.46264E-04
 0.89530006E+02  0.32381E-04
 0.89580002E+02  0.14492E-04
 0.89630005E+02  0.13560E-05
 0.89680008E+02 -0.12109E-07
 0.89730003E+02  0.91320E-05
 0.89780006E+02  0.95124E-05
 0.89830002E+02 -0.14383E-04
 0.89880005E+02 -0.44004E-04
 0.89930008E+02 -0.69000E-04
 0.89980003E+02 -0.86852E-04
 0.90030006E+02 -0.69620E-04
 0.90080002E+02 -0.44824E-04
 0.90130005E+02 -0.49682E-04
 0.90180008E+02 -0.49749E-04
 0.90230003E+02 -0.13373E-04
 0.90280006E+02  0.45136E-04
 0.90330002E+02  0.93397E-04
 0.90380005E+02  0.11655E-03
 0.90430008E+02  0.10284E-03
 0.90480003E+02  0.60555E-04
 0.90530006E+02  0.23795E-04
 0.90580002E+02 -0.69333E-05
 0.90630005E+02 -0.34357E-04
 0.90680008E+02 -0.41689E-04
 0.90730003E+02 -0.43823E-04
 0.90780006E+02 -0.60070E-04
 0.90830002E+02 -0.65864E-04
 0.90880005E+02 -0.58356E-04
 0.90930008E+02 -0.55486E-04
 0.90980003E+02 -0.34966E-04
 0.91030006E+02  0.82775E-06
 0.91080002E+02  0.32174E-04
 0.91130005E+02  0.53805E-04
 0.91180008E+02  0.55175E-04
 0.91230003E+02  0.55093E-04
 0.91280006E+02  0.54770E-04
 0.91330002E+02  0.51647E-04
 0.91380005E+02  0.60512E-04
 0.91430008E+02  0.55226E-04
 0.91480003E+02  0.31183E-04
 0.91530006E+02  0.11189E-04
 0.91580002E+02  0.16456E-05
 0.91630005E+02  0.15640E-05
 0.91680008E+02 -0.85213E-05
 0.91730003E+02 -0.42499E-04
 0.91780006E+02 -0.79465E-04
 0.91830002E+02 -0.89964E-04
 0.91880005E+02 -0.73178E-04
 0.91930008E+02 -0.57281E-04
 0.91980003E+02 -0.61681E-04
 0.92030006E+02 -0.69625E-04
 0.92080002E+02 -0.63370E-04
 0.92130005E+02 -0.48197E-04
 0.92180008E+02 -0.16816E-04
 0.92230003E+02  0.28608E-04
 0.92280006E+02  0.53902E-04
 0.92330002E+02  0.58949E-04
 0.92380005E+02  0.65914E-04
 0.92430008E+02  0.65264E-04
 0.92480003E+02  0.56233E-04
 0.92530006E+02  0.47568E-04
 0.92580002E+02  0.28579E-04
 0.92630005E+02  0.26273E-05
 0.92680008E+02 -0.20975E-04
 0.92730003E+02 -0.40573E-04
 0.92780006E+02 -0.48253E-04
 0.92830002E+02 -0.40231E-04
 0.92880005E+02 -0.19852E-04
 0.92930008E+02  0.26017E-05
 0.92980003E+02  0.16277E-04
 0.93030006E+02  0.18776E-04
 0.93080002E+02  0.21849E-04
 0.93130005E+02  0.36302E-04
 0.93180008E+02  0.54465E-04
 0.93230003E+02  0.60625E-04
 0.93280006E+02  0.50490E-04
 0.93330002E+02  0.47034E-04
 0.93380005E+02  0.59869E-04
 0.93430008E+02  0.65987E-04
 0.93480003E+02  0.56718E-04
 0.93530006E+02  0.38000E-04
 0.93580002E+02  0.78700E-05
 0.93630005E+02 -0.29994E-04
 0.93680008E+02 -0.65108E-04
 0.93730003E+02 -0.94240E-04
 0.93780006E+02 -0.10624E-03
 0.93830002E+02 -0.10009E-03
 0.93880005E+02 -0.87973E-04
 0.93930008E+02 -0.69333E-04
 0.93980003E+02 -0.47352E-04
 0.94030006E+02 -0.26620E-04
 0.94080002E+02 -0.15766E-04
 0.94130005E+02 -0.17136E-04
 0.94180008E+02 -0.24057E-04
 0.94230003E+02 -0.33219E-04
 0.94280006E+02 -0.31427E-04
 0.94330002E+02 -0.10805E-04
 0.94380005E+02  0.22894E-04
 0.94430008E+02  0.53211E-04
 0.94480003E+02  0.63699E-04
 0.94530006E+02  0.59288E-04
 0.94580002E+02  0.55280E-04
 0.94630005E+02  0.53375E-04
 0.94680008E+02  0.55617E-04
 0.94730003E+02  0.54160E-04
 0.94780006E+02  0.37429E-04
 0.94830002E+02  0.25964E-04
 0.94880005E+02  0.16007E-04
 0.94930008E+02 -0.17726E-05
 0.94980003E+02 -0.13622E-04
 0.95030006E+02 -0.22003E-04
 0.95080002E+02 -0.20874E-04
 0.95130005E+02 -0.15749E-04
 0.95180008E+02 -0.18099E-04
 0.95230003E+02 -0.17521E-04
 0.95280006E+02 -0.10600E-04
 0.95330002E+02 -0.60489E-05
 0.95380005E+02 -0.10616E-04
 0.95430008E+02 -0.17564E-04
 0.95480003E+02 -0.17379E-04
 0.95530006E+02 -0.53465E-05
 0.95580002E+02  0.13694E-04
 0.95630005E+02  0.25546E-04
 0.95680008E+02  0.24734E-04
 0.95730003E+02  0.18086E-04
 0.95780006E+02  0.15593E-04
 0.95830002E+02  0.12158E-04
 0.95880005E+02  0.51042E-05
 0.95930008E+02 -0.48705E-05
 0.95980003E+02 -0.27103E-04
 0.96030006E+02 -0.41187E-04
 0.96080002E+02 -0.39210E-04
 0.96130005E+02 -0.41083E-04
 0.96180008E+02 -0.33497E-04
 0.96230003E+02 -0.14889E-04
 0.96280006E+02  0.65280E-05
 0.96330002E+02  0.41341E-04
 0.96380005E+02  0.62630E-04
 0.96430008E+02  0.52441E-04
 0.96480003E+02  0.37353E-04
 0.96530006E+02  0.23798E-04
 0.96580002E+02  0.91818E-05
 0.96630005E+02 -0.51611E-05
 0.96680008E+02 -0.22704E-04
 0.96730003E+02 -0.35042E-04
 0.96780006E+02 -0.35570E-04
 0.96830002E+02 -0.30002E-04
 0.96880005E+02 -0.25008E-04
 0.96930008E+02 -0.28402E-04
 0.96980003E+02 -0.42623E-04
 0.97030006E+02 -0.42567E-04
 0.97080002E+02 -0.16237E-04
 0.97130005E+02  0.14680E-04
 0.97180008E+02  0.40315E-04
 0.97230003E+02  0.56504E-04
 0.97280006E+02  0.57417E-04
 0.97330002E+02  0.44205E-04
 0.97380005E+02  0.17965E-04
 0.97430008E+02 -0.15912E-04
 0.97480003E+02 -0.40956E-04
 0.97530006E+02 -0.49035E-04
 0.97580002E+02 -0.44200E-04
 0.97630005E+02 -0.29280E-04
 0.97680008E+02 -0.12276E-04
 0.97730003E+02  0.10265E-04
 0.97780006E+02  0.37119E-04
 0.97830002E+02  0.54514E-04
 0.97880005E+02  0.62962E-04
 0.97930008E+02  0.61399E-04
 0.97980003E+02  0.44325E-04
 0.98030006E+02  0.18902E-04
 0.98080002E+02 -0.18100E-05
 0.98130005E+02 -0.17976E-04
 0.98180008E+02 -0.27926E-04
 0.98230003E+02 -0.24709E-04
 0.98280006E+02 -0.15878E-04
 0.98330002E+02 -0.12325E-04
 0.98380005E+02 -0.21329E-04
 0.98430008E+02 -0.43705E-04
 0.98480003E+02 -0.70456E-04
 0.98530006E+02 -0.87413E-04
 0.98580002E+02 -0.77775E-04
 0.98630005E+02 -0.43077E-04
 0.98680008E+02 -0.29173E-05
 0.98730003E+02  0.30053E-04
 0.98780006E+02  0.51435E-04
 0.98830002E+02  0.69616E-04
 0.98880005E+02  0.81924E-04
 0.98930008E+02  0.76025E-04
 0.98980003E+02  0.60991E-04
 0.99030006E+02  0.41514E-04
 0.99080002E+02  0.14472E-04
 0.99130005E+02 -0.15942E-04
 0.99180008E+02 -0.40864E-04
 0.99230003E+02 -0.57856E-04
 0.99280006E+02 -0.63807E-04
 0.99330002E+02 -0.51761E-04
 0.99380005E+02 -0.34145E-04
 0.99430008E+02 -0.17047E-04
 0.99480003E+02  0.32931E-05
 0.99530006E+02  0.19213E-04
 0.99580002E+02  0.31638E-04
 0.99630005E+02  0.42967E-04
 0.99680008E+02  0.45222E-04
 0.99730003E+02  0.37451E-04
 0.99780006E+02  0.31786E-04
 0.99830002E+02  0.27513E-04
 0.99880005E+02  0.15329E-04
 0.99930008E+02  0.29732E-06
 0.99980003E+02 -0.13689E-04
