-0.19996643E-01 -0.10901E-05
 0.30003358E-01 -0.98718E-06
 0.80003358E-01 -0.41798E-06
 0.13000336E+00  0.24924E-06
 0.18000336E+00  0.34273E-06
 0.23000336E+00  0.38406E-06
 0.28000337E+00  0.87744E-06
 0.33000335E+00  0.74786E-06
 0.38000336E+00  0.52958E-06
 0.43000337E+00  0.54561E-06
 0.48000336E+00  0.38096E-06
 0.53000337E+00  0.32168E-07
 0.58000338E+00 -0.16229E-06
 0.63000339E+00  0.10028E-06
 0.68000335E+00 -0.28338E-07
 0.73000336E+00 -0.43315E-06
 0.78000337E+00 -0.35757E-06
 0.83000338E+00  0.32779E-07
 0.88000339E+00 -0.19559E-06
 0.93000335E+00 -0.40399E-06
 0.98000336E+00  0.38969E-06
 0.10300034E+01  0.20675E-06
 0.10800034E+01 -0.34598E-06
 0.11300033E+01  0.92351E-07
 0.11800034E+01  0.13820E-06
 0.12300034E+01 -0.20755E-06
 0.12800034E+01 -0.43173E-06
 0.13300034E+01  0.96926E-07
 0.13800033E+01  0.41801E-06
 0.14300034E+01 -0.42545E-06
 0.14800034E+01 -0.74266E-07
 0.15300034E+01  0.63429E-06
 0.15800034E+01 -0.26446E-06
 0.16300033E+01 -0.65668E-06
 0.16800034E+01 -0.82812E-07
 0.17300034E+01 -0.13199E-06
 0.17800034E+01 -0.73340E-06
 0.18300034E+01 -0.32570E-06
 0.18800033E+01  0.25471E-06
 0.19300034E+01 -0.42840E-06
 0.19800034E+01 -0.42476E-06
 0.20300033E+01  0.53204E-06
 0.20800035E+01  0.47665E-06
 0.21300035E+01 -0.13434E-06
 0.21800034E+01  0.69643E-06
 0.22300034E+01  0.12140E-05
 0.22800033E+01  0.15136E-07
 0.23300035E+01  0.73693E-07
 0.23800035E+01  0.85891E-06
 0.24300034E+01  0.88035E-07
 0.24800034E+01 -0.59674E-06
 0.25300033E+01 -0.58740E-07
 0.25800035E+01  0.27529E-07
 0.26300035E+01 -0.86133E-06
 0.26800034E+01 -0.86831E-06
 0.27300034E+01  0.14786E-06
 0.27800033E+01 -0.18355E-06
 0.28300035E+01 -0.88926E-06
 0.28800035E+01  0.23928E-06
 0.29300034E+01  0.69053E-06
 0.29800034E+01 -0.46558E-06
 0.30300033E+01 -0.30533E-06
 0.30800035E+01  0.91416E-06
 0.31300035E+01  0.43010E-06
 0.31800034E+01 -0.36425E-06
 0.32300034E+01  0.67035E-06
 0.32800033E+01  0.99236E-06
 0.33300035E+01 -0.99048E-07
 0.33800035E+01 -0.18416E-08
 0.34300034E+01  0.97080E-06
 0.34800034E+01  0.36079E-06
 0.35300033E+01 -0.54060E-06
 0.35800035E+01  0.25750E-06
 0.36300035E+01  0.26877E-06
 0.36800034E+01 -0.90524E-06
 0.37300034E+01 -0.83444E-06
 0.37800033E+01 -0.20606E-07
 0.38300035E+01 -0.12710E-06
 0.38800035E+01 -0.68037E-06
 0.39300034E+01 -0.36445E-06
 0.39800034E+01  0.27479E-06
 0.40300035E+01 -0.53976E-07
 0.40800033E+01 -0.49217E-06
 0.41300035E+01  0.15230E-06
 0.41800036E+01  0.47956E-06
 0.42300034E+01 -0.24649E-06
 0.42800035E+01 -0.26846E-06
 0.43300033E+01  0.58807E-06
 0.43800035E+01  0.94727E-07
 0.44300036E+01 -0.77284E-06
 0.44800034E+01 -0.27320E-07
 0.45300035E+01  0.85133E-07
 0.45800033E+01 -0.11187E-05
 0.46300035E+01 -0.85513E-06
 0.46800036E+01  0.28640E-06
 0.47300034E+01 -0.41745E-06
 0.47800035E+01 -0.72076E-06
 0.48300033E+01  0.90818E-06
 0.48800035E+01  0.10678E-05
 0.49300036E+01 -0.30692E-06
 0.49800034E+01  0.39413E-06
 0.50300035E+01  0.15453E-05
 0.50800033E+01  0.31097E-08
 0.51300035E+01 -0.66799E-06
 0.51800036E+01  0.89522E-06
 0.52300034E+01  0.72605E-06
 0.52800035E+01 -0.84992E-06
 0.53300033E+01 -0.16558E-06
 0.53800035E+01  0.10720E-05
 0.54300036E+01 -0.10556E-06
 0.54800034E+01 -0.62448E-06
 0.55300035E+01  0.76934E-06
 0.55800033E+01  0.69513E-06
 0.56300035E+01 -0.77417E-06
 0.56800036E+01 -0.12043E-06
 0.57300034E+01  0.10621E-05
 0.57800035E+01 -0.16656E-06
 0.58300033E+01 -0.46766E-06
 0.58800035E+01  0.85596E-06
 0.59300036E+01  0.48154E-06
 0.59800034E+01 -0.39429E-06
 0.60300035E+01  0.18441E-06
 0.60800033E+01  0.48855E-06
 0.61300035E+01 -0.45546E-06
 0.61800036E+01 -0.77736E-06
 0.62300034E+01  0.72806E-07
 0.62800035E+01 -0.18592E-06
 0.63300033E+01 -0.11962E-05
 0.63800035E+01 -0.85693E-06
 0.64300036E+01 -0.23319E-06
 0.64800034E+01 -0.66602E-06
 0.65300035E+01 -0.77045E-06
 0.65800033E+01 -0.90698E-07
 0.66300035E+01 -0.19100E-06
 0.66800036E+01 -0.36600E-06
 0.67300034E+01  0.33657E-06
 0.67800035E+01  0.78176E-06
 0.68300033E+01  0.49404E-06
 0.68800035E+01  0.49131E-06
 0.69300036E+01  0.95672E-06
 0.69800034E+01  0.65773E-06
 0.70300035E+01 -0.15333E-06
 0.70800033E+01  0.77116E-07
 0.71300035E+01  0.18944E-06
 0.71800036E+01 -0.80391E-06
 0.72300034E+01 -0.82778E-06
 0.72800035E+01 -0.13248E-06
 0.73300033E+01 -0.29074E-06
 0.73800035E+01 -0.65912E-06
 0.74300036E+01 -0.16284E-07
 0.74800034E+01  0.85302E-06
 0.75300035E+01  0.17855E-06
 0.75800033E+01 -0.43051E-07
 0.76300035E+01  0.89519E-06
 0.76800036E+01  0.16099E-06
 0.77300034E+01 -0.61178E-06
 0.77800035E+01  0.70844E-07
 0.78300033E+01  0.57427E-07
 0.78800035E+01 -0.71065E-06
 0.79300036E+01 -0.45495E-06
 0.79800034E+01  0.57936E-06
 0.80300035E+01 -0.10573E-07
 0.80800037E+01 -0.53956E-06
 0.81300039E+01  0.10090E-05
 0.81800032E+01  0.97661E-06
 0.82300034E+01 -0.61960E-06
 0.82800035E+01  0.12890E-07
 0.83300037E+01  0.77775E-06
 0.83800039E+01 -0.52285E-06
 0.84300032E+01 -0.59704E-06
 0.84800034E+01  0.59990E-06
 0.85300035E+01  0.15081E-06
 0.85800037E+01 -0.58468E-06
 0.86300039E+01  0.53493E-07
 0.86800032E+01  0.49795E-06
 0.87300034E+01 -0.22826E-06
 0.87800035E+01 -0.24924E-06
 0.88300037E+01  0.76295E-06
 0.88800039E+01  0.45341E-06
 0.89300032E+01 -0.16724E-06
 0.89800034E+01  0.51995E-06
 0.90300035E+01  0.50394E-06
 0.90800037E+01 -0.57535E-06
 0.91300039E+01 -0.40411E-06
 0.91800032E+01  0.45867E-06
 0.92300034E+01 -0.29523E-06
 0.92800035E+01 -0.12553E-05
 0.93300037E+01 -0.41705E-06
 0.93800039E+01  0.15915E-06
 0.94300032E+01 -0.77231E-06
 0.94800034E+01 -0.57317E-06
 0.95300035E+01  0.42546E-06
 0.95800037E+01 -0.17626E-06
 0.96300039E+01 -0.73005E-06
 0.96800032E+01  0.26143E-07
 0.97300034E+01  0.26717E-06
 0.97800035E+01 -0.39148E-06
 0.98300037E+01  0.28410E-07
 0.98800039E+01  0.72695E-06
 0.99300032E+01  0.13131E-06
 0.99800034E+01  0.10025E-06
 0.10030004E+02  0.79023E-06
 0.10080004E+02  0.57479E-06
 0.10130004E+02  0.48030E-07
 0.10180003E+02  0.28043E-06
 0.10230003E+02  0.48842E-06
 0.10280004E+02 -0.13162E-07
 0.10330004E+02 -0.10466E-07
 0.10380004E+02  0.61075E-06
 0.10430003E+02  0.44839E-06
 0.10480003E+02  0.58736E-07
 0.10530004E+02  0.37567E-06
 0.10580004E+02  0.47619E-06
 0.10630004E+02  0.25058E-07
 0.10680003E+02 -0.24465E-06
 0.10730003E+02 -0.58100E-07
 0.10780004E+02 -0.99270E-07
 0.10830004E+02 -0.52631E-06
 0.10880004E+02 -0.34421E-06
 0.10930003E+02  0.22995E-07
 0.10980003E+02 -0.33781E-06
 0.11030004E+02 -0.56371E-06
 0.11080004E+02 -0.36417E-06
 0.11130004E+02 -0.55827E-06
 0.11180003E+02 -0.73210E-06
 0.11230003E+02 -0.43727E-06
 0.11280004E+02 -0.34798E-06
 0.11330004E+02 -0.52371E-06
 0.11380004E+02 -0.48488E-06
 0.11430003E+02 -0.33191E-06
 0.11480003E+02 -0.27715E-06
 0.11530004E+02 -0.31524E-06
 0.11580004E+02 -0.54663E-07
 0.11630004E+02  0.26324E-06
 0.11680003E+02  0.46274E-07
 0.11730003E+02 -0.30401E-07
 0.11780004E+02  0.16600E-06
 0.11830004E+02  0.27099E-06
 0.11880004E+02  0.29109E-06
 0.11930003E+02  0.27551E-06
 0.11980003E+02  0.25993E-06
 0.12030004E+02  0.15268E-06
 0.12080004E+02  0.13910E-06
 0.12130004E+02  0.23632E-06
 0.12180003E+02  0.66540E-06
 0.12230003E+02  0.81330E-06
 0.12280004E+02  0.65570E-06
 0.12330004E+02  0.83036E-06
 0.12380004E+02  0.50271E-06
 0.12430003E+02  0.62514E-07
 0.12480003E+02  0.29199E-06
 0.12530004E+02  0.27950E-06
 0.12580004E+02 -0.14048E-06
 0.12630004E+02  0.36791E-07
 0.12680003E+02  0.24046E-06
 0.12730003E+02 -0.96316E-07
 0.12780004E+02 -0.71619E-07
 0.12830004E+02  0.35986E-06
 0.12880004E+02  0.30600E-06
 0.12930003E+02 -0.21724E-07
 0.12980003E+02  0.11099E-06
 0.13030004E+02  0.15536E-06
 0.13080004E+02 -0.13035E-06
 0.13130004E+02 -0.14782E-06
 0.13180003E+02 -0.11787E-06
 0.13230003E+02 -0.70148E-06
 0.13280004E+02 -0.10054E-05
 0.13330004E+02 -0.73134E-06
 0.13380004E+02 -0.10085E-05
 0.13430003E+02 -0.10289E-05
 0.13480003E+02 -0.50488E-06
 0.13530004E+02 -0.47830E-06
 0.13580004E+02 -0.39100E-06
 0.13630004E+02  0.12538E-06
 0.13680003E+02  0.22118E-06
 0.13730003E+02 -0.58479E-07
 0.13780004E+02  0.64731E-07
 0.13830004E+02  0.11309E-06
 0.13880004E+02 -0.20994E-06
 0.13930003E+02 -0.14058E-06
 0.13980003E+02  0.27672E-06
 0.14030004E+02  0.27390E-06
 0.14080004E+02 -0.35051E-07
 0.14130004E+02  0.24443E-06
 0.14180003E+02  0.53387E-06
 0.14230003E+02  0.18399E-06
 0.14280004E+02  0.15995E-06
 0.14330004E+02  0.57720E-06
 0.14380004E+02  0.53367E-06
 0.14430003E+02  0.20829E-06
 0.14480003E+02  0.18400E-06
 0.14530004E+02 -0.32210E-07
 0.14580004E+02 -0.27267E-06
 0.14630004E+02 -0.16567E-06
 0.14680003E+02  0.32098E-07
 0.14730003E+02  0.21619E-06
 0.14780004E+02  0.19468E-06
 0.14830004E+02  0.44021E-06
 0.14880004E+02  0.61960E-06
 0.14930003E+02  0.39846E-06
 0.14980003E+02  0.64979E-06
 0.15030004E+02  0.79060E-06
 0.15080004E+02  0.23694E-06
 0.15130004E+02 -0.22586E-08
 0.15180003E+02  0.19457E-06
 0.15230003E+02 -0.17472E-06
 0.15280004E+02 -0.60374E-06
 0.15330004E+02 -0.44088E-06
 0.15380004E+02 -0.46522E-06
 0.15430003E+02 -0.74260E-06
 0.15480003E+02 -0.87229E-06
 0.15530004E+02 -0.66773E-06
 0.15580004E+02 -0.52744E-06
 0.15630004E+02 -0.66369E-06
 0.15680003E+02 -0.49281E-06
 0.15730003E+02 -0.23416E-06
 0.15780004E+02 -0.39824E-06
 0.15830004E+02 -0.53895E-06
 0.15880004E+02 -0.34404E-06
 0.15930003E+02 -0.52236E-06
 0.15980003E+02 -0.81244E-06
 0.16030005E+02 -0.32220E-06
 0.16080004E+02  0.24722E-06
 0.16130003E+02  0.22978E-06
 0.16180004E+02  0.39362E-06
 0.16230003E+02  0.10412E-05
 0.16280005E+02  0.12035E-05
 0.16330004E+02  0.69672E-06
 0.16380003E+02  0.55374E-06
 0.16430004E+02  0.91910E-06
 0.16480003E+02  0.79317E-06
 0.16530005E+02  0.24899E-06
 0.16580004E+02  0.47189E-06
 0.16630003E+02  0.74115E-06
 0.16680004E+02  0.15418E-06
 0.16730003E+02  0.11922E-06
 0.16780005E+02  0.60913E-06
 0.16830004E+02  0.24175E-06
 0.16880003E+02 -0.94773E-08
 0.16930004E+02  0.34825E-06
 0.16980003E+02  0.14872E-06
 0.17030005E+02 -0.14776E-06
 0.17080004E+02 -0.22802E-06
 0.17130003E+02 -0.29555E-06
 0.17180004E+02 -0.34313E-06
 0.17230003E+02 -0.78651E-06
 0.17280005E+02 -0.77092E-06
 0.17330004E+02 -0.42786E-06
 0.17380003E+02 -0.70683E-06
 0.17430004E+02 -0.70930E-06
 0.17480003E+02 -0.29240E-06
 0.17530005E+02 -0.30703E-06
 0.17580004E+02 -0.68000E-06
 0.17630003E+02 -0.45723E-06
 0.17680004E+02 -0.11585E-07
 0.17730003E+02 -0.44278E-06
 0.17780005E+02 -0.45081E-06
 0.17830004E+02  0.32111E-06
 0.17880003E+02  0.29139E-06
 0.17930004E+02 -0.23606E-06
 0.17980003E+02  0.12309E-06
 0.18030005E+02  0.65414E-06
 0.18080004E+02 -0.16338E-07
 0.18130003E+02 -0.29611E-06
 0.18180004E+02  0.48386E-06
 0.18230003E+02  0.23365E-06
 0.18280005E+02 -0.38221E-06
 0.18330004E+02  0.19294E-06
 0.18380003E+02  0.49285E-06
 0.18430004E+02 -0.10670E-06
 0.18480003E+02 -0.66401E-07
 0.18530005E+02  0.55033E-06
 0.18580004E+02  0.21173E-06
 0.18630003E+02 -0.39669E-06
 0.18680004E+02  0.17167E-06
 0.18730003E+02  0.56186E-06
 0.18780005E+02  0.12923E-06
 0.18830004E+02  0.27927E-06
 0.18880003E+02  0.77696E-06
 0.18930004E+02  0.56274E-06
 0.18980003E+02 -0.19555E-07
 0.19030005E+02  0.31122E-06
 0.19080004E+02  0.71986E-06
 0.19130003E+02  0.10433E-06
 0.19180004E+02 -0.73505E-07
 0.19230003E+02  0.53119E-06
 0.19280005E+02  0.48937E-06
 0.19330004E+02 -0.19415E-06
 0.19380003E+02 -0.13575E-06
 0.19430004E+02  0.24612E-06
 0.19480003E+02 -0.24414E-06
 0.19530005E+02 -0.70316E-06
 0.19580004E+02 -0.93285E-07
 0.19630003E+02  0.25304E-07
 0.19680004E+02 -0.10170E-05
 0.19730003E+02 -0.11494E-05
 0.19780005E+02 -0.50550E-06
 0.19830004E+02 -0.64510E-06
 0.19880003E+02 -0.10061E-05
 0.19930004E+02 -0.68843E-06
 0.19980003E+02 -0.41536E-06
 0.20030005E+02 -0.92352E-06
 0.20080004E+02 -0.77426E-06
 0.20130003E+02  0.16015E-06
 0.20180004E+02  0.13557E-06
 0.20230003E+02 -0.17368E-06
 0.20280005E+02  0.40187E-06
 0.20330004E+02  0.91312E-06
 0.20380003E+02  0.19460E-07
 0.20430004E+02 -0.23702E-06
 0.20480003E+02  0.11425E-05
 0.20530005E+02  0.77330E-06
 0.20580004E+02 -0.25629E-06
 0.20630003E+02  0.73971E-06
 0.20680004E+02  0.11179E-05
 0.20730003E+02  0.18137E-07
 0.20780005E+02  0.27621E-06
 0.20830004E+02  0.14672E-05
 0.20880003E+02  0.80327E-06
 0.20930004E+02 -0.74025E-07
 0.20980003E+02  0.91335E-06
 0.21030005E+02  0.10366E-05
 0.21080004E+02 -0.15527E-06
 0.21130003E+02 -0.19436E-06
 0.21180004E+02  0.54340E-06
 0.21230003E+02  0.12768E-06
 0.21280005E+02 -0.10695E-05
 0.21330004E+02 -0.48488E-06
 0.21380003E+02  0.39239E-06
 0.21430004E+02 -0.10916E-05
 0.21480003E+02 -0.17774E-05
 0.21530005E+02 -0.68568E-06
 0.21580004E+02 -0.12186E-05
 0.21630003E+02 -0.29990E-05
 0.21680004E+02 -0.16570E-05
 0.21730003E+02 -0.10769E-05
 0.21780005E+02 -0.39407E-05
 0.21830004E+02 -0.20596E-05
 0.21880003E+02 -0.27773E-06
 0.21930004E+02 -0.58007E-05
 0.21980003E+02 -0.10334E-04
 0.22030005E+02  0.17153E-05
 0.22080004E+02  0.16793E-05
 0.22130003E+02 -0.16999E-04
 0.22180004E+02 -0.94487E-05
 0.22230003E+02  0.14697E-04
 0.22280005E+02  0.28243E-04
 0.22330004E+02 -0.19538E-05
 0.22380003E+02 -0.43113E-05
 0.22430004E+02  0.37480E-04
 0.22480003E+02  0.21418E-04
 0.22530005E+02 -0.14561E-04
 0.22580004E+02 -0.36768E-04
 0.22630003E+02  0.20605E-07
 0.22680004E+02  0.37976E-04
 0.22730003E+02  0.75746E-05
 0.22780005E+02  0.64071E-05
 0.22830004E+02  0.11908E-04
 0.22880003E+02  0.22704E-04
 0.22930004E+02  0.63874E-04
 0.22980003E+02  0.60389E-04
 0.23030005E+02 -0.25642E-04
 0.23080004E+02 -0.56623E-04
 0.23130003E+02  0.36832E-04
 0.23180004E+02  0.48870E-04
 0.23230003E+02 -0.56423E-04
 0.23280005E+02 -0.15906E-03
 0.23330004E+02 -0.16044E-03
 0.23380003E+02 -0.62117E-04
 0.23430004E+02 -0.75448E-04
 0.23480003E+02 -0.15479E-03
 0.23530005E+02 -0.86542E-04
 0.23580004E+02  0.90353E-05
 0.23630003E+02  0.40438E-04
 0.23680004E+02  0.11302E-03
 0.23730003E+02  0.14313E-03
 0.23780005E+02  0.71102E-04
 0.23830004E+02  0.11288E-03
 0.23880003E+02  0.20324E-03
 0.23930004E+02  0.15938E-03
 0.23980003E+02  0.18437E-03
 0.24030005E+02  0.20128E-03
 0.24080004E+02  0.69543E-04
 0.24130003E+02 -0.72553E-05
 0.24180004E+02 -0.20182E-04
 0.24230003E+02 -0.58851E-04
 0.24280005E+02 -0.51798E-04
 0.24330004E+02 -0.92364E-04
 0.24380003E+02 -0.27839E-03
 0.24430004E+02 -0.35326E-03
 0.24480003E+02 -0.32558E-03
 0.24530005E+02 -0.26921E-03
 0.24580004E+02 -0.17778E-03
 0.24630003E+02 -0.13527E-03
 0.24680004E+02  0.91205E-05
 0.24730003E+02  0.20633E-03
 0.24780005E+02  0.25293E-03
 0.24830004E+02  0.29532E-03
 0.24880003E+02  0.42446E-03
 0.24930004E+02  0.26172E-03
 0.24980003E+02 -0.29984E-04
 0.25030005E+02 -0.12026E-03
 0.25080004E+02 -0.14913E-03
 0.25130003E+02  0.40285E-04
 0.25180004E+02  0.18773E-03
 0.25230003E+02  0.47037E-04
 0.25280005E+02  0.49187E-04
 0.25330004E+02  0.15966E-03
 0.25380003E+02 -0.82871E-05
 0.25430004E+02 -0.33228E-03
 0.25480003E+02 -0.46777E-03
 0.25530005E+02 -0.40072E-03
 0.25580004E+02 -0.21077E-03
 0.25630003E+02  0.24006E-05
 0.25680004E+02  0.15032E-03
 0.25730003E+02  0.19851E-03
 0.25780005E+02  0.95520E-04
 0.25830004E+02  0.87364E-04
 0.25880003E+02  0.21399E-03
 0.25930004E+02  0.19455E-03
 0.25980003E+02  0.12408E-03
 0.26030005E+02  0.15677E-03
 0.26080004E+02  0.17154E-03
 0.26130003E+02  0.96965E-04
 0.26180004E+02 -0.43890E-04
 0.26230003E+02 -0.21354E-03
 0.26280005E+02 -0.26002E-03
 0.26330004E+02 -0.24909E-03
 0.26380003E+02 -0.28274E-03
 0.26430004E+02 -0.16485E-03
 0.26480003E+02  0.88718E-04
 0.26530005E+02  0.30604E-03
 0.26580004E+02  0.28446E-03
 0.26630003E+02 -0.21609E-05
 0.26680004E+02 -0.19794E-03
 0.26730003E+02 -0.22224E-03
 0.26780005E+02 -0.23490E-03
 0.26830004E+02 -0.18163E-03
 0.26880003E+02 -0.16351E-05
 0.26930004E+02  0.21849E-03
 0.26980003E+02  0.38546E-03
 0.27030005E+02  0.38422E-03
 0.27080004E+02  0.21913E-03
 0.27130003E+02  0.12578E-03
 0.27180004E+02  0.75032E-04
 0.27230003E+02 -0.42481E-04
 0.27280005E+02 -0.61058E-04
 0.27330004E+02 -0.92582E-04
 0.27380003E+02 -0.19639E-03
 0.27430004E+02 -0.22551E-03
 0.27480003E+02 -0.31863E-03
 0.27530005E+02 -0.32075E-03
 0.27580004E+02 -0.11425E-03
 0.27630003E+02 -0.20408E-04
 0.27680004E+02  0.12109E-04
 0.27730003E+02  0.11626E-03
 0.27780005E+02  0.10918E-03
 0.27830004E+02  0.11774E-03
 0.27880003E+02  0.25988E-03
 0.27930004E+02  0.18879E-03
 0.27980003E+02  0.30918E-04
 0.28030005E+02  0.11756E-03
 0.28080004E+02  0.16743E-03
 0.28130003E+02  0.61679E-04
 0.28180004E+02  0.17879E-04
 0.28230003E+02 -0.26178E-05
 0.28280005E+02  0.43136E-04
 0.28330004E+02  0.59772E-04
 0.28380003E+02 -0.20081E-03
 0.28430004E+02 -0.30614E-03
 0.28480003E+02 -0.15193E-03
 0.28530005E+02 -0.30952E-04
 0.28580004E+02 -0.28450E-04
 0.28630003E+02 -0.15748E-03
 0.28680004E+02 -0.10909E-03
 0.28730003E+02 -0.20876E-04
 0.28780005E+02 -0.12220E-03
 0.28830004E+02 -0.15872E-03
 0.28880003E+02 -0.27251E-04
 0.28930004E+02  0.98248E-04
 0.28980003E+02  0.11478E-03
 0.29030005E+02  0.19576E-03
 0.29080004E+02  0.24318E-03
 0.29130003E+02  0.15025E-03
 0.29180004E+02  0.18133E-03
 0.29230003E+02  0.28023E-03
 0.29280005E+02  0.25315E-03
 0.29330004E+02 -0.56817E-04
 0.29380003E+02 -0.41763E-03
 0.29430004E+02 -0.37367E-03
 0.29480003E+02 -0.23834E-03
 0.29530005E+02 -0.22623E-03
 0.29580004E+02 -0.11855E-03
 0.29630003E+02  0.10833E-03
 0.29680004E+02  0.27327E-03
 0.29730003E+02  0.19178E-03
 0.29780005E+02  0.15340E-04
 0.29830004E+02 -0.45914E-04
 0.29880003E+02 -0.11001E-03
 0.29930004E+02 -0.54070E-04
 0.29980003E+02  0.28473E-03
 0.30030005E+02  0.46684E-03
 0.30080004E+02  0.34332E-03
 0.30130003E+02  0.33616E-04
 0.30180004E+02 -0.31695E-03
 0.30230003E+02 -0.36439E-03
 0.30280005E+02 -0.22338E-03
 0.30330004E+02 -0.14160E-03
 0.30380003E+02 -0.14029E-03
 0.30430004E+02 -0.19590E-03
 0.30480003E+02 -0.24897E-03
 0.30530005E+02 -0.21484E-03
 0.30580004E+02  0.12178E-03
 0.30630003E+02  0.47955E-03
 0.30680004E+02  0.35768E-03
 0.30730003E+02  0.66927E-04
 0.30780005E+02  0.77036E-04
 0.30830004E+02  0.22285E-03
 0.30880003E+02  0.59813E-04
 0.30930004E+02 -0.25385E-03
 0.30980003E+02 -0.30776E-03
 0.31030005E+02 -0.17971E-03
 0.31080004E+02  0.25896E-04
 0.31130003E+02  0.18667E-03
 0.31180004E+02  0.25640E-03
 0.31230003E+02  0.19885E-03
 0.31280005E+02 -0.19951E-05
 0.31330004E+02 -0.33378E-04
 0.31380003E+02 -0.69017E-04
 0.31430004E+02 -0.22446E-03
 0.31480003E+02 -0.18689E-03
 0.31530005E+02 -0.11819E-03
 0.31580004E+02 -0.18024E-03
 0.31630003E+02 -0.44662E-05
 0.31680004E+02  0.28733E-03
 0.31730003E+02  0.17629E-03
 0.31780005E+02  0.85018E-04
 0.31830004E+02  0.18262E-03
 0.31880003E+02  0.91642E-04
 0.31930004E+02 -0.77498E-04
 0.31980003E+02 -0.35529E-03
 0.32030003E+02 -0.39370E-03
 0.32080006E+02  0.73058E-04
 0.32130005E+02  0.37233E-03
 0.32180004E+02  0.31205E-03
 0.32230003E+02  0.87075E-04
 0.32280003E+02 -0.58693E-04
 0.32330006E+02 -0.82331E-04
 0.32380005E+02 -0.17432E-03
 0.32430004E+02 -0.17422E-03
 0.32480003E+02 -0.96636E-04
 0.32530003E+02  0.16085E-04
 0.32580006E+02  0.20442E-04
 0.32630005E+02 -0.54038E-04
 0.32680004E+02  0.37809E-04
 0.32730003E+02  0.13712E-03
 0.32780003E+02  0.13980E-03
 0.32830006E+02 -0.57027E-05
 0.32880005E+02 -0.15302E-03
 0.32930004E+02 -0.51971E-04
 0.32980003E+02  0.14660E-03
 0.33030003E+02  0.22143E-03
 0.33080006E+02  0.20872E-03
 0.33130005E+02  0.10554E-03
 0.33180004E+02 -0.73958E-04
 0.33230003E+02 -0.25534E-03
 0.33280003E+02 -0.44683E-03
 0.33330006E+02 -0.44179E-03
 0.33380005E+02 -0.26734E-03
 0.33430004E+02  0.65199E-04
 0.33480003E+02  0.31968E-03
 0.33530003E+02  0.20830E-03
 0.33580006E+02  0.22112E-03
 0.33630005E+02  0.27739E-03
 0.33680004E+02  0.13832E-03
 0.33730003E+02  0.95500E-04
 0.33780003E+02  0.19968E-04
 0.33830006E+02 -0.10660E-03
 0.33880005E+02 -0.11882E-03
 0.33930004E+02 -0.17060E-03
 0.33980003E+02 -0.10645E-03
 0.34030003E+02 -0.18107E-05
 0.34080006E+02 -0.92101E-04
 0.34130005E+02 -0.71165E-04
 0.34180004E+02  0.35829E-04
 0.34230003E+02  0.71791E-04
 0.34280003E+02  0.31387E-04
 0.34330006E+02  0.19285E-04
 0.34380005E+02  0.86198E-04
 0.34430004E+02  0.23748E-04
 0.34480003E+02 -0.18081E-04
 0.34530003E+02 -0.11896E-04
 0.34580006E+02 -0.24048E-04
 0.34630005E+02  0.44713E-04
 0.34680004E+02  0.24633E-04
 0.34730003E+02  0.55675E-04
 0.34780003E+02  0.29133E-03
 0.34830006E+02  0.33073E-03
 0.34880005E+02  0.66803E-05
 0.34930004E+02 -0.31757E-03
 0.34980003E+02 -0.24409E-03
 0.35030003E+02 -0.31674E-04
 0.35080006E+02 -0.24095E-03
 0.35130005E+02 -0.53506E-03
 0.35180004E+02 -0.53268E-03
 0.35230003E+02 -0.29853E-03
 0.35280003E+02  0.60726E-04
 0.35330006E+02  0.26065E-03
 0.35380005E+02  0.50976E-03
 0.35430004E+02  0.88768E-03
 0.35480003E+02  0.87856E-03
 0.35530003E+02  0.36419E-03
 0.35580006E+02 -0.16337E-03
 0.35630005E+02 -0.41677E-03
 0.35680004E+02 -0.53200E-03
 0.35730003E+02 -0.52729E-03
 0.35780003E+02 -0.41435E-03
 0.35830006E+02 -0.21625E-03
 0.35880005E+02  0.93949E-04
 0.35930004E+02  0.33014E-03
 0.35980003E+02  0.26305E-03
 0.36030003E+02  0.19528E-03
 0.36080006E+02  0.17968E-03
 0.36130005E+02 -0.37274E-04
 0.36180004E+02 -0.16274E-03
 0.36230003E+02 -0.16589E-03
 0.36280003E+02 -0.24340E-03
 0.36330006E+02 -0.27690E-03
 0.36380005E+02  0.27835E-04
 0.36430004E+02  0.40841E-03
 0.36480003E+02  0.30536E-03
 0.36530003E+02  0.30613E-04
 0.36580006E+02 -0.31877E-04
 0.36630005E+02  0.22691E-04
 0.36680004E+02  0.28793E-04
 0.36730003E+02 -0.94584E-04
 0.36780003E+02 -0.19912E-04
 0.36830006E+02  0.23470E-03
 0.36880005E+02  0.27004E-04
 0.36930004E+02 -0.41267E-03
 0.36980003E+02 -0.39422E-03
 0.37030003E+02 -0.13865E-03
 0.37080006E+02 -0.30952E-04
 0.37130005E+02 -0.44659E-04
 0.37180004E+02  0.67349E-05
 0.37230003E+02  0.32187E-03
 0.37280003E+02  0.64050E-03
 0.37330006E+02  0.57616E-03
 0.37380005E+02  0.28493E-03
 0.37430004E+02  0.75285E-04
 0.37480003E+02  0.25050E-04
 0.37530003E+02  0.59961E-05
 0.37580006E+02 -0.13308E-03
 0.37630005E+02 -0.36366E-03
 0.37680004E+02 -0.54956E-03
 0.37730003E+02 -0.71595E-03
 0.37780003E+02 -0.70530E-03
 0.37830006E+02 -0.30812E-03
 0.37880005E+02  0.92936E-04
 0.37930004E+02  0.32955E-03
 0.37980003E+02  0.30761E-03
 0.38030003E+02  0.24427E-03
 0.38080006E+02  0.58549E-03
 0.38130005E+02  0.88023E-03
 0.38180004E+02  0.94524E-03
 0.38230003E+02  0.55517E-03
 0.38280003E+02 -0.22125E-03
 0.38330006E+02 -0.70265E-03
 0.38380005E+02 -0.11485E-02
 0.38430004E+02 -0.15158E-02
 0.38480003E+02 -0.14207E-02
 0.38530003E+02 -0.85512E-03
 0.38580006E+02 -0.45894E-04
 0.38630005E+02  0.43292E-03
 0.38680004E+02  0.81542E-03
 0.38730003E+02  0.14236E-02
 0.38780003E+02  0.17246E-02
 0.38830006E+02  0.11284E-02
 0.38880005E+02 -0.19275E-03
 0.38930004E+02 -0.11073E-02
 0.38980003E+02 -0.11585E-02
 0.39030003E+02 -0.10590E-02
 0.39080006E+02 -0.88867E-03
 0.39130005E+02 -0.36809E-03
 0.39180004E+02  0.12363E-03
 0.39230003E+02  0.53756E-03
 0.39280003E+02  0.10147E-02
 0.39330006E+02  0.10869E-02
 0.39380005E+02  0.75223E-03
 0.39430004E+02  0.84721E-03
 0.39480003E+02  0.11994E-02
 0.39530003E+02  0.14669E-02
 0.39580006E+02  0.16711E-02
 0.39630005E+02  0.10928E-02
 0.39680004E+02 -0.61566E-04
 0.39730003E+02 -0.12164E-02
 0.39780003E+02 -0.18537E-02
 0.39830006E+02 -0.19037E-02
 0.39880005E+02 -0.20870E-02
 0.39930004E+02 -0.18159E-02
 0.39980003E+02 -0.87800E-03
 0.40030003E+02  0.93596E-05
 0.40080006E+02  0.70001E-03
 0.40130005E+02  0.14449E-02
 0.40180004E+02  0.21159E-02
 0.40230003E+02  0.16891E-02
 0.40280003E+02  0.13577E-03
 0.40330006E+02 -0.16010E-02
 0.40380005E+02 -0.28108E-02
 0.40430004E+02 -0.30319E-02
 0.40480003E+02 -0.25432E-02
 0.40530003E+02 -0.17535E-02
 0.40580006E+02 -0.66382E-03
 0.40630005E+02  0.69496E-03
 0.40680004E+02  0.18123E-02
 0.40730003E+02  0.23872E-02
 0.40780003E+02  0.28035E-02
 0.40830006E+02  0.29774E-02
 0.40880005E+02  0.26646E-02
 0.40930004E+02  0.14832E-02
 0.40980003E+02 -0.65643E-03
 0.41030003E+02 -0.26844E-02
 0.41080006E+02 -0.35272E-02
 0.41130005E+02 -0.26881E-02
 0.41180004E+02 -0.92293E-03
 0.41230003E+02  0.60298E-03
 0.41280003E+02  0.14981E-02
 0.41330006E+02  0.22542E-02
 0.41380005E+02  0.28135E-02
 0.41430004E+02  0.23228E-02
 0.41480003E+02  0.14024E-02
 0.41530003E+02  0.57220E-03
 0.41580006E+02 -0.51186E-03
 0.41630005E+02 -0.14832E-02
 0.41680004E+02 -0.18600E-02
 0.41730003E+02 -0.16933E-02
 0.41780003E+02 -0.10676E-02
 0.41830006E+02 -0.35775E-03
 0.41880005E+02 -0.35926E-04
 0.41930004E+02 -0.19129E-03
 0.41980003E+02 -0.45864E-03
 0.42030003E+02 -0.29620E-03
 0.42080006E+02  0.16300E-03
 0.42130005E+02  0.62939E-03
 0.42180004E+02  0.76902E-03
 0.42230003E+02  0.48939E-03
 0.42280003E+02 -0.15877E-03
 0.42330006E+02 -0.12453E-02
 0.42380005E+02 -0.20590E-02
 0.42430004E+02 -0.21253E-02
 0.42480003E+02 -0.14704E-02
 0.42530003E+02 -0.29653E-04
 0.42580006E+02  0.15733E-02
 0.42630005E+02  0.25046E-02
 0.42680004E+02  0.25927E-02
 0.42730003E+02  0.22036E-02
 0.42780003E+02  0.14141E-02
 0.42830006E+02  0.24351E-03
 0.42880005E+02 -0.71727E-03
 0.42930004E+02 -0.13100E-02
 0.42980003E+02 -0.15095E-02
 0.43030003E+02 -0.11115E-02
 0.43080006E+02 -0.33210E-03
 0.43130005E+02  0.58270E-03
 0.43180004E+02  0.11054E-02
 0.43230003E+02  0.71585E-03
 0.43280003E+02 -0.41543E-03
 0.43330006E+02 -0.15087E-02
 0.43380005E+02 -0.15004E-02
 0.43430004E+02 -0.60868E-03
 0.43480003E+02  0.41168E-03
 0.43530003E+02  0.11527E-02
 0.43580006E+02  0.12219E-02
 0.43630005E+02  0.12447E-02
 0.43680004E+02  0.13064E-02
 0.43730003E+02  0.66331E-03
 0.43780003E+02 -0.84065E-03
 0.43830006E+02 -0.24291E-02
 0.43880005E+02 -0.28785E-02
 0.43930004E+02 -0.20474E-02
 0.43980003E+02 -0.53277E-03
 0.44030003E+02  0.94859E-03
 0.44080006E+02  0.18373E-02
 0.44130005E+02  0.22885E-02
 0.44180004E+02  0.24500E-02
 0.44230003E+02  0.19969E-02
 0.44280003E+02  0.94785E-03
 0.44330006E+02 -0.40794E-03
 0.44380005E+02 -0.19286E-02
 0.44430004E+02 -0.30505E-02
 0.44480003E+02 -0.27178E-02
 0.44530003E+02 -0.10515E-02
 0.44580006E+02  0.55838E-03
 0.44630005E+02  0.15950E-02
 0.44680004E+02  0.19066E-02
 0.44730003E+02  0.14618E-02
 0.44780003E+02  0.47135E-03
 0.44830006E+02 -0.90922E-03
 0.44880005E+02 -0.16715E-02
 0.44930004E+02 -0.14336E-02
 0.44980003E+02 -0.90625E-03
 0.45030003E+02 -0.55444E-03
 0.45080006E+02 -0.22381E-03
 0.45130005E+02  0.30118E-03
 0.45180004E+02  0.72159E-03
 0.45230003E+02  0.10454E-02
 0.45280003E+02  0.14233E-02
 0.45330006E+02  0.17602E-02
 0.45380005E+02  0.15744E-02
 0.45430004E+02  0.64423E-03
 0.45480003E+02 -0.29131E-03
 0.45530003E+02 -0.83105E-03
 0.45580006E+02 -0.10915E-02
 0.45630005E+02 -0.11791E-02
 0.45680004E+02 -0.90487E-03
 0.45730003E+02 -0.30588E-03
 0.45780003E+02 -0.13398E-04
 0.45830006E+02 -0.68785E-04
 0.45880005E+02 -0.19469E-03
 0.45930004E+02 -0.16596E-03
 0.45980003E+02  0.20558E-03
 0.46030003E+02  0.66015E-03
 0.46080006E+02  0.93804E-03
 0.46130005E+02  0.76010E-03
 0.46180004E+02  0.56180E-04
 0.46230003E+02 -0.69024E-03
 0.46280003E+02 -0.10660E-02
 0.46330006E+02 -0.12325E-02
 0.46380005E+02 -0.15872E-02
 0.46430004E+02 -0.17299E-02
 0.46480003E+02 -0.87569E-03
 0.46530003E+02  0.77127E-03
 0.46580006E+02  0.21241E-02
 0.46630005E+02  0.26572E-02
 0.46680004E+02  0.24301E-02
 0.46730003E+02  0.17135E-02
 0.46780003E+02  0.97889E-03
 0.46830006E+02  0.79897E-04
 0.46880005E+02 -0.81849E-03
 0.46930004E+02 -0.14624E-02
 0.46980003E+02 -0.18517E-02
 0.47030003E+02 -0.17060E-02
 0.47080006E+02 -0.11117E-02
 0.47130005E+02 -0.29391E-03
 0.47180004E+02  0.27937E-03
 0.47230003E+02  0.47577E-03
 0.47280003E+02  0.65099E-03
 0.47330006E+02  0.10216E-02
 0.47380005E+02  0.12780E-02
 0.47430004E+02  0.82472E-03
 0.47480003E+02  0.84440E-04
 0.47530003E+02 -0.39369E-03
 0.47580006E+02 -0.67454E-03
 0.47630005E+02 -0.84879E-03
 0.47680004E+02 -0.95909E-03
 0.47730003E+02 -0.92104E-03
 0.47780003E+02 -0.77277E-03
 0.47830006E+02 -0.66325E-03
 0.47880005E+02 -0.67072E-03
 0.47930004E+02 -0.51534E-03
 0.47980003E+02  0.41449E-04
 0.48030003E+02  0.43588E-03
 0.48080006E+02  0.48838E-03
 0.48130005E+02  0.69657E-03
 0.48180004E+02  0.10045E-02
 0.48230003E+02  0.10303E-02
 0.48280003E+02  0.84083E-03
 0.48330006E+02  0.95847E-03
 0.48380005E+02  0.13144E-02
 0.48430004E+02  0.11507E-02
 0.48480003E+02  0.40633E-03
 0.48530003E+02 -0.36705E-03
 0.48580006E+02 -0.76339E-03
 0.48630005E+02 -0.77077E-03
 0.48680004E+02 -0.79840E-03
 0.48730003E+02 -0.96039E-03
 0.48780003E+02 -0.10532E-02
 0.48830006E+02 -0.86958E-03
 0.48880005E+02 -0.48985E-03
 0.48930004E+02 -0.21708E-05
 0.48980003E+02  0.59071E-03
 0.49030003E+02  0.63187E-03
 0.49080006E+02  0.73591E-04
 0.49130005E+02 -0.40277E-03
 0.49180004E+02 -0.55219E-03
 0.49230003E+02 -0.45417E-03
 0.49280003E+02 -0.32473E-03
 0.49330006E+02  0.39168E-04
 0.49380005E+02  0.70983E-03
 0.49430004E+02  0.10234E-02
 0.49480003E+02  0.94425E-03
 0.49530003E+02  0.74883E-03
 0.49580006E+02  0.33083E-03
 0.49630005E+02  0.15154E-04
 0.49680004E+02 -0.22518E-03
 0.49730003E+02 -0.60382E-03
 0.49780003E+02 -0.81691E-03
 0.49830006E+02 -0.69043E-03
 0.49880005E+02 -0.44052E-03
 0.49930004E+02 -0.28511E-03
 0.49980003E+02 -0.12188E-03
 0.50030003E+02  0.47171E-04
 0.50080006E+02  0.30549E-03
 0.50130005E+02  0.58415E-03
 0.50180004E+02  0.54607E-03
 0.50230003E+02  0.29702E-03
 0.50280003E+02  0.17458E-04
 0.50330006E+02 -0.17079E-03
 0.50380005E+02 -0.22698E-03
 0.50430004E+02 -0.26253E-03
 0.50480003E+02 -0.28617E-03
 0.50530003E+02 -0.22997E-03
 0.50580006E+02 -0.14283E-05
 0.50630005E+02  0.23116E-03
 0.50680004E+02  0.25508E-03
 0.50730003E+02  0.23306E-03
 0.50780003E+02  0.38107E-03
 0.50830006E+02  0.65457E-03
 0.50880005E+02  0.68045E-03
 0.50930004E+02  0.20846E-03
 0.50980003E+02 -0.46385E-03
 0.51030003E+02 -0.92792E-03
 0.51080006E+02 -0.96235E-03
 0.51130005E+02 -0.46113E-03
 0.51180004E+02  0.25968E-03
 0.51230003E+02  0.67424E-03
 0.51280003E+02  0.72638E-03
 0.51330006E+02  0.41241E-03
 0.51380005E+02 -0.14146E-03
 0.51430004E+02 -0.62788E-03
 0.51480003E+02 -0.91741E-03
 0.51530003E+02 -0.78728E-03
 0.51580006E+02 -0.37616E-03
 0.51630005E+02  0.17643E-03
 0.51680004E+02  0.71794E-03
 0.51730003E+02  0.91805E-03
 0.51780003E+02  0.86345E-03
 0.51830006E+02  0.57787E-03
 0.51880005E+02  0.16656E-03
 0.51930004E+02 -0.17872E-03
 0.51980003E+02 -0.36000E-03
 0.52030003E+02 -0.39345E-03
 0.52080006E+02 -0.50079E-03
 0.52130005E+02 -0.59669E-03
 0.52180004E+02 -0.58956E-03
 0.52230003E+02 -0.52235E-03
 0.52280003E+02 -0.25022E-03
 0.52330006E+02  0.21178E-03
 0.52380005E+02  0.60283E-03
 0.52430004E+02  0.78432E-03
 0.52480003E+02  0.73631E-03
 0.52530003E+02  0.41480E-03
 0.52580006E+02 -0.67289E-04
 0.52630005E+02 -0.51699E-03
 0.52680004E+02 -0.81725E-03
 0.52730003E+02 -0.83029E-03
 0.52780003E+02 -0.51590E-03
 0.52830006E+02 -0.39056E-04
 0.52880005E+02  0.47025E-03
 0.52930004E+02  0.94775E-03
 0.52980003E+02  0.11529E-02
 0.53030003E+02  0.90029E-03
 0.53080006E+02  0.39777E-03
 0.53130005E+02 -0.91973E-04
 0.53180004E+02 -0.54262E-03
 0.53230003E+02 -0.86117E-03
 0.53280003E+02 -0.94657E-03
 0.53330006E+02 -0.72129E-03
 0.53380005E+02 -0.83144E-04
 0.53430004E+02  0.62878E-03
 0.53480003E+02  0.87725E-03
 0.53530003E+02  0.60294E-03
 0.53580006E+02  0.14941E-03
 0.53630005E+02 -0.22403E-03
 0.53680004E+02 -0.47593E-03
 0.53730003E+02 -0.64690E-03
 0.53780003E+02 -0.59681E-03
 0.53830006E+02 -0.15556E-03
 0.53880005E+02  0.31139E-03
 0.53930004E+02  0.43311E-03
 0.53980003E+02  0.28361E-03
 0.54030003E+02  0.15361E-04
 0.54080006E+02 -0.19679E-03
 0.54130005E+02 -0.21943E-03
 0.54180004E+02 -0.57066E-04
 0.54230003E+02  0.20125E-03
 0.54280003E+02  0.40883E-03
 0.54330006E+02  0.43122E-03
 0.54380005E+02  0.21899E-03
 0.54430004E+02 -0.15734E-03
 0.54480003E+02 -0.50624E-03
 0.54530003E+02 -0.76411E-03
 0.54580006E+02 -0.71904E-03
 0.54630005E+02 -0.24615E-03
 0.54680004E+02  0.15694E-03
 0.54730003E+02  0.23375E-03
 0.54780003E+02  0.16682E-03
 0.54830006E+02  0.20841E-03
 0.54880005E+02  0.37407E-03
 0.54930004E+02  0.35889E-03
 0.54980003E+02  0.16795E-03
 0.55030003E+02 -0.65738E-04
 0.55080006E+02 -0.25935E-03
 0.55130005E+02 -0.26695E-03
 0.55180004E+02 -0.11480E-03
 0.55230003E+02  0.17603E-03
 0.55280003E+02  0.47784E-03
 0.55330006E+02  0.51204E-03
 0.55380005E+02  0.27614E-03
 0.55430004E+02 -0.72436E-04
 0.55480003E+02 -0.40134E-03
 0.55530003E+02 -0.46969E-03
 0.55580006E+02 -0.22763E-03
 0.55630005E+02  0.43739E-04
 0.55680004E+02  0.28887E-03
 0.55730003E+02  0.54447E-03
 0.55780003E+02  0.69758E-03
 0.55830006E+02  0.68482E-03
 0.55880005E+02  0.40602E-03
 0.55930004E+02 -0.11341E-03
 0.55980003E+02 -0.65283E-03
 0.56030003E+02 -0.10453E-02
 0.56080006E+02 -0.11493E-02
 0.56130005E+02 -0.87064E-03
 0.56180004E+02 -0.32579E-03
 0.56230003E+02  0.24526E-03
 0.56280003E+02  0.61329E-03
 0.56330006E+02  0.75590E-03
 0.56380005E+02  0.75061E-03
 0.56430004E+02  0.56249E-03
 0.56480003E+02  0.18682E-03
 0.56530003E+02 -0.31043E-03
 0.56580006E+02 -0.74128E-03
 0.56630005E+02 -0.96109E-03
 0.56680004E+02 -0.96810E-03
 0.56730003E+02 -0.69928E-03
 0.56780003E+02 -0.18796E-03
 0.56830006E+02  0.35592E-03
 0.56880005E+02  0.79152E-03
 0.56930004E+02  0.97940E-03
 0.56980003E+02  0.78671E-03
 0.57030003E+02  0.41307E-03
 0.57080006E+02  0.93946E-04
 0.57130005E+02 -0.11977E-03
 0.57180004E+02 -0.15619E-03
 0.57230003E+02 -0.61877E-04
 0.57280003E+02  0.78176E-04
 0.57330006E+02  0.11300E-03
 0.57380005E+02 -0.10171E-03
 0.57430004E+02 -0.45051E-03
 0.57480003E+02 -0.72956E-03
 0.57530003E+02 -0.68817E-03
 0.57580006E+02 -0.33087E-03
 0.57630005E+02  0.13464E-03
 0.57680004E+02  0.60879E-03
 0.57730003E+02  0.87427E-03
 0.57780003E+02  0.81633E-03
 0.57830006E+02  0.50487E-03
 0.57880005E+02  0.10974E-03
 0.57930004E+02 -0.17373E-03
 0.57980003E+02 -0.41433E-03
 0.58030003E+02 -0.57755E-03
 0.58080006E+02 -0.54529E-03
 0.58130005E+02 -0.39762E-03
 0.58180004E+02 -0.16501E-03
 0.58230003E+02  0.93324E-04
 0.58280003E+02  0.28666E-03
 0.58330006E+02  0.40315E-03
 0.58380005E+02  0.42565E-03
 0.58430004E+02  0.32942E-03
 0.58480003E+02  0.14391E-03
 0.58530003E+02 -0.90609E-04
 0.58580006E+02 -0.24432E-03
 0.58630005E+02 -0.24342E-03
 0.58680004E+02 -0.21464E-03
 0.58730003E+02 -0.20366E-03
 0.58780003E+02 -0.20099E-03
 0.58830006E+02 -0.12080E-03
 0.58880005E+02  0.16639E-05
 0.58930004E+02  0.36994E-04
 0.58980003E+02 -0.25957E-04
 0.59030003E+02 -0.17351E-03
 0.59080006E+02 -0.20767E-03
 0.59130005E+02 -0.68876E-04
 0.59180004E+02  0.84572E-04
 0.59230003E+02  0.17365E-03
 0.59280003E+02  0.22525E-03
 0.59330006E+02  0.26628E-03
 0.59380005E+02  0.28152E-03
 0.59430004E+02  0.22415E-03
 0.59480003E+02  0.56290E-04
 0.59530003E+02 -0.86150E-04
 0.59580006E+02 -0.16481E-03
 0.59630005E+02 -0.23133E-03
 0.59680004E+02 -0.25590E-03
 0.59730003E+02 -0.21856E-03
 0.59780003E+02 -0.55103E-04
 0.59830006E+02  0.16684E-03
 0.59880005E+02  0.24398E-03
 0.59930004E+02  0.18811E-03
 0.59980003E+02  0.12811E-03
 0.60030003E+02  0.98234E-04
 0.60080006E+02  0.75764E-04
 0.60130005E+02  0.49305E-04
 0.60180004E+02  0.80267E-04
 0.60230003E+02  0.11446E-03
 0.60280003E+02  0.11532E-03
 0.60330006E+02  0.16519E-03
 0.60380005E+02  0.25045E-03
 0.60430004E+02  0.27124E-03
 0.60480003E+02  0.12996E-03
 0.60530003E+02 -0.10429E-03
 0.60580006E+02 -0.30810E-03
 0.60630005E+02 -0.45315E-03
 0.60680004E+02 -0.48978E-03
 0.60730003E+02 -0.40307E-03
 0.60780003E+02 -0.36170E-03
 0.60830006E+02 -0.47170E-03
 0.60880005E+02 -0.55997E-03
 0.60930004E+02 -0.43964E-03
 0.60980003E+02 -0.69775E-04
 0.61030003E+02  0.32440E-03
 0.61080006E+02  0.48019E-03
 0.61130005E+02  0.45182E-03
 0.61180004E+02  0.37254E-03
 0.61230003E+02  0.38058E-03
 0.61280003E+02  0.44933E-03
 0.61330006E+02  0.39821E-03
 0.61380005E+02  0.24390E-03
 0.61430004E+02  0.40506E-04
 0.61480003E+02 -0.14740E-03
 0.61530003E+02 -0.27500E-03
 0.61580006E+02 -0.37979E-03
 0.61630005E+02 -0.42926E-03
 0.61680004E+02 -0.41823E-03
 0.61730003E+02 -0.29155E-03
 0.61780003E+02  0.12057E-05
 0.61830006E+02  0.31762E-03
 0.61880005E+02  0.54383E-03
 0.61930004E+02  0.64950E-03
 0.61980003E+02  0.65207E-03
 0.62030003E+02  0.53811E-03
 0.62080006E+02  0.18537E-03
 0.62130005E+02 -0.34324E-03
 0.62180004E+02 -0.75303E-03
 0.62230003E+02 -0.88547E-03
 0.62280003E+02 -0.76974E-03
 0.62330006E+02 -0.49146E-03
 0.62380005E+02 -0.15043E-03
 0.62430004E+02  0.18116E-03
 0.62480003E+02  0.40556E-03
 0.62530003E+02  0.53864E-03
 0.62580006E+02  0.66059E-03
 0.62630005E+02  0.64811E-03
 0.62680004E+02  0.33262E-03
 0.62730003E+02 -0.15276E-03
 0.62780003E+02 -0.48141E-03
 0.62830006E+02 -0.58260E-03
 0.62880005E+02 -0.57776E-03
 0.62930004E+02 -0.50171E-03
 0.62980003E+02 -0.34354E-03
 0.63030003E+02 -0.13887E-03
 0.63080006E+02  0.85358E-05
 0.63130005E+02  0.47527E-04
 0.63180004E+02  0.47022E-04
 0.63230003E+02  0.74622E-04
 0.63280003E+02  0.16332E-03
 0.63330006E+02  0.31760E-03
 0.63380005E+02  0.46254E-03
 0.63430004E+02  0.55360E-03
 0.63480003E+02  0.59715E-03
 0.63530003E+02  0.51949E-03
 0.63580006E+02  0.28358E-03
 0.63630005E+02  0.36805E-04
 0.63680004E+02 -0.84496E-04
 0.63730003E+02 -0.16853E-03
 0.63780003E+02 -0.33087E-03
 0.63830006E+02 -0.50998E-03
 0.63880005E+02 -0.51617E-03
 0.63930004E+02 -0.31940E-03
 0.63980003E+02 -0.35313E-04
 0.64030006E+02  0.28493E-03
 0.64080002E+02  0.47795E-03
 0.64130005E+02  0.42702E-03
 0.64180008E+02  0.16890E-03
 0.64230003E+02 -0.17064E-03
 0.64280006E+02 -0.40921E-03
 0.64330002E+02 -0.52690E-03
 0.64380005E+02 -0.58888E-03
 0.64430008E+02 -0.60775E-03
 0.64480003E+02 -0.51049E-03
 0.64530006E+02 -0.25358E-03
 0.64580002E+02  0.83767E-04
 0.64630005E+02  0.40413E-03
 0.64680008E+02  0.60945E-03
 0.64730003E+02  0.69614E-03
 0.64780006E+02  0.63451E-03
 0.64830002E+02  0.34790E-03
 0.64880005E+02  0.24735E-04
 0.64930008E+02 -0.15584E-03
 0.64980003E+02 -0.17702E-03
 0.65030006E+02 -0.64163E-04
 0.65080002E+02  0.58710E-04
 0.65130005E+02  0.14391E-03
 0.65180008E+02  0.18817E-03
 0.65230003E+02  0.16556E-03
 0.65280006E+02  0.49794E-04
 0.65330002E+02 -0.18758E-03
 0.65380005E+02 -0.44800E-03
 0.65430008E+02 -0.57053E-03
 0.65480003E+02 -0.50352E-03
 0.65530006E+02 -0.34139E-03
 0.65580002E+02 -0.14509E-03
 0.65630005E+02  0.10920E-03
 0.65680008E+02  0.38002E-03
 0.65730003E+02  0.55496E-03
 0.65780006E+02  0.51249E-03
 0.65830002E+02  0.30487E-03
 0.65880005E+02  0.72617E-04
 0.65930008E+02 -0.14989E-03
 0.65980003E+02 -0.30734E-03
 0.66030006E+02 -0.39396E-03
 0.66080002E+02 -0.44180E-03
 0.66130005E+02 -0.39715E-03
 0.66180008E+02 -0.24575E-03
 0.66230003E+02 -0.29593E-04
 0.66280006E+02  0.20779E-03
 0.66330002E+02  0.43142E-03
 0.66380005E+02  0.61003E-03
 0.66430008E+02  0.64616E-03
 0.66480003E+02  0.52347E-03
 0.66530006E+02  0.30500E-03
 0.66580002E+02 -0.22578E-04
 0.66630005E+02 -0.32982E-03
 0.66680008E+02 -0.48380E-03
 0.66730003E+02 -0.50448E-03
 0.66780006E+02 -0.36304E-03
 0.66830002E+02 -0.81539E-04
 0.66880005E+02  0.20800E-03
 0.66930008E+02  0.33717E-03
 0.66980003E+02  0.26080E-03
 0.67030006E+02  0.14731E-03
 0.67080002E+02  0.90015E-04
 0.67130005E+02  0.14236E-04
 0.67180008E+02 -0.13870E-03
 0.67230003E+02 -0.33376E-03
 0.67280006E+02 -0.44486E-03
 0.67330002E+02 -0.41763E-03
 0.67380005E+02 -0.35165E-03
 0.67430008E+02 -0.31085E-03
 0.67480003E+02 -0.21884E-03
 0.67530006E+02 -0.32075E-04
 0.67580002E+02  0.18401E-03
 0.67630005E+02  0.31934E-03
 0.67680008E+02  0.31006E-03
 0.67730003E+02  0.23836E-03
 0.67780006E+02  0.17970E-03
 0.67830002E+02  0.13413E-03
 0.67880005E+02  0.54014E-04
 0.67930008E+02 -0.25224E-04
 0.67980003E+02  0.35628E-05
 0.68030006E+02  0.80192E-04
 0.68080002E+02  0.15579E-03
 0.68130005E+02  0.24461E-03
 0.68180008E+02  0.34641E-03
 0.68230003E+02  0.39710E-03
 0.68280006E+02  0.27180E-03
 0.68330002E+02  0.20469E-04
 0.68380005E+02 -0.20383E-03
 0.68430008E+02 -0.30480E-03
 0.68480003E+02 -0.33144E-03
 0.68530006E+02 -0.36208E-03
 0.68580002E+02 -0.37047E-03
 0.68630005E+02 -0.36476E-03
 0.68680008E+02 -0.34077E-03
 0.68730003E+02 -0.26304E-03
 0.68780006E+02 -0.14568E-03
 0.68830002E+02 -0.37374E-04
 0.68880005E+02  0.34031E-04
 0.68930008E+02  0.86434E-04
 0.68980003E+02  0.17312E-03
 0.69030006E+02  0.33796E-03
 0.69080002E+02  0.55722E-03
 0.69130005E+02  0.73350E-03
 0.69180008E+02  0.70785E-03
 0.69230003E+02  0.43166E-03
 0.69280006E+02  0.18714E-04
 0.69330002E+02 -0.38271E-03
 0.69380005E+02 -0.67145E-03
 0.69430008E+02 -0.83534E-03
 0.69480003E+02 -0.81424E-03
 0.69530006E+02 -0.55359E-03
 0.69580002E+02 -0.17815E-03
 0.69630005E+02  0.15799E-03
 0.69680008E+02  0.42964E-03
 0.69730003E+02  0.66192E-03
 0.69780006E+02  0.76472E-03
 0.69830002E+02  0.66080E-03
 0.69880005E+02  0.42114E-03
 0.69930008E+02  0.12662E-03
 0.69980003E+02 -0.15314E-03
 0.70030006E+02 -0.38744E-03
 0.70080002E+02 -0.52114E-03
 0.70130005E+02 -0.46199E-03
 0.70180008E+02 -0.24838E-03
 0.70230003E+02  0.12577E-04
 0.70280006E+02  0.22766E-03
 0.70330002E+02  0.32513E-03
 0.70380005E+02  0.27217E-03
 0.70430008E+02  0.12435E-03
 0.70480003E+02 -0.44831E-04
 0.70530006E+02 -0.18239E-03
 0.70580002E+02 -0.23834E-03
 0.70630005E+02 -0.27513E-03
 0.70680008E+02 -0.34131E-03
 0.70730003E+02 -0.40912E-03
 0.70780006E+02 -0.44001E-03
 0.70830002E+02 -0.38440E-03
 0.70880005E+02 -0.22023E-03
 0.70930008E+02  0.21101E-04
 0.70980003E+02  0.28805E-03
 0.71030006E+02  0.49879E-03
 0.71080002E+02  0.54992E-03
 0.71130005E+02  0.42375E-03
 0.71180008E+02  0.15413E-03
 0.71230003E+02 -0.13322E-03
 0.71280006E+02 -0.23695E-03
 0.71330002E+02 -0.68324E-04
 0.71380005E+02  0.23047E-03
 0.71430008E+02  0.42398E-03
 0.71480003E+02  0.44521E-03
 0.71530006E+02  0.35522E-03
 0.71580002E+02  0.22057E-03
 0.71630005E+02  0.37792E-04
 0.71680008E+02 -0.19759E-03
 0.71730003E+02 -0.40898E-03
 0.71780006E+02 -0.56090E-03
 0.71830002E+02 -0.62793E-03
 0.71880005E+02 -0.55403E-03
 0.71930008E+02 -0.30783E-03
 0.71980003E+02  0.95594E-04
 0.72030006E+02  0.53512E-03
 0.72080002E+02  0.78669E-03
 0.72130005E+02  0.68017E-03
 0.72180008E+02  0.31397E-03
 0.72230003E+02 -0.81602E-04
 0.72280006E+02 -0.38734E-03
 0.72330002E+02 -0.57085E-03
 0.72380005E+02 -0.59467E-03
 0.72430008E+02 -0.42406E-03
 0.72480003E+02 -0.15428E-03
 0.72530006E+02  0.90181E-04
 0.72580002E+02  0.24136E-03
 0.72630005E+02  0.26307E-03
 0.72680008E+02  0.20931E-03
 0.72730003E+02  0.14509E-03
 0.72780006E+02  0.79569E-04
 0.72830002E+02 -0.14490E-04
 0.72880005E+02 -0.11736E-03
 0.72930008E+02 -0.15432E-03
 0.72980003E+02 -0.82725E-04
 0.73030006E+02  0.78841E-04
 0.73080002E+02  0.25666E-03
 0.73130005E+02  0.38198E-03
 0.73180008E+02  0.41375E-03
 0.73230003E+02  0.34384E-03
 0.73280006E+02  0.18728E-03
 0.73330002E+02 -0.67539E-04
 0.73380005E+02 -0.39611E-03
 0.73430008E+02 -0.67185E-03
 0.73480003E+02 -0.75981E-03
 0.73530006E+02 -0.61767E-03
 0.73580002E+02 -0.31520E-03
 0.73630005E+02  0.19876E-04
 0.73680008E+02  0.31197E-03
 0.73730003E+02  0.53570E-03
 0.73780006E+02  0.61550E-03
 0.73830002E+02  0.49655E-03
 0.73880005E+02  0.26167E-03
 0.73930008E+02  0.35979E-04
 0.73980003E+02 -0.13045E-03
 0.74030006E+02 -0.22730E-03
 0.74080002E+02 -0.20690E-03
 0.74130005E+02 -0.84567E-04
 0.74180008E+02  0.34141E-04
 0.74230003E+02  0.99907E-04
 0.74280006E+02  0.10439E-03
 0.74330002E+02  0.60156E-04
 0.74380005E+02 -0.37828E-05
 0.74430008E+02 -0.86901E-04
 0.74480003E+02 -0.17146E-03
 0.74530006E+02 -0.21136E-03
 0.74580002E+02 -0.16925E-03
 0.74630005E+02 -0.41385E-04
 0.74680008E+02  0.11881E-03
 0.74730003E+02  0.21081E-03
 0.74780006E+02  0.14441E-03
 0.74830002E+02 -0.46744E-04
 0.74880005E+02 -0.22422E-03
 0.74930008E+02 -0.29688E-03
 0.74980003E+02 -0.23755E-03
 0.75030006E+02 -0.57971E-04
 0.75080002E+02  0.18576E-03
 0.75130005E+02  0.41751E-03
 0.75180008E+02  0.55408E-03
 0.75230003E+02  0.54036E-03
 0.75280006E+02  0.39445E-03
 0.75330002E+02  0.17090E-03
 0.75380005E+02 -0.75652E-04
 0.75430008E+02 -0.28841E-03
 0.75480003E+02 -0.46126E-03
 0.75530006E+02 -0.59675E-03
 0.75580002E+02 -0.63021E-03
 0.75630005E+02 -0.50524E-03
 0.75680008E+02 -0.28369E-03
 0.75730003E+02 -0.10073E-03
 0.75780006E+02  0.37324E-04
 0.75830002E+02  0.19698E-03
 0.75880005E+02  0.33052E-03
 0.75930008E+02  0.35965E-03
 0.75980003E+02  0.28237E-03
 0.76030006E+02  0.13680E-03
 0.76080002E+02 -0.33847E-04
 0.76130005E+02 -0.15370E-03
 0.76180008E+02 -0.17181E-03
 0.76230003E+02 -0.10193E-03
 0.76280006E+02  0.33556E-05
 0.76330002E+02  0.68435E-04
 0.76380005E+02  0.69031E-04
 0.76430008E+02  0.55639E-04
 0.76480003E+02  0.70956E-04
 0.76530006E+02  0.67210E-04
 0.76580002E+02  0.12269E-04
 0.76630005E+02 -0.39755E-04
 0.76680008E+02 -0.42520E-04
 0.76730003E+02  0.10879E-05
 0.76780006E+02  0.42796E-04
 0.76830002E+02  0.60248E-04
 0.76880005E+02  0.69421E-04
 0.76930008E+02  0.84875E-04
 0.76980003E+02  0.93798E-04
 0.77030006E+02  0.85712E-04
 0.77080002E+02  0.84061E-04
 0.77130005E+02  0.84440E-04
 0.77180008E+02  0.69698E-04
 0.77230003E+02  0.23057E-04
 0.77280006E+02 -0.41657E-04
 0.77330002E+02 -0.99032E-04
 0.77380005E+02 -0.14659E-03
 0.77430008E+02 -0.14164E-03
 0.77480003E+02 -0.55806E-04
 0.77530006E+02  0.60189E-04
 0.77580002E+02  0.12142E-03
 0.77630005E+02  0.11794E-03
 0.77680008E+02  0.10380E-03
 0.77730003E+02  0.10258E-03
 0.77780006E+02  0.10863E-03
 0.77830002E+02  0.83693E-04
 0.77880005E+02  0.56295E-05
 0.77930008E+02 -0.79938E-04
 0.77980003E+02 -0.11040E-03
 0.78030006E+02 -0.89873E-04
 0.78080002E+02 -0.91674E-04
 0.78130005E+02 -0.14981E-03
 0.78180008E+02 -0.20542E-03
 0.78230003E+02 -0.17571E-03
 0.78280006E+02 -0.77058E-04
 0.78330002E+02  0.92474E-05
 0.78380005E+02  0.32688E-04
 0.78430008E+02 -0.20865E-04
 0.78480003E+02 -0.10013E-03
 0.78530006E+02 -0.13773E-03
 0.78580002E+02 -0.10139E-03
 0.78630005E+02 -0.17336E-04
 0.78680008E+02  0.67836E-04
 0.78730003E+02  0.14626E-03
 0.78780006E+02  0.18084E-03
 0.78830002E+02  0.14066E-03
 0.78880005E+02  0.30649E-04
 0.78930008E+02 -0.97469E-04
 0.78980003E+02 -0.15488E-03
 0.79030006E+02 -0.10966E-03
 0.79080002E+02  0.35751E-04
 0.79130005E+02  0.19054E-03
 0.79180008E+02  0.23016E-03
 0.79230003E+02  0.15607E-03
 0.79280006E+02  0.38416E-04
 0.79330002E+02 -0.46527E-04
 0.79380005E+02 -0.57194E-04
 0.79430008E+02 -0.28096E-04
 0.79480003E+02 -0.33685E-04
 0.79530006E+02 -0.10079E-03
 0.79580002E+02 -0.19635E-03
 0.79630005E+02 -0.27883E-03
 0.79680008E+02 -0.29349E-03
 0.79730003E+02 -0.22912E-03
 0.79780006E+02 -0.11828E-03
 0.79830002E+02  0.46718E-04
 0.79880005E+02  0.24088E-03
 0.79930008E+02  0.40343E-03
 0.79980003E+02  0.50409E-03
 0.80030006E+02  0.49348E-03
 0.80080002E+02  0.34803E-03
 0.80130005E+02  0.11861E-03
 0.80180008E+02 -0.92211E-04
 0.80230003E+02 -0.21162E-03
 0.80280006E+02 -0.26649E-03
 0.80330002E+02 -0.26709E-03
 0.80380005E+02 -0.17708E-03
 0.80430008E+02  0.61874E-05
 0.80480003E+02  0.21061E-03
 0.80530006E+02  0.33444E-03
 0.80580002E+02  0.34268E-03
 0.80630005E+02  0.24180E-03
 0.80680008E+02  0.49334E-04
 0.80730003E+02 -0.17866E-03
 0.80780006E+02 -0.34671E-03
 0.80830002E+02 -0.39948E-03
 0.80880005E+02 -0.36436E-03
 0.80930008E+02 -0.28530E-03
 0.80980003E+02 -0.17252E-03
 0.81030006E+02 -0.24139E-04
 0.81080002E+02  0.12083E-03
 0.81130005E+02  0.20441E-03
 0.81180008E+02  0.20609E-03
 0.81230003E+02  0.12984E-03
 0.81280006E+02 -0.12319E-04
 0.81330002E+02 -0.17372E-03
 0.81380005E+02 -0.30054E-03
 0.81430008E+02 -0.35402E-03
 0.81480003E+02 -0.30863E-03
 0.81530006E+02 -0.17028E-03
 0.81580002E+02  0.40079E-04
 0.81630005E+02  0.27576E-03
 0.81680008E+02  0.45708E-03
 0.81730003E+02  0.51541E-03
 0.81780006E+02  0.43389E-03
 0.81830002E+02  0.26565E-03
 0.81880005E+02  0.10321E-03
 0.81930008E+02  0.16893E-04
 0.81980003E+02  0.11954E-04
 0.82030006E+02  0.22509E-04
 0.82080002E+02 -0.21621E-04
 0.82130005E+02 -0.13061E-03
 0.82180008E+02 -0.28147E-03
 0.82230003E+02 -0.44080E-03
 0.82280006E+02 -0.53348E-03
 0.82330002E+02 -0.47721E-03
 0.82380005E+02 -0.27640E-03
 0.82430008E+02 -0.22292E-04
 0.82480003E+02  0.19541E-03
 0.82530006E+02  0.35043E-03
 0.82580002E+02  0.44491E-03
 0.82630005E+02  0.46667E-03
 0.82680008E+02  0.38957E-03
 0.82730003E+02  0.21273E-03
 0.82780006E+02 -0.37942E-05
 0.82830002E+02 -0.19958E-03
 0.82880005E+02 -0.33240E-03
 0.82930008E+02 -0.35940E-03
 0.82980003E+02 -0.26793E-03
 0.83030006E+02 -0.11772E-03
 0.83080002E+02 -0.48738E-05
 0.83130005E+02  0.49405E-04
 0.83180008E+02  0.73988E-04
 0.83230003E+02  0.90397E-04
 0.83280006E+02  0.10368E-03
 0.83330002E+02  0.10541E-03
 0.83380005E+02  0.88541E-04
 0.83430008E+02  0.34228E-04
 0.83480003E+02 -0.41142E-04
 0.83530006E+02 -0.90751E-04
 0.83580002E+02 -0.80873E-04
 0.83630005E+02 -0.15650E-04
 0.83680008E+02  0.50179E-04
 0.83730003E+02  0.79056E-04
 0.83780006E+02  0.76827E-04
 0.83830002E+02  0.70998E-04
 0.83880005E+02  0.83421E-04
 0.83930008E+02  0.11842E-03
 0.83980003E+02  0.18391E-03
 0.84030006E+02  0.25529E-03
 0.84080002E+02  0.28053E-03
 0.84130005E+02  0.23542E-03
 0.84180008E+02  0.11921E-03
 0.84230003E+02 -0.35260E-04
 0.84280006E+02 -0.22322E-03
 0.84330002E+02 -0.42866E-03
 0.84380005E+02 -0.55898E-03
 0.84430008E+02 -0.57830E-03
 0.84480003E+02 -0.49359E-03
 0.84530006E+02 -0.33201E-03
 0.84580002E+02 -0.14680E-03
 0.84630005E+02  0.47681E-04
 0.84680008E+02  0.23516E-03
 0.84730003E+02  0.37453E-03
 0.84780006E+02  0.43895E-03
 0.84830002E+02  0.42890E-03
 0.84880005E+02  0.36924E-03
 0.84930008E+02  0.29285E-03
 0.84980003E+02  0.19263E-03
 0.85030006E+02  0.40460E-04
 0.85080002E+02 -0.15812E-03
 0.85130005E+02 -0.34543E-03
 0.85180008E+02 -0.45097E-03
 0.85230003E+02 -0.45716E-03
 0.85280006E+02 -0.37172E-03
 0.85330002E+02 -0.24086E-03
 0.85380005E+02 -0.12988E-03
 0.85430008E+02 -0.25532E-04
 0.85480003E+02  0.11577E-03
 0.85530006E+02  0.29282E-03
 0.85580002E+02  0.44938E-03
 0.85630005E+02  0.52407E-03
 0.85680008E+02  0.49139E-03
 0.85730003E+02  0.34328E-03
 0.85780006E+02  0.92958E-04
 0.85830002E+02 -0.18693E-03
 0.85880005E+02 -0.36990E-03
 0.85930008E+02 -0.40766E-03
 0.85980003E+02 -0.34638E-03
 0.86030006E+02 -0.23266E-03
 0.86080002E+02 -0.64917E-04
 0.86130005E+02  0.13939E-03
 0.86180008E+02  0.27063E-03
 0.86230003E+02  0.28315E-03
 0.86280006E+02  0.20280E-03
 0.86330002E+02  0.41460E-04
 0.86380005E+02 -0.17207E-03
 0.86430008E+02 -0.37724E-03
 0.86480003E+02 -0.45518E-03
 0.86530006E+02 -0.35489E-03
 0.86580002E+02 -0.15356E-03
 0.86630005E+02  0.73828E-04
 0.86680008E+02  0.28484E-03
 0.86730003E+02  0.44909E-03
 0.86780006E+02  0.52544E-03
 0.86830002E+02  0.47249E-03
 0.86880005E+02  0.29924E-03
 0.86930008E+02  0.54682E-04
 0.86980003E+02 -0.17782E-03
 0.87030006E+02 -0.33231E-03
 0.87080002E+02 -0.38455E-03
 0.87130005E+02 -0.31361E-03
 0.87180008E+02 -0.16893E-03
 0.87230003E+02 -0.35613E-04
 0.87280006E+02  0.63281E-04
 0.87330002E+02  0.13696E-03
 0.87380005E+02  0.19809E-03
 0.87430008E+02  0.23120E-03
 0.87480003E+02  0.19545E-03
 0.87530006E+02  0.10270E-03
 0.87580002E+02  0.63629E-05
 0.87630005E+02 -0.78525E-04
 0.87680008E+02 -0.14537E-03
 0.87730003E+02 -0.18117E-03
 0.87780006E+02 -0.20410E-03
 0.87830002E+02 -0.22760E-03
 0.87880005E+02 -0.24580E-03
 0.87930008E+02 -0.24269E-03
 0.87980003E+02 -0.18872E-03
 0.88030006E+02 -0.72084E-04
 0.88080002E+02  0.82203E-04
 0.88130005E+02  0.24409E-03
 0.88180008E+02  0.39035E-03
 0.88230003E+02  0.45517E-03
 0.88280006E+02  0.36940E-03
 0.88330002E+02  0.16627E-03
 0.88380005E+02 -0.70734E-04
 0.88430008E+02 -0.28314E-03
 0.88480003E+02 -0.44962E-03
 0.88530006E+02 -0.52255E-03
 0.88580002E+02 -0.41844E-03
 0.88630005E+02 -0.15936E-03
 0.88680008E+02  0.14747E-03
 0.88730003E+02  0.40572E-03
 0.88780006E+02  0.55667E-03
 0.88830002E+02  0.54230E-03
 0.88880005E+02  0.34361E-03
 0.88930008E+02  0.51961E-04
 0.88980003E+02 -0.21933E-03
 0.89030006E+02 -0.38700E-03
 0.89080002E+02 -0.43156E-03
 0.89130005E+02 -0.37135E-03
 0.89180008E+02 -0.22015E-03
 0.89230003E+02 -0.33712E-04
 0.89280006E+02  0.13154E-03
 0.89330002E+02  0.26153E-03
 0.89380005E+02  0.34062E-03
 0.89430008E+02  0.33463E-03
 0.89480003E+02  0.23468E-03
 0.89530006E+02  0.83490E-04
 0.89580002E+02 -0.60693E-04
 0.89630005E+02 -0.16717E-03
 0.89680008E+02 -0.21082E-03
 0.89730003E+02 -0.17289E-03
 0.89780006E+02 -0.85065E-04
 0.89830002E+02  0.93427E-05
 0.89880005E+02  0.79764E-04
 0.89930008E+02  0.12552E-03
 0.89980003E+02  0.16400E-03
 0.90030006E+02  0.17905E-03
 0.90080002E+02  0.15929E-03
 0.90130005E+02  0.11174E-03
 0.90180008E+02  0.58466E-04
 0.90230003E+02 -0.74577E-05
 0.90280006E+02 -0.12784E-03
 0.90330002E+02 -0.27517E-03
 0.90380005E+02 -0.36700E-03
 0.90430008E+02 -0.35694E-03
 0.90480003E+02 -0.25957E-03
 0.90530006E+02 -0.11118E-03
 0.90580002E+02  0.50439E-04
 0.90630005E+02  0.19472E-03
 0.90680008E+02  0.29989E-03
 0.90730003E+02  0.32189E-03
 0.90780006E+02  0.25063E-03
 0.90830002E+02  0.13400E-03
 0.90880005E+02  0.15298E-04
 0.90930008E+02 -0.71316E-04
 0.90980003E+02 -0.13255E-03
 0.91030006E+02 -0.20039E-03
 0.91080002E+02 -0.26878E-03
 0.91130005E+02 -0.31690E-03
 0.91180008E+02 -0.30985E-03
 0.91230003E+02 -0.22848E-03
 0.91280006E+02 -0.99206E-04
 0.91330002E+02  0.49137E-04
 0.91380005E+02  0.17344E-03
 0.91430008E+02  0.23038E-03
 0.91480003E+02  0.21964E-03
 0.91530006E+02  0.18187E-03
 0.91580002E+02  0.15976E-03
 0.91630005E+02  0.14885E-03
 0.91680008E+02  0.12844E-03
 0.91730003E+02  0.10046E-03
 0.91780006E+02  0.78914E-04
 0.91830002E+02  0.62491E-04
 0.91880005E+02  0.37443E-04
 0.91930008E+02  0.25624E-06
 0.91980003E+02 -0.47977E-04
 0.92030006E+02 -0.10581E-03
 0.92080002E+02 -0.17051E-03
 0.92130005E+02 -0.22032E-03
 0.92180008E+02 -0.22296E-03
 0.92230003E+02 -0.17979E-03
 0.92280006E+02 -0.11964E-03
 0.92330002E+02 -0.66857E-04
 0.92380005E+02 -0.43280E-04
 0.92430008E+02 -0.49084E-04
 0.92480003E+02 -0.42309E-04
 0.92530006E+02  0.64123E-05
 0.92580002E+02  0.81752E-04
 0.92630005E+02  0.15358E-03
 0.92680008E+02  0.22428E-03
 0.92730003E+02  0.30768E-03
 0.92780006E+02  0.36281E-03
 0.92830002E+02  0.34317E-03
 0.92880005E+02  0.24811E-03
 0.92930008E+02  0.11130E-03
 0.92980003E+02 -0.24411E-04
 0.93030006E+02 -0.13526E-03
 0.93080002E+02 -0.19473E-03
 0.93130005E+02 -0.17418E-03
 0.93180008E+02 -0.80785E-04
 0.93230003E+02  0.29305E-04
 0.93280006E+02  0.84267E-04
 0.93330002E+02  0.57630E-04
 0.93380005E+02 -0.36316E-04
 0.93430008E+02 -0.16278E-03
 0.93480003E+02 -0.27995E-03
 0.93530006E+02 -0.36570E-03
 0.93580002E+02 -0.39814E-03
 0.93630005E+02 -0.36372E-03
 0.93680008E+02 -0.25585E-03
 0.93730003E+02 -0.78166E-04
 0.93780006E+02  0.12824E-03
 0.93830002E+02  0.31330E-03
 0.93880005E+02  0.42631E-03
 0.93930008E+02  0.43642E-03
 0.93980003E+02  0.35156E-03
 0.94030006E+02  0.20828E-03
 0.94080002E+02  0.54901E-04
 0.94130005E+02 -0.74665E-04
 0.94180008E+02 -0.15510E-03
 0.94230003E+02 -0.18188E-03
 0.94280006E+02 -0.16322E-03
 0.94330002E+02 -0.11648E-03
 0.94380005E+02 -0.76201E-04
 0.94430008E+02 -0.48363E-04
 0.94480003E+02 -0.23512E-04
 0.94530006E+02 -0.17900E-05
 0.94580002E+02  0.21895E-04
 0.94630005E+02  0.45280E-04
 0.94680008E+02  0.56097E-04
 0.94730003E+02  0.51853E-04
 0.94780006E+02  0.54793E-04
 0.94830002E+02  0.88029E-04
 0.94880005E+02  0.13519E-03
 0.94930008E+02  0.15114E-03
 0.94980003E+02  0.10364E-03
 0.95030006E+02  0.10547E-04
 0.95080002E+02 -0.75658E-04
 0.95130005E+02 -0.12733E-03
 0.95180008E+02 -0.15068E-03
 0.95230003E+02 -0.15506E-03
 0.95280006E+02 -0.12921E-03
 0.95330002E+02 -0.68810E-04
 0.95380005E+02 -0.26686E-05
 0.95430008E+02  0.38114E-04
 0.95480003E+02  0.55201E-04
 0.95530006E+02  0.83725E-04
 0.95580002E+02  0.13292E-03
 0.95630005E+02  0.16815E-03
 0.95680008E+02  0.14331E-03
 0.95730003E+02  0.47017E-04
 0.95780006E+02 -0.79379E-04
 0.95830002E+02 -0.19311E-03
 0.95880005E+02 -0.26427E-03
 0.95930008E+02 -0.28287E-03
 0.95980003E+02 -0.25429E-03
 0.96030006E+02 -0.19036E-03
 0.96080002E+02 -0.10450E-03
 0.96130005E+02 -0.46112E-06
 0.96180008E+02  0.10205E-03
 0.96230003E+02  0.17823E-03
 0.96280006E+02  0.22109E-03
 0.96330002E+02  0.23564E-03
 0.96380005E+02  0.21999E-03
 0.96430008E+02  0.17942E-03
 0.96480003E+02  0.13007E-03
 0.96530006E+02  0.88541E-04
 0.96580002E+02  0.74875E-04
 0.96630005E+02  0.80449E-04
 0.96680008E+02  0.80204E-04
 0.96730003E+02  0.47476E-04
 0.96780006E+02 -0.19998E-04
 0.96830002E+02 -0.78452E-04
 0.96880005E+02 -0.98074E-04
 0.96930008E+02 -0.93910E-04
 0.96980003E+02 -0.91207E-04
 0.97030006E+02 -0.98611E-04
 0.97080002E+02 -0.11338E-03
 0.97130005E+02 -0.12144E-03
 0.97180008E+02 -0.11145E-03
 0.97230003E+02 -0.77147E-04
 0.97280006E+02 -0.19224E-04
 0.97330002E+02  0.35994E-04
 0.97380005E+02  0.51238E-04
 0.97430008E+02  0.16981E-04
 0.97480003E+02 -0.37106E-04
 0.97530006E+02 -0.83564E-04
 0.97580002E+02 -0.10181E-03
 0.97630005E+02 -0.92024E-04
 0.97680008E+02 -0.78298E-04
 0.97730003E+02 -0.57329E-04
 0.97780006E+02 -0.26661E-04
 0.97830002E+02  0.43489E-05
 0.97880005E+02  0.37332E-04
 0.97930008E+02  0.61848E-04
 0.97980003E+02  0.68028E-04
 0.98030006E+02  0.67971E-04
 0.98080002E+02  0.63321E-04
 0.98130005E+02  0.38575E-04
 0.98180008E+02 -0.11412E-05
 0.98230003E+02 -0.23361E-04
 0.98280006E+02  0.11085E-04
 0.98330002E+02  0.96952E-04
 0.98380005E+02  0.18273E-03
 0.98430008E+02  0.22555E-03
 0.98480003E+02  0.20761E-03
 0.98530006E+02  0.13674E-03
 0.98580002E+02  0.35638E-04
 0.98630005E+02 -0.67537E-04
 0.98680008E+02 -0.14368E-03
 0.98730003E+02 -0.17505E-03
 0.98780006E+02 -0.16461E-03
 0.98830002E+02 -0.13074E-03
 0.98880005E+02 -0.82745E-04
 0.98930008E+02 -0.14817E-04
 0.98980003E+02  0.64496E-04
 0.99030006E+02  0.12886E-03
 0.99080002E+02  0.16455E-03
 0.99130005E+02  0.17171E-03
 0.99180008E+02  0.15002E-03
 0.99230003E+02  0.97332E-04
 0.99280006E+02  0.22371E-04
 0.99330002E+02 -0.47386E-04
 0.99380005E+02 -0.94684E-04
 0.99430008E+02 -0.12974E-03
 0.99480003E+02 -0.16329E-03
 0.99530006E+02 -0.18943E-03
 0.99580002E+02 -0.19504E-03
 0.99630005E+02 -0.17659E-03
 0.99680008E+02 -0.14168E-03
 0.99730003E+02 -0.97005E-04
 0.99780006E+02 -0.48836E-04
 0.99830002E+02 -0.36887E-05
 0.99880005E+02  0.36411E-04
 0.99930008E+02  0.63584E-04
 0.99980003E+02  0.79158E-04
