-0.19996643E-01 -0.36349E-05
 0.30003358E-01 -0.20405E-05
 0.80003358E-01 -0.87243E-06
 0.13000336E+00 -0.64217E-07
 0.18000336E+00  0.46337E-06
 0.23000336E+00  0.76371E-06
 0.28000337E+00  0.91171E-06
 0.33000335E+00  0.94156E-06
 0.38000336E+00  0.88670E-06
 0.43000337E+00  0.80070E-06
 0.48000336E+00  0.67346E-06
 0.53000337E+00  0.53326E-06
 0.58000338E+00  0.40296E-06
 0.63000339E+00  0.27517E-06
 0.68000335E+00  0.18500E-06
 0.73000336E+00  0.99643E-07
 0.78000337E+00  0.23014E-07
 0.83000338E+00 -0.12465E-07
 0.88000339E+00 -0.57083E-07
 0.93000335E+00 -0.87647E-07
 0.98000336E+00 -0.76934E-07
 0.10300034E+01 -0.72049E-07
 0.10800034E+01 -0.69662E-07
 0.11300033E+01 -0.57634E-07
 0.11800034E+01 -0.44882E-07
 0.12300034E+01 -0.22890E-07
 0.12800034E+01 -0.18788E-07
 0.13300034E+01 -0.18322E-07
 0.13800033E+01  0.26387E-08
 0.14300034E+01  0.20769E-07
 0.14800034E+01  0.39304E-07
 0.15300034E+01  0.50074E-07
 0.15800034E+01  0.45610E-07
 0.16300033E+01  0.21526E-07
 0.16800034E+01 -0.21821E-08
 0.17300034E+01 -0.78212E-08
 0.17800034E+01  0.51140E-08
 0.18300034E+01  0.25657E-07
 0.18800033E+01  0.32279E-07
 0.19300034E+01  0.51083E-07
 0.19800034E+01  0.59446E-07
 0.20300033E+01  0.43295E-07
 0.20800035E+01  0.38032E-07
 0.21300035E+01  0.24661E-07
 0.21800034E+01  0.92042E-08
 0.22300034E+01 -0.17372E-07
 0.22800033E+01 -0.49353E-07
 0.23300035E+01 -0.55693E-07
 0.23800035E+01 -0.54876E-07
 0.24300034E+01 -0.32795E-07
 0.24800034E+01  0.72746E-08
 0.25300033E+01  0.45863E-07
 0.25800035E+01  0.56719E-07
 0.26300035E+01  0.33811E-07
 0.26800034E+01  0.32327E-07
 0.27300034E+01  0.28369E-07
 0.27800033E+01  0.12528E-07
 0.28300035E+01  0.38517E-07
 0.28800035E+01  0.44742E-07
 0.29300034E+01  0.39011E-08
 0.29800034E+01 -0.13623E-07
 0.30300033E+01 -0.34792E-07
 0.30800035E+01 -0.78237E-07
 0.31300035E+01 -0.84301E-07
 0.31800034E+01 -0.61002E-07
 0.32300034E+01 -0.60349E-07
 0.32800033E+01 -0.46100E-07
 0.33300035E+01 -0.14068E-07
 0.33800035E+01 -0.11584E-07
 0.34300034E+01 -0.21717E-07
 0.34800034E+01 -0.34638E-07
 0.35300033E+01 -0.47491E-07
 0.35800035E+01 -0.55595E-07
 0.36300035E+01 -0.54284E-07
 0.36800034E+01 -0.58474E-07
 0.37300034E+01 -0.62588E-07
 0.37800033E+01 -0.50399E-07
 0.38300035E+01 -0.34451E-07
 0.38800035E+01  0.59447E-09
 0.39300034E+01  0.32822E-07
 0.39800034E+01  0.49629E-07
 0.40300035E+01  0.54789E-07
 0.40800033E+01  0.56554E-07
 0.41300035E+01  0.70293E-07
 0.41800036E+01  0.73865E-07
 0.42300034E+01  0.69406E-07
 0.42800035E+01  0.32797E-07
 0.43300033E+01 -0.23123E-07
 0.43800035E+01 -0.33448E-07
 0.44300036E+01 -0.19826E-07
 0.44800034E+01  0.11735E-07
 0.45300035E+01  0.57573E-07
 0.45800033E+01  0.74998E-07
 0.46300035E+01  0.83823E-07
 0.46800036E+01  0.86831E-07
 0.47300034E+01  0.60963E-07
 0.47800035E+01  0.42332E-07
 0.48300033E+01  0.30658E-07
 0.48800035E+01 -0.33826E-08
 0.49300036E+01 -0.30250E-07
 0.49800034E+01 -0.36069E-07
 0.50300035E+01 -0.32005E-07
 0.50800033E+01 -0.16210E-07
 0.51300035E+01 -0.19204E-08
 0.51800036E+01 -0.24005E-08
 0.52300034E+01 -0.17214E-07
 0.52800035E+01 -0.27374E-07
 0.53300033E+01 -0.11684E-07
 0.53800035E+01 -0.68274E-09
 0.54300036E+01 -0.78625E-08
 0.54800034E+01 -0.14286E-07
 0.55300035E+01 -0.29098E-07
 0.55800033E+01 -0.59942E-07
 0.56300035E+01 -0.69193E-07
 0.56800036E+01 -0.41802E-07
 0.57300034E+01 -0.47009E-07
 0.57800035E+01 -0.42488E-07
 0.58300033E+01 -0.16986E-07
 0.58800035E+01 -0.42545E-07
 0.59300036E+01 -0.51028E-07
 0.59800034E+01 -0.38896E-07
 0.60300035E+01 -0.20641E-07
 0.60800033E+01 -0.80916E-08
 0.61300035E+01 -0.14342E-08
 0.61800036E+01  0.11933E-07
 0.62300034E+01 -0.53585E-08
 0.62800035E+01 -0.13568E-07
 0.63300033E+01  0.71624E-08
 0.63800035E+01  0.19883E-07
 0.64300036E+01  0.10520E-07
 0.64800034E+01  0.14286E-07
 0.65300035E+01  0.69796E-08
 0.65800033E+01  0.74486E-08
 0.66300035E+01  0.53698E-07
 0.66800036E+01  0.82312E-07
 0.67300034E+01  0.10018E-06
 0.67800035E+01  0.95012E-07
 0.68300033E+01  0.70593E-07
 0.68800035E+01  0.41911E-07
 0.69300036E+01  0.22599E-07
 0.69800034E+01  0.30903E-08
 0.70300035E+01 -0.31311E-07
 0.70800033E+01 -0.27585E-07
 0.71300035E+01 -0.31146E-07
 0.71800036E+01 -0.26436E-07
 0.72300034E+01  0.34887E-09
 0.72800035E+01  0.12191E-07
 0.73300033E+01  0.18398E-07
 0.73800035E+01  0.11510E-07
 0.74300036E+01  0.18009E-07
 0.74800034E+01  0.18280E-07
 0.75300035E+01  0.10861E-07
 0.75800033E+01  0.11477E-08
 0.76300035E+01 -0.13749E-07
 0.76800036E+01  0.84244E-08
 0.77300034E+01 -0.74293E-08
 0.77800035E+01 -0.35782E-07
 0.78300033E+01 -0.10262E-07
 0.78800035E+01  0.44808E-08
 0.79300036E+01  0.31541E-07
 0.79800034E+01  0.40646E-07
 0.80300035E+01  0.33421E-07
 0.80800037E+01  0.26511E-07
 0.81300039E+01 -0.20988E-08
 0.81800032E+01  0.83020E-08
 0.82300034E+01  0.13897E-07
 0.82800035E+01  0.37408E-10
 0.83300037E+01 -0.92633E-08
 0.83800039E+01 -0.16117E-07
 0.84300032E+01 -0.14318E-07
 0.84800034E+01 -0.29980E-07
 0.85300035E+01 -0.38433E-07
 0.85800037E+01 -0.31376E-07
 0.86300039E+01 -0.32087E-07
 0.86800032E+01 -0.29556E-07
 0.87300034E+01 -0.16577E-07
 0.87800035E+01 -0.33052E-07
 0.88300037E+01 -0.31981E-07
 0.88800039E+01 -0.16475E-07
 0.89300032E+01 -0.37055E-07
 0.89800034E+01 -0.38294E-07
 0.90300035E+01 -0.45812E-07
 0.90800037E+01 -0.56753E-07
 0.91300039E+01 -0.46145E-07
 0.91800032E+01 -0.34409E-07
 0.92300034E+01 -0.14319E-07
 0.92800035E+01 -0.68173E-08
 0.93300037E+01  0.50750E-08
 0.93800039E+01  0.17194E-07
 0.94300032E+01  0.26035E-07
 0.94800034E+01  0.70036E-07
 0.95300035E+01  0.71806E-07
 0.95800037E+01  0.51249E-07
 0.96300039E+01  0.49055E-07
 0.96800032E+01  0.11043E-07
 0.97300034E+01 -0.29739E-07
 0.97800035E+01 -0.46972E-07
 0.98300037E+01 -0.29753E-07
 0.98800039E+01 -0.22853E-07
 0.99300032E+01 -0.59753E-08
 0.99800034E+01  0.14720E-07
 0.10030004E+02 -0.34036E-08
 0.10080004E+02  0.23943E-08
 0.10130004E+02 -0.26534E-08
 0.10180003E+02 -0.10169E-07
 0.10230003E+02  0.62426E-08
 0.10280004E+02 -0.13131E-07
 0.10330004E+02 -0.26543E-07
 0.10380004E+02 -0.17905E-07
 0.10430003E+02 -0.76604E-08
 0.10480003E+02  0.30148E-07
 0.10530004E+02  0.56058E-07
 0.10580004E+02  0.61639E-07
 0.10630004E+02  0.44751E-07
 0.10680003E+02  0.21750E-07
 0.10730003E+02  0.24442E-07
 0.10780004E+02  0.22572E-07
 0.10830004E+02  0.37116E-07
 0.10880004E+02  0.37338E-07
 0.10930003E+02  0.19781E-07
 0.10980003E+02  0.24413E-08
 0.11030004E+02 -0.15409E-07
 0.11080004E+02 -0.19086E-07
 0.11130004E+02 -0.25219E-07
 0.11180003E+02 -0.17918E-09
 0.11230003E+02  0.20128E-08
 0.11280004E+02  0.32564E-08
 0.11330004E+02  0.25433E-07
 0.11380004E+02  0.18830E-07
 0.11430003E+02  0.34724E-07
 0.11480003E+02  0.48252E-07
 0.11530004E+02  0.42027E-07
 0.11580004E+02  0.28535E-07
 0.11630004E+02 -0.13851E-07
 0.11680003E+02 -0.53395E-07
 0.11730003E+02 -0.54053E-07
 0.11780004E+02 -0.62790E-07
 0.11830004E+02 -0.59674E-07
 0.11880004E+02 -0.32468E-07
 0.11930003E+02 -0.41399E-07
 0.11980003E+02 -0.38086E-07
 0.12030004E+02 -0.22285E-07
 0.12080004E+02 -0.14853E-07
 0.12130004E+02 -0.56261E-08
 0.12180003E+02 -0.86477E-08
 0.12230003E+02 -0.53997E-08
 0.12280004E+02 -0.24114E-07
 0.12330004E+02 -0.49696E-07
 0.12380004E+02 -0.42511E-07
 0.12430003E+02 -0.63478E-07
 0.12480003E+02 -0.73050E-07
 0.12530004E+02 -0.93736E-07
 0.12580004E+02 -0.13622E-06
 0.12630004E+02 -0.10067E-06
 0.12680003E+02 -0.63250E-07
 0.12730003E+02  0.20543E-07
 0.12780004E+02  0.12980E-06
 0.12830004E+02  0.19801E-06
 0.12880004E+02  0.32344E-06
 0.12930003E+02  0.25378E-06
 0.12980003E+02  0.36306E-06
 0.13030004E+02  0.18962E-06
 0.13080004E+02  0.13501E-06
 0.13130004E+02  0.11977E-06
 0.13180003E+02 -0.28017E-06
 0.13230003E+02  0.11732E-07
 0.13280004E+02 -0.99343E-06
 0.13330004E+02 -0.28928E-06
 0.13380004E+02 -0.84662E-06
 0.13430003E+02  0.40330E-05
 0.13480003E+02  0.18795E-04
 0.13530004E+02  0.58408E-04
 0.13580004E+02  0.12466E-03
 0.13630004E+02  0.19770E-03
 0.13680003E+02  0.28882E-03
 0.13730003E+02  0.34921E-03
 0.13780004E+02  0.34582E-03
 0.13830004E+02  0.23482E-03
 0.13880004E+02  0.94186E-05
 0.13930003E+02 -0.27837E-03
 0.13980003E+02 -0.58348E-03
 0.14030004E+02 -0.76262E-03
 0.14080004E+02 -0.83054E-03
 0.14130004E+02 -0.78830E-03
 0.14180003E+02 -0.56718E-03
 0.14230003E+02 -0.29348E-03
 0.14280004E+02 -0.47812E-04
 0.14330004E+02  0.21074E-03
 0.14380004E+02  0.53237E-03
 0.14430003E+02  0.86673E-03
 0.14480003E+02  0.10730E-02
 0.14530004E+02  0.10288E-02
 0.14580004E+02  0.71509E-03
 0.14630004E+02  0.19702E-03
 0.14680003E+02 -0.41242E-03
 0.14730003E+02 -0.93822E-03
 0.14780004E+02 -0.10622E-02
 0.14830004E+02 -0.78424E-03
 0.14880004E+02 -0.42122E-03
 0.14930003E+02 -0.49492E-04
 0.14980003E+02  0.38691E-03
 0.15030004E+02  0.71841E-03
 0.15080004E+02  0.63195E-03
 0.15130004E+02  0.42953E-03
 0.15180003E+02  0.19235E-03
 0.15230003E+02 -0.63048E-04
 0.15280004E+02 -0.41773E-04
 0.15330004E+02 -0.88322E-04
 0.15380004E+02 -0.24416E-03
 0.15430003E+02 -0.34340E-03
 0.15480003E+02 -0.36500E-03
 0.15530004E+02 -0.27215E-03
 0.15580004E+02 -0.76771E-04
 0.15630004E+02  0.26500E-03
 0.15680003E+02  0.34849E-03
 0.15730003E+02  0.34119E-03
 0.15780004E+02  0.54601E-03
 0.15830004E+02  0.37460E-03
 0.15880004E+02  0.15022E-03
 0.15930003E+02 -0.15332E-03
 0.15980003E+02 -0.71061E-03
 0.16030005E+02 -0.69638E-03
 0.16080004E+02 -0.55946E-03
 0.16130003E+02 -0.42260E-03
 0.16180004E+02 -0.24602E-03
 0.16230003E+02 -0.95301E-04
 0.16280005E+02  0.35301E-03
 0.16330004E+02  0.45587E-03
 0.16380003E+02  0.71361E-03
 0.16430004E+02  0.82954E-03
 0.16480003E+02  0.45844E-03
 0.16530005E+02  0.44537E-03
 0.16580004E+02  0.14374E-03
 0.16630003E+02 -0.33810E-03
 0.16680004E+02 -0.41806E-03
 0.16730003E+02 -0.42992E-03
 0.16780005E+02 -0.47995E-03
 0.16830004E+02 -0.36062E-03
 0.16880003E+02 -0.38932E-03
 0.16930004E+02 -0.25766E-03
 0.16980003E+02  0.12256E-03
 0.17030005E+02  0.12657E-03
 0.17080004E+02  0.14736E-03
 0.17130003E+02  0.12851E-03
 0.17180004E+02  0.90981E-04
 0.17230003E+02 -0.10030E-03
 0.17280005E+02 -0.33384E-03
 0.17330004E+02  0.14756E-04
 0.17380003E+02  0.64553E-04
 0.17430004E+02 -0.32546E-04
 0.17480003E+02  0.15708E-03
 0.17530005E+02 -0.18098E-04
 0.17580004E+02  0.10340E-03
 0.17630003E+02  0.56864E-03
 0.17680004E+02  0.70241E-03
 0.17730003E+02  0.55186E-03
 0.17780005E+02  0.66339E-04
 0.17830004E+02 -0.43868E-03
 0.17880003E+02 -0.69790E-03
 0.17930004E+02 -0.68572E-03
 0.17980003E+02 -0.49886E-03
 0.18030005E+02 -0.32574E-03
 0.18080004E+02  0.63584E-06
 0.18130003E+02  0.29674E-03
 0.18180004E+02  0.36643E-03
 0.18230003E+02  0.33204E-03
 0.18280005E+02  0.24150E-03
 0.18330004E+02  0.28581E-03
 0.18380003E+02  0.45274E-03
 0.18430004E+02  0.33747E-03
 0.18480003E+02 -0.98180E-04
 0.18530005E+02 -0.40921E-03
 0.18580004E+02 -0.60009E-03
 0.18630003E+02 -0.57784E-03
 0.18680004E+02 -0.33704E-03
 0.18730003E+02 -0.18332E-04
 0.18780005E+02  0.28305E-03
 0.18830004E+02  0.43830E-03
 0.18880003E+02  0.69621E-03
 0.18930004E+02  0.51676E-03
 0.18980003E+02  0.12316E-03
 0.19030005E+02  0.46136E-05
 0.19080004E+02 -0.31332E-03
 0.19130003E+02 -0.62139E-03
 0.19180004E+02 -0.59234E-03
 0.19230003E+02 -0.32855E-03
 0.19280005E+02 -0.26101E-03
 0.19330004E+02 -0.21757E-03
 0.19380003E+02  0.55649E-04
 0.19430004E+02  0.14910E-03
 0.19480003E+02  0.29789E-03
 0.19530005E+02  0.76062E-03
 0.19580004E+02  0.51500E-03
 0.19630003E+02 -0.72065E-04
 0.19680004E+02  0.31990E-04
 0.19730003E+02 -0.17748E-03
 0.19780005E+02 -0.34102E-03
 0.19830004E+02 -0.21249E-03
 0.19880003E+02 -0.26941E-03
 0.19930004E+02 -0.17044E-03
 0.19980003E+02 -0.67782E-04
 0.20030005E+02  0.16376E-03
 0.20080004E+02  0.11217E-03
 0.20130003E+02  0.73319E-04
 0.20180004E+02  0.24019E-03
 0.20230003E+02  0.14792E-03
 0.20280005E+02  0.64063E-04
 0.20330004E+02 -0.22502E-03
 0.20380003E+02 -0.30088E-03
 0.20430004E+02  0.59448E-04
 0.20480003E+02  0.20218E-03
 0.20530005E+02  0.93253E-04
 0.20580004E+02  0.10849E-03
 0.20630003E+02  0.21683E-03
 0.20680004E+02  0.53381E-04
 0.20730003E+02  0.57075E-04
 0.20780005E+02 -0.74104E-04
 0.20830004E+02 -0.39223E-03
 0.20880003E+02  0.39069E-05
 0.20930004E+02  0.70690E-04
 0.20980003E+02 -0.10804E-03
 0.21030005E+02  0.32596E-04
 0.21080004E+02 -0.40327E-04
 0.21130003E+02 -0.10653E-04
 0.21180004E+02 -0.10727E-03
 0.21230003E+02 -0.67032E-04
 0.21280005E+02  0.71910E-04
 0.21330004E+02 -0.11867E-03
 0.21380003E+02  0.30581E-04
 0.21430004E+02 -0.13768E-04
 0.21480003E+02 -0.40142E-04
 0.21530005E+02  0.49421E-03
 0.21580004E+02  0.35638E-03
 0.21630003E+02  0.93740E-04
 0.21680004E+02  0.79586E-04
 0.21730003E+02 -0.21665E-03
 0.21780005E+02 -0.17517E-03
 0.21830004E+02  0.53362E-04
 0.21880003E+02  0.88266E-04
 0.21930004E+02  0.11325E-03
 0.21980003E+02  0.60084E-05
 0.22030005E+02 -0.28792E-03
 0.22080004E+02 -0.18041E-03
 0.22130003E+02 -0.16569E-03
 0.22180004E+02 -0.48082E-03
 0.22230003E+02 -0.55897E-03
 0.22280005E+02 -0.28113E-03
 0.22330004E+02  0.23026E-03
 0.22380003E+02  0.26982E-03
 0.22430004E+02  0.41693E-03
 0.22480003E+02  0.51101E-03
 0.22530005E+02  0.27217E-03
 0.22580004E+02  0.30060E-03
 0.22630003E+02  0.25179E-03
 0.22680004E+02  0.16947E-03
 0.22730003E+02  0.25918E-03
 0.22780005E+02  0.22183E-03
 0.22830004E+02  0.18362E-04
 0.22880003E+02 -0.45006E-04
 0.22930004E+02 -0.45718E-03
 0.22980003E+02 -0.76040E-03
 0.23030005E+02 -0.58708E-03
 0.23080004E+02 -0.33940E-03
 0.23130003E+02 -0.38334E-03
 0.23180004E+02 -0.53186E-03
 0.23230003E+02 -0.41493E-03
 0.23280005E+02 -0.37638E-03
 0.23330004E+02  0.89520E-04
 0.23380003E+02  0.29297E-03
 0.23430004E+02  0.48020E-03
 0.23480003E+02  0.80910E-03
 0.23530005E+02  0.34459E-03
 0.23580004E+02 -0.30365E-04
 0.23630003E+02  0.98219E-04
 0.23680004E+02  0.73469E-03
 0.23730003E+02  0.99114E-03
 0.23780005E+02  0.75902E-03
 0.23830004E+02 -0.14907E-03
 0.23880003E+02 -0.21897E-02
 0.23930004E+02 -0.32404E-02
 0.23980003E+02 -0.26897E-02
 0.24030005E+02 -0.76066E-03
 0.24080004E+02  0.14607E-02
 0.24130003E+02  0.17026E-02
 0.24180004E+02  0.26555E-02
 0.24230003E+02  0.44519E-02
 0.24280005E+02  0.32007E-02
 0.24330004E+02  0.12505E-02
 0.24380003E+02 -0.10080E-03
 0.24430004E+02 -0.76810E-03
 0.24480003E+02 -0.11780E-03
 0.24530005E+02 -0.77582E-03
 0.24580004E+02 -0.15039E-02
 0.24630003E+02 -0.22340E-02
 0.24680004E+02 -0.45970E-02
 0.24730003E+02 -0.49327E-02
 0.24780005E+02 -0.22919E-02
 0.24830004E+02  0.62397E-03
 0.24880003E+02  0.25923E-02
 0.24930004E+02  0.26135E-02
 0.24980003E+02  0.14569E-02
 0.25030005E+02  0.66775E-03
 0.25080004E+02  0.75474E-03
 0.25130003E+02  0.12652E-02
 0.25180004E+02  0.75702E-03
 0.25230003E+02  0.66387E-03
 0.25280005E+02  0.11609E-02
 0.25330004E+02  0.49195E-03
 0.25380003E+02 -0.51214E-03
 0.25430004E+02 -0.88569E-03
 0.25480003E+02 -0.11586E-02
 0.25530005E+02 -0.12294E-02
 0.25580004E+02  0.32998E-03
 0.25630003E+02  0.89053E-03
 0.25680004E+02 -0.19350E-03
 0.25730003E+02 -0.43201E-03
 0.25780005E+02 -0.21048E-03
 0.25830004E+02  0.11837E-03
 0.25880003E+02 -0.32315E-04
 0.25930004E+02 -0.23968E-03
 0.25980003E+02 -0.48475E-05
 0.26030005E+02  0.30296E-03
 0.26080004E+02  0.92936E-03
 0.26130003E+02  0.97212E-03
 0.26180004E+02 -0.11977E-02
 0.26230003E+02 -0.27537E-02
 0.26280005E+02 -0.13253E-02
 0.26330004E+02  0.36022E-04
 0.26380003E+02  0.10317E-02
 0.26430004E+02  0.17634E-02
 0.26480003E+02  0.58532E-03
 0.26530005E+02 -0.45422E-03
 0.26580004E+02 -0.89968E-03
 0.26630003E+02 -0.14283E-02
 0.26680004E+02 -0.72346E-03
 0.26730003E+02  0.35879E-03
 0.26780005E+02  0.11263E-02
 0.26830004E+02  0.17950E-02
 0.26880003E+02  0.22134E-02
 0.26930004E+02  0.15913E-02
 0.26980003E+02 -0.56248E-04
 0.27030005E+02 -0.11629E-02
 0.27080004E+02 -0.11665E-02
 0.27130003E+02 -0.11054E-02
 0.27180004E+02 -0.15030E-02
 0.27230003E+02 -0.89598E-03
 0.27280005E+02 -0.41726E-03
 0.27330004E+02 -0.39645E-03
 0.27380003E+02  0.28751E-04
 0.27430004E+02 -0.49117E-04
 0.27480003E+02  0.10651E-02
 0.27530005E+02  0.20496E-02
 0.27580004E+02  0.15832E-02
 0.27630003E+02  0.17528E-02
 0.27680004E+02  0.16609E-02
 0.27730003E+02  0.55826E-03
 0.27780005E+02 -0.21455E-03
 0.27830004E+02 -0.21896E-03
 0.27880003E+02 -0.10057E-02
 0.27930004E+02 -0.26043E-02
 0.27980003E+02 -0.35398E-02
 0.28030005E+02 -0.36802E-02
 0.28080004E+02 -0.36171E-02
 0.28130003E+02 -0.21877E-02
 0.28180004E+02  0.72319E-03
 0.28230003E+02  0.19628E-02
 0.28280005E+02  0.25032E-02
 0.28330004E+02  0.31897E-02
 0.28380003E+02  0.27237E-02
 0.28430004E+02  0.26779E-02
 0.28480003E+02  0.29224E-02
 0.28530005E+02  0.25191E-02
 0.28580004E+02  0.13147E-02
 0.28630003E+02 -0.15875E-03
 0.28680004E+02 -0.14325E-02
 0.28730003E+02 -0.28033E-02
 0.28780005E+02 -0.27781E-02
 0.28830004E+02 -0.17966E-02
 0.28880003E+02 -0.14862E-02
 0.28930004E+02 -0.12149E-02
 0.28980003E+02 -0.90086E-03
 0.29030005E+02 -0.10543E-02
 0.29080004E+02 -0.55818E-03
 0.29130003E+02  0.86910E-03
 0.29180004E+02  0.15049E-02
 0.29230003E+02  0.15864E-02
 0.29280005E+02  0.84096E-03
 0.29330004E+02 -0.11186E-03
 0.29380003E+02 -0.39256E-03
 0.29430004E+02 -0.83037E-03
 0.29480003E+02 -0.29603E-03
 0.29530005E+02  0.22585E-03
 0.29580004E+02  0.42247E-03
 0.29630003E+02  0.66580E-03
 0.29680004E+02  0.69897E-03
 0.29730003E+02  0.11277E-02
 0.29780005E+02  0.52256E-03
 0.29830004E+02  0.82661E-04
 0.29880003E+02  0.10820E-03
 0.29930004E+02 -0.12000E-02
 0.29980003E+02 -0.13369E-02
 0.30030005E+02 -0.66120E-03
 0.30080004E+02 -0.12721E-02
 0.30130003E+02 -0.34196E-03
 0.30180004E+02  0.99184E-03
 0.30230003E+02  0.64066E-03
 0.30280005E+02  0.88030E-03
 0.30330004E+02  0.53684E-03
 0.30380003E+02  0.62599E-03
 0.30430004E+02  0.19646E-02
 0.30480003E+02  0.84337E-03
 0.30530005E+02 -0.10480E-02
 0.30580004E+02 -0.13785E-02
 0.30630003E+02 -0.16677E-02
 0.30680004E+02 -0.17091E-02
 0.30730003E+02 -0.44118E-03
 0.30780005E+02  0.65897E-03
 0.30830004E+02  0.56390E-03
 0.30880003E+02  0.16852E-03
 0.30930004E+02  0.50319E-03
 0.30980003E+02  0.10770E-02
 0.31030005E+02  0.10796E-02
 0.31080004E+02  0.83802E-03
 0.31130003E+02 -0.39334E-03
 0.31180004E+02 -0.94158E-03
 0.31230003E+02  0.13052E-03
 0.31280005E+02 -0.17807E-03
 0.31330004E+02 -0.11787E-02
 0.31380003E+02 -0.81705E-03
 0.31430004E+02 -0.55658E-03
 0.31480003E+02 -0.22516E-03
 0.31530005E+02  0.40879E-03
 0.31580004E+02  0.27566E-03
 0.31630003E+02 -0.10732E-03
 0.31680004E+02 -0.30289E-03
 0.31730003E+02 -0.13832E-03
 0.31780005E+02 -0.29302E-03
 0.31830004E+02  0.89181E-05
 0.31880003E+02  0.68249E-03
 0.31930004E+02  0.38599E-03
 0.31980003E+02  0.23461E-03
 0.32030003E+02  0.38437E-03
 0.32080006E+02  0.89471E-04
 0.32130005E+02 -0.39592E-03
 0.32180004E+02 -0.12864E-03
 0.32230003E+02  0.34679E-03
 0.32280003E+02  0.49840E-06
 0.32330006E+02 -0.75282E-04
 0.32380005E+02  0.19683E-03
 0.32430004E+02  0.64025E-03
 0.32480003E+02  0.10704E-02
 0.32530003E+02  0.67358E-03
 0.32580006E+02  0.40506E-03
 0.32630005E+02  0.26526E-04
 0.32680004E+02 -0.83679E-03
 0.32730003E+02 -0.12073E-02
 0.32780003E+02 -0.61600E-03
 0.32830006E+02 -0.67076E-04
 0.32880005E+02 -0.51397E-03
 0.32930004E+02 -0.81679E-03
 0.32980003E+02 -0.39110E-03
 0.33030003E+02  0.34184E-03
 0.33080006E+02  0.81528E-03
 0.33130005E+02  0.76445E-03
 0.33180004E+02  0.36785E-03
 0.33230003E+02 -0.18503E-04
 0.33280003E+02  0.13836E-03
 0.33330006E+02  0.53702E-03
 0.33380005E+02  0.85265E-04
 0.33430004E+02 -0.40266E-03
 0.33480003E+02 -0.44658E-03
 0.33530003E+02 -0.97325E-03
 0.33580006E+02 -0.11847E-02
 0.33630005E+02 -0.87213E-03
 0.33680004E+02 -0.28262E-03
 0.33730003E+02  0.47843E-03
 0.33780003E+02  0.75063E-03
 0.33830006E+02  0.94445E-03
 0.33880005E+02  0.52712E-03
 0.33930004E+02 -0.69203E-03
 0.33980003E+02 -0.35152E-03
 0.34030003E+02  0.76036E-03
 0.34080006E+02  0.93529E-03
 0.34130005E+02  0.87088E-03
 0.34180004E+02  0.38400E-03
 0.34230003E+02 -0.17218E-03
 0.34280003E+02 -0.17942E-03
 0.34330006E+02  0.83954E-04
 0.34380005E+02  0.54269E-04
 0.34430004E+02 -0.22663E-03
 0.34480003E+02 -0.17534E-03
 0.34530003E+02 -0.28470E-03
 0.34580006E+02 -0.84151E-03
 0.34630005E+02 -0.76774E-03
 0.34680004E+02 -0.40205E-03
 0.34730003E+02 -0.58046E-03
 0.34780003E+02 -0.72651E-04
 0.34830006E+02  0.33044E-03
 0.34880005E+02 -0.30677E-03
 0.34930004E+02 -0.13622E-03
 0.34980003E+02  0.41284E-03
 0.35030003E+02  0.71259E-03
 0.35080006E+02  0.10580E-02
 0.35130005E+02  0.90578E-03
 0.35180004E+02  0.32279E-03
 0.35230003E+02 -0.53138E-03
 0.35280003E+02 -0.71588E-03
 0.35330006E+02 -0.20104E-03
 0.35380005E+02  0.25121E-03
 0.35430004E+02  0.46788E-03
 0.35480003E+02  0.30657E-03
 0.35530003E+02 -0.18800E-03
 0.35580006E+02 -0.45538E-03
 0.35630005E+02 -0.26180E-03
 0.35680004E+02 -0.23584E-03
 0.35730003E+02  0.13700E-03
 0.35780003E+02  0.10092E-03
 0.35830006E+02 -0.25990E-03
 0.35880005E+02  0.23403E-03
 0.35930004E+02  0.11207E-03
 0.35980003E+02 -0.30287E-03
 0.36030003E+02 -0.21480E-03
 0.36080006E+02 -0.28005E-03
 0.36130005E+02 -0.20222E-03
 0.36180004E+02  0.93474E-04
 0.36230003E+02  0.17571E-03
 0.36280003E+02  0.33174E-04
 0.36330006E+02 -0.10791E-03
 0.36380005E+02 -0.10523E-03
 0.36430004E+02  0.12442E-03
 0.36480003E+02  0.66213E-04
 0.36530003E+02 -0.28765E-03
 0.36580006E+02 -0.11841E-03
 0.36630005E+02  0.14728E-03
 0.36680004E+02  0.11757E-03
 0.36730003E+02  0.22058E-03
 0.36780003E+02  0.23853E-03
 0.36830006E+02  0.15727E-03
 0.36880005E+02  0.89630E-04
 0.36930004E+02  0.29508E-04
 0.36980003E+02  0.21537E-03
 0.37030003E+02  0.14485E-03
 0.37080006E+02  0.44062E-04
 0.37130005E+02  0.32910E-03
 0.37180004E+02  0.19487E-03
 0.37230003E+02 -0.99345E-05
 0.37280003E+02 -0.68988E-04
 0.37330006E+02 -0.25905E-03
 0.37380005E+02 -0.42384E-03
 0.37430004E+02 -0.43640E-03
 0.37480003E+02  0.22543E-03
 0.37530003E+02  0.41574E-03
 0.37580006E+02  0.20037E-03
 0.37630005E+02  0.15536E-03
 0.37680004E+02 -0.38634E-03
 0.37730003E+02 -0.50449E-03
 0.37780003E+02 -0.40498E-03
 0.37830006E+02 -0.30166E-03
 0.37880005E+02 -0.22036E-03
 0.37930004E+02 -0.32002E-03
 0.37980003E+02 -0.34061E-03
 0.38030003E+02 -0.21862E-03
 0.38080006E+02  0.19430E-03
 0.38130005E+02  0.50424E-03
 0.38180004E+02  0.74622E-03
 0.38230003E+02  0.60884E-03
 0.38280003E+02  0.29244E-03
 0.38330006E+02  0.83823E-04
 0.38380005E+02 -0.12625E-03
 0.38430004E+02 -0.36625E-04
 0.38480003E+02  0.14841E-03
 0.38530003E+02  0.93726E-04
 0.38580006E+02 -0.29488E-03
 0.38630005E+02 -0.51865E-03
 0.38680004E+02 -0.56516E-03
 0.38730003E+02 -0.47894E-03
 0.38780003E+02 -0.93916E-04
 0.38830006E+02  0.23684E-03
 0.38880005E+02  0.34865E-03
 0.38930004E+02  0.32018E-03
 0.38980003E+02  0.43092E-03
 0.39030003E+02  0.47220E-03
 0.39080006E+02  0.50839E-03
 0.39130005E+02  0.47050E-03
 0.39180004E+02  0.10267E-03
 0.39230003E+02 -0.10194E-03
 0.39280003E+02 -0.17580E-03
 0.39330006E+02 -0.29062E-03
 0.39380005E+02 -0.53225E-03
 0.39430004E+02 -0.69250E-03
 0.39480003E+02 -0.58729E-03
 0.39530003E+02 -0.40923E-03
 0.39580006E+02 -0.13878E-03
 0.39630005E+02  0.22211E-03
 0.39680004E+02  0.40622E-03
 0.39730003E+02  0.35507E-03
 0.39780003E+02  0.56078E-05
 0.39830006E+02 -0.36718E-03
 0.39880005E+02 -0.14877E-03
 0.39930004E+02  0.15529E-03
 0.39980003E+02  0.39860E-03
 0.40030003E+02  0.43073E-03
 0.40080006E+02  0.14379E-03
 0.40130005E+02 -0.30784E-04
 0.40180004E+02 -0.21259E-03
 0.40230003E+02 -0.94251E-04
 0.40280003E+02  0.85980E-04
 0.40330006E+02  0.87951E-04
 0.40380005E+02  0.23054E-03
 0.40430004E+02  0.14614E-03
 0.40480003E+02  0.89047E-04
 0.40530003E+02  0.23184E-03
 0.40580006E+02  0.72095E-04
 0.40630005E+02 -0.14022E-03
 0.40680004E+02 -0.34378E-03
 0.40730003E+02 -0.69102E-03
 0.40780003E+02 -0.78052E-03
 0.40830006E+02 -0.53732E-03
 0.40880005E+02 -0.37163E-03
 0.40930004E+02 -0.22319E-03
 0.40980003E+02  0.81268E-04
 0.41030003E+02  0.25786E-03
 0.41080006E+02  0.42319E-03
 0.41130005E+02  0.57727E-03
 0.41180004E+02  0.71201E-03
 0.41230003E+02  0.90273E-03
 0.41280003E+02  0.78978E-03
 0.41330006E+02  0.62381E-03
 0.41380005E+02  0.29100E-03
 0.41430004E+02 -0.20645E-03
 0.41480003E+02 -0.36862E-03
 0.41530003E+02 -0.50405E-03
 0.41580006E+02 -0.56532E-03
 0.41630005E+02 -0.41554E-03
 0.41680004E+02 -0.26031E-03
 0.41730003E+02 -0.20873E-03
 0.41780003E+02 -0.35088E-03
 0.41830006E+02 -0.50935E-03
 0.41880005E+02 -0.38639E-03
 0.41930004E+02 -0.67816E-04
 0.41980003E+02  0.10116E-04
 0.42030003E+02 -0.29599E-04
 0.42080006E+02  0.12227E-03
 0.42130005E+02  0.73308E-04
 0.42180004E+02  0.19623E-04
 0.42230003E+02  0.23786E-03
 0.42280003E+02  0.32360E-03
 0.42330006E+02  0.46234E-03
 0.42380005E+02  0.53585E-03
 0.42430004E+02  0.42263E-03
 0.42480003E+02  0.26892E-03
 0.42530003E+02  0.15938E-03
 0.42580006E+02  0.12246E-03
 0.42630005E+02 -0.27912E-04
 0.42680004E+02 -0.90725E-04
 0.42730003E+02 -0.15592E-03
 0.42780003E+02 -0.26515E-03
 0.42830006E+02 -0.34199E-03
 0.42880005E+02 -0.28850E-03
 0.42930004E+02 -0.25045E-03
 0.42980003E+02 -0.31311E-03
 0.43030003E+02 -0.27371E-03
 0.43080006E+02 -0.27179E-03
 0.43130005E+02 -0.21673E-03
 0.43180004E+02 -0.27670E-03
 0.43230003E+02 -0.21702E-03
 0.43280003E+02  0.12691E-03
 0.43330006E+02  0.37451E-03
 0.43380005E+02  0.70082E-03
 0.43430004E+02  0.84225E-03
 0.43480003E+02  0.66272E-03
 0.43530003E+02  0.42058E-03
 0.43580006E+02 -0.37629E-04
 0.43630005E+02 -0.40898E-03
 0.43680004E+02 -0.52729E-03
 0.43730003E+02 -0.60346E-03
 0.43780003E+02 -0.57682E-03
 0.43830006E+02 -0.39499E-03
 0.43880005E+02 -0.18875E-03
 0.43930004E+02 -0.16504E-03
 0.43980003E+02 -0.72396E-04
 0.44030003E+02  0.26217E-03
 0.44080006E+02  0.45809E-03
 0.44130005E+02  0.42738E-03
 0.44180004E+02  0.46297E-03
 0.44230003E+02  0.34629E-03
 0.44280003E+02  0.10037E-03
 0.44330006E+02  0.17378E-03
 0.44380005E+02  0.13252E-03
 0.44430004E+02 -0.13717E-03
 0.44480003E+02 -0.55590E-04
 0.44530003E+02  0.48848E-04
 0.44580006E+02 -0.14228E-03
 0.44630005E+02 -0.92755E-04
 0.44680004E+02 -0.29560E-04
 0.44730003E+02 -0.28312E-03
 0.44780003E+02 -0.29289E-03
 0.44830006E+02 -0.24258E-03
 0.44880005E+02 -0.23951E-03
 0.44930004E+02  0.39827E-04
 0.44980003E+02  0.24151E-03
 0.45030003E+02  0.29725E-03
 0.45080006E+02  0.28757E-03
 0.45130005E+02  0.27322E-03
 0.45180004E+02  0.20841E-03
 0.45230003E+02 -0.85252E-04
 0.45280003E+02 -0.32180E-03
 0.45330006E+02 -0.37991E-03
 0.45380005E+02 -0.41930E-03
 0.45430004E+02 -0.35740E-03
 0.45480003E+02 -0.74364E-04
 0.45530003E+02  0.17550E-03
 0.45580006E+02  0.18294E-03
 0.45630005E+02  0.28797E-03
 0.45680004E+02  0.35769E-03
 0.45730003E+02  0.78357E-04
 0.45780003E+02  0.34429E-04
 0.45830006E+02  0.38805E-04
 0.45880005E+02 -0.10985E-03
 0.45930004E+02 -0.74459E-04
 0.45980003E+02 -0.14740E-03
 0.46030003E+02 -0.26116E-03
 0.46080006E+02 -0.26269E-03
 0.46130005E+02 -0.39471E-04
 0.46180004E+02  0.16995E-03
 0.46230003E+02  0.15378E-03
 0.46280003E+02  0.17292E-03
 0.46330006E+02  0.19902E-04
 0.46380005E+02 -0.10075E-03
 0.46430004E+02  0.24740E-04
 0.46480003E+02  0.12589E-03
 0.46530003E+02  0.11872E-03
 0.46580006E+02 -0.72421E-05
 0.46630005E+02 -0.15922E-03
 0.46680004E+02 -0.28498E-03
 0.46730003E+02 -0.22297E-03
 0.46780003E+02 -0.75844E-04
 0.46830006E+02 -0.52243E-04
 0.46880005E+02 -0.12185E-04
 0.46930004E+02  0.15554E-03
 0.46980003E+02  0.31386E-03
 0.47030003E+02  0.40653E-03
 0.47080006E+02  0.48473E-03
 0.47130005E+02  0.27431E-03
 0.47180004E+02  0.92502E-04
 0.47230003E+02  0.39281E-04
 0.47280003E+02 -0.52898E-04
 0.47330006E+02  0.43455E-05
 0.47380005E+02 -0.12058E-03
 0.47430004E+02 -0.27293E-03
 0.47480003E+02 -0.25236E-03
 0.47530003E+02 -0.23260E-03
 0.47580006E+02 -0.11369E-03
 0.47630005E+02 -0.52602E-05
 0.47680004E+02 -0.37314E-04
 0.47730003E+02 -0.63948E-04
 0.47780003E+02 -0.90515E-04
 0.47830006E+02 -0.83948E-04
 0.47880005E+02 -0.44691E-04
 0.47930004E+02 -0.14429E-03
 0.47980003E+02 -0.20057E-03
 0.48030003E+02 -0.19820E-03
 0.48080006E+02 -0.12871E-03
 0.48130005E+02 -0.38873E-04
 0.48180004E+02 -0.35780E-04
 0.48230003E+02  0.60496E-05
 0.48280003E+02 -0.37971E-04
 0.48330006E+02  0.29665E-04
 0.48380005E+02  0.17974E-03
 0.48430004E+02  0.24896E-03
 0.48480003E+02  0.45871E-03
 0.48530003E+02  0.59161E-03
 0.48580006E+02  0.52741E-03
 0.48630005E+02  0.32489E-03
 0.48680004E+02  0.95840E-04
 0.48730003E+02 -0.10868E-03
 0.48780003E+02 -0.28747E-03
 0.48830006E+02 -0.26762E-03
 0.48880005E+02 -0.29577E-03
 0.48930004E+02 -0.37013E-03
 0.48980003E+02 -0.24857E-03
 0.49030003E+02 -0.67762E-04
 0.49080006E+02 -0.14535E-04
 0.49130005E+02  0.23988E-06
 0.49180004E+02  0.23599E-05
 0.49230003E+02 -0.10463E-03
 0.49280003E+02  0.41183E-04
 0.49330006E+02  0.27845E-03
 0.49380005E+02  0.26399E-03
 0.49430004E+02  0.22825E-03
 0.49480003E+02  0.78691E-04
 0.49530003E+02 -0.51305E-04
 0.49580006E+02 -0.66949E-04
 0.49630005E+02 -0.16229E-03
 0.49680004E+02 -0.18242E-03
 0.49730003E+02 -0.18647E-03
 0.49780003E+02 -0.14335E-03
 0.49830006E+02 -0.53882E-04
 0.49880005E+02  0.29628E-04
 0.49930004E+02  0.18058E-03
 0.49980003E+02  0.17103E-03
 0.50030003E+02  0.80372E-04
 0.50080006E+02  0.48553E-04
 0.50130005E+02 -0.83170E-04
 0.50180004E+02 -0.16739E-03
 0.50230003E+02 -0.15236E-03
 0.50280003E+02 -0.14940E-03
 0.50330006E+02 -0.58923E-04
 0.50380005E+02 -0.18861E-04
 0.50430004E+02 -0.49854E-04
 0.50480003E+02 -0.31002E-04
 0.50530003E+02  0.49259E-04
 0.50580006E+02  0.12855E-03
 0.50630005E+02  0.24564E-03
 0.50680004E+02  0.39059E-03
 0.50730003E+02  0.28834E-03
 0.50780003E+02  0.12954E-03
 0.50830006E+02  0.46434E-04
 0.50880005E+02 -0.69523E-04
 0.50930004E+02 -0.71776E-04
 0.50980003E+02  0.78739E-05
 0.51030003E+02 -0.43663E-04
 0.51080006E+02 -0.14186E-03
 0.51130005E+02 -0.11944E-03
 0.51180004E+02 -0.18323E-03
 0.51230003E+02 -0.30688E-03
 0.51280003E+02 -0.21923E-03
 0.51330006E+02 -0.10687E-03
 0.51380005E+02 -0.31160E-05
 0.51430004E+02  0.21875E-03
 0.51480003E+02  0.27285E-03
 0.51530003E+02  0.21195E-03
 0.51580006E+02  0.16254E-03
 0.51630005E+02 -0.39363E-05
 0.51680004E+02 -0.10442E-03
 0.51730003E+02 -0.22989E-03
 0.51780003E+02 -0.40851E-03
 0.51830006E+02 -0.29830E-03
 0.51880005E+02 -0.10713E-03
 0.51930004E+02  0.60877E-05
 0.51980003E+02  0.18501E-03
 0.52030003E+02  0.29679E-03
 0.52080006E+02  0.33075E-03
 0.52130005E+02  0.29610E-03
 0.52180004E+02  0.14551E-03
 0.52230003E+02  0.91195E-04
 0.52280003E+02  0.76159E-04
 0.52330006E+02 -0.59233E-04
 0.52380005E+02 -0.18805E-03
 0.52430004E+02 -0.32522E-03
 0.52480003E+02 -0.37158E-03
 0.52530003E+02 -0.21925E-03
 0.52580006E+02 -0.91220E-04
 0.52630005E+02 -0.35049E-04
 0.52680004E+02 -0.26811E-04
 0.52730003E+02 -0.36212E-04
 0.52780003E+02  0.36686E-04
 0.52830006E+02  0.12459E-03
 0.52880005E+02  0.20119E-03
 0.52930004E+02  0.24639E-03
 0.52980003E+02  0.25247E-03
 0.53030003E+02  0.21978E-03
 0.53080006E+02  0.15530E-03
 0.53130005E+02  0.93653E-04
 0.53180004E+02  0.33847E-04
 0.53230003E+02  0.36228E-05
 0.53280003E+02  0.24562E-05
 0.53330006E+02 -0.63140E-04
 0.53380005E+02 -0.15083E-03
 0.53430004E+02 -0.10865E-03
 0.53480003E+02 -0.11326E-03
 0.53530003E+02 -0.11349E-03
 0.53580006E+02 -0.57417E-04
 0.53630005E+02 -0.38225E-04
 0.53680004E+02 -0.37177E-04
 0.53730003E+02 -0.16995E-03
 0.53780003E+02 -0.22249E-03
 0.53830006E+02 -0.18759E-03
 0.53880005E+02 -0.14382E-03
 0.53930004E+02 -0.24258E-04
 0.53980003E+02  0.78130E-04
 0.54030003E+02  0.13464E-03
 0.54080006E+02  0.17121E-03
 0.54130005E+02  0.25319E-03
 0.54180004E+02  0.27111E-03
 0.54230003E+02  0.22812E-03
 0.54280003E+02  0.15326E-03
 0.54330006E+02  0.71062E-04
 0.54380005E+02  0.32273E-04
 0.54430004E+02 -0.59730E-04
 0.54480003E+02 -0.13760E-03
 0.54530003E+02 -0.16267E-03
 0.54580006E+02 -0.17349E-03
 0.54630005E+02 -0.74751E-04
 0.54680004E+02  0.56558E-04
 0.54730003E+02  0.22048E-04
 0.54780003E+02 -0.15876E-04
 0.54830006E+02 -0.34436E-05
 0.54880005E+02  0.22212E-04
 0.54930004E+02  0.64849E-04
 0.54980003E+02  0.54804E-05
 0.55030003E+02 -0.57720E-05
 0.55080006E+02 -0.27234E-04
 0.55130005E+02 -0.74501E-04
 0.55180004E+02 -0.25315E-04
 0.55230003E+02 -0.38184E-04
 0.55280003E+02 -0.31836E-04
 0.55330006E+02 -0.49250E-05
 0.55380005E+02 -0.89109E-04
 0.55430004E+02 -0.14514E-03
 0.55480003E+02 -0.14382E-03
 0.55530003E+02 -0.12681E-03
 0.55580006E+02  0.67259E-05
 0.55630005E+02  0.11135E-03
 0.55680004E+02  0.87900E-04
 0.55730003E+02  0.97873E-04
 0.55780003E+02  0.11303E-03
 0.55830006E+02  0.12700E-03
 0.55880005E+02  0.13071E-03
 0.55930004E+02  0.59097E-04
 0.55980003E+02  0.17693E-04
 0.56030003E+02  0.41470E-04
 0.56080006E+02  0.30518E-04
 0.56130005E+02 -0.43945E-04
 0.56180004E+02 -0.12437E-03
 0.56230003E+02 -0.13225E-03
 0.56280003E+02 -0.74138E-04
 0.56330006E+02 -0.56156E-07
 0.56380005E+02  0.19746E-04
 0.56430004E+02 -0.19650E-04
 0.56480003E+02  0.23348E-04
 0.56530003E+02  0.85970E-04
 0.56580006E+02  0.14675E-03
 0.56630005E+02  0.17111E-03
 0.56680004E+02  0.11112E-04
 0.56730003E+02 -0.13934E-03
 0.56780003E+02 -0.18251E-03
 0.56830006E+02 -0.17887E-03
 0.56880005E+02 -0.11955E-03
 0.56930004E+02 -0.78638E-04
 0.56980003E+02 -0.72377E-04
 0.57030003E+02  0.35288E-04
 0.57080006E+02  0.18417E-03
 0.57130005E+02  0.21150E-03
 0.57180004E+02  0.24474E-03
 0.57230003E+02  0.25001E-03
 0.57280003E+02  0.17470E-03
 0.57330006E+02  0.10326E-03
 0.57380005E+02 -0.11051E-04
 0.57430004E+02 -0.13000E-03
 0.57480003E+02 -0.23425E-03
 0.57530003E+02 -0.23673E-03
 0.57580006E+02 -0.17326E-03
 0.57630005E+02 -0.12699E-03
 0.57680004E+02 -0.60136E-04
 0.57730003E+02 -0.61270E-04
 0.57780003E+02  0.12532E-04
 0.57830006E+02  0.14319E-03
 0.57880005E+02  0.17743E-03
 0.57930004E+02  0.16298E-03
 0.57980003E+02  0.38802E-04
 0.58030003E+02 -0.13818E-03
 0.58080006E+02 -0.18088E-03
 0.58130005E+02 -0.96090E-04
 0.58180004E+02 -0.22830E-04
 0.58230003E+02  0.35487E-04
 0.58280003E+02  0.43399E-04
 0.58330006E+02 -0.70666E-05
 0.58380005E+02 -0.60320E-04
 0.58430004E+02 -0.87759E-04
 0.58480003E+02 -0.84385E-04
 0.58530003E+02 -0.14504E-03
 0.58580006E+02 -0.13522E-03
 0.58630005E+02 -0.19332E-04
 0.58680004E+02  0.93753E-04
 0.58730003E+02  0.21623E-03
 0.58780003E+02  0.25047E-03
 0.58830006E+02  0.18463E-03
 0.58880005E+02  0.97843E-04
 0.58930004E+02  0.71339E-04
 0.58980003E+02  0.28554E-05
 0.59030003E+02 -0.99509E-04
 0.59080006E+02 -0.71461E-04
 0.59130005E+02 -0.70349E-04
 0.59180004E+02 -0.75047E-04
 0.59230003E+02 -0.12227E-04
 0.59280003E+02  0.16278E-04
 0.59330006E+02  0.31378E-04
 0.59380005E+02  0.49237E-04
 0.59430004E+02  0.98311E-04
 0.59480003E+02  0.14236E-03
 0.59530003E+02  0.11380E-03
 0.59580006E+02  0.96795E-04
 0.59630005E+02  0.86880E-04
 0.59680004E+02  0.33734E-04
 0.59730003E+02 -0.37469E-04
 0.59780003E+02 -0.11556E-03
 0.59830006E+02 -0.12886E-03
 0.59880005E+02 -0.13437E-03
 0.59930004E+02 -0.13638E-03
 0.59980003E+02 -0.15642E-03
 0.60030003E+02 -0.20485E-03
 0.60080006E+02 -0.16113E-03
 0.60130005E+02 -0.13842E-03
 0.60180004E+02 -0.68035E-04
 0.60230003E+02 -0.26918E-04
 0.60280003E+02 -0.53356E-04
 0.60330006E+02  0.41727E-04
 0.60380005E+02  0.69970E-04
 0.60430004E+02  0.11329E-03
 0.60480003E+02  0.17143E-03
 0.60530003E+02  0.71542E-04
 0.60580006E+02  0.43744E-04
 0.60630005E+02  0.88903E-04
 0.60680004E+02  0.10842E-03
 0.60730003E+02  0.18141E-03
 0.60780003E+02  0.17662E-03
 0.60830006E+02  0.76770E-04
 0.60880005E+02  0.22748E-04
 0.60930004E+02 -0.16096E-04
 0.60980003E+02 -0.33659E-04
 0.61030003E+02 -0.43199E-05
 0.61080006E+02  0.19154E-04
 0.61130005E+02 -0.15893E-04
 0.61180004E+02 -0.64237E-04
 0.61230003E+02 -0.74258E-04
 0.61280003E+02 -0.51366E-04
 0.61330006E+02  0.15560E-05
 0.61380005E+02  0.13201E-04
 0.61430004E+02 -0.21475E-04
 0.61480003E+02 -0.70757E-04
 0.61530003E+02 -0.10448E-03
 0.61580006E+02 -0.10702E-03
 0.61630005E+02 -0.11058E-03
 0.61680004E+02 -0.87285E-04
 0.61730003E+02 -0.58127E-04
 0.61780003E+02 -0.36012E-04
 0.61830006E+02  0.35483E-04
 0.61880005E+02  0.13245E-03
 0.61930004E+02  0.17697E-03
 0.61980003E+02  0.17044E-03
 0.62030003E+02  0.13643E-03
 0.62080006E+02  0.90144E-04
 0.62130005E+02  0.48587E-04
 0.62180004E+02 -0.32288E-05
 0.62230003E+02 -0.64398E-04
 0.62280003E+02 -0.12715E-03
 0.62330006E+02 -0.15634E-03
 0.62380005E+02 -0.13830E-03
 0.62430004E+02 -0.11029E-03
 0.62480003E+02 -0.61362E-04
 0.62530003E+02 -0.90907E-06
 0.62580006E+02 -0.13305E-04
 0.62630005E+02 -0.16823E-04
 0.62680004E+02  0.46527E-04
 0.62730003E+02  0.43669E-04
 0.62780003E+02  0.29834E-04
 0.62830006E+02  0.55431E-04
 0.62880005E+02  0.31098E-04
 0.62930004E+02 -0.80961E-05
 0.62980003E+02  0.66899E-05
 0.63030003E+02  0.18153E-04
 0.63080006E+02  0.58746E-05
 0.63130005E+02  0.49045E-04
 0.63180004E+02  0.10916E-03
 0.63230003E+02  0.12843E-03
 0.63280003E+02  0.12305E-03
 0.63330006E+02  0.56245E-04
 0.63380005E+02 -0.73160E-04
 0.63430004E+02 -0.13129E-03
 0.63480003E+02 -0.10138E-03
 0.63530003E+02 -0.85039E-04
 0.63580006E+02 -0.64539E-04
 0.63630005E+02 -0.27689E-04
 0.63680004E+02 -0.34533E-04
 0.63730003E+02 -0.55751E-04
 0.63780003E+02 -0.11209E-04
 0.63830006E+02  0.31816E-04
 0.63880005E+02  0.50093E-04
 0.63930004E+02  0.53252E-04
 0.63980003E+02  0.96120E-05
 0.64030006E+02 -0.30613E-04
 0.64080002E+02 -0.73797E-04
 0.64130005E+02 -0.74166E-04
 0.64180008E+02 -0.28730E-04
 0.64230003E+02 -0.14646E-04
 0.64280006E+02 -0.12817E-04
 0.64330002E+02  0.17224E-04
 0.64380005E+02  0.60987E-04
 0.64430008E+02  0.11127E-03
 0.64480003E+02  0.17733E-03
 0.64530006E+02  0.17413E-03
 0.64580002E+02  0.10021E-03
 0.64630005E+02  0.39997E-04
 0.64680008E+02  0.47187E-05
 0.64730003E+02 -0.63464E-04
 0.64780006E+02 -0.11765E-03
 0.64830002E+02 -0.12066E-03
 0.64880005E+02 -0.13389E-03
 0.64930008E+02 -0.90087E-04
 0.64980003E+02 -0.26764E-04
 0.65030006E+02  0.81709E-05
 0.65080002E+02  0.27271E-04
 0.65130005E+02  0.17180E-04
 0.65180008E+02  0.20344E-04
 0.65230003E+02  0.17124E-04
 0.65280006E+02  0.44277E-04
 0.65330002E+02  0.58543E-04
 0.65380005E+02  0.28314E-04
 0.65430008E+02  0.25015E-04
 0.65480003E+02 -0.36369E-04
 0.65530006E+02 -0.62463E-04
 0.65580002E+02 -0.69160E-05
 0.65630005E+02 -0.14007E-04
 0.65680008E+02  0.25292E-04
 0.65730003E+02  0.60159E-04
 0.65780006E+02  0.29165E-04
 0.65830002E+02  0.42007E-04
 0.65880005E+02  0.14247E-04
 0.65930008E+02 -0.16066E-04
 0.65980003E+02  0.26269E-07
 0.66030006E+02 -0.48334E-05
 0.66080002E+02  0.15221E-04
 0.66130005E+02  0.32751E-04
 0.66180008E+02 -0.32412E-04
 0.66230003E+02 -0.67726E-04
 0.66280006E+02 -0.67281E-04
 0.66330002E+02 -0.97860E-04
 0.66380005E+02 -0.83136E-04
 0.66430008E+02 -0.70472E-04
 0.66480003E+02 -0.45093E-04
 0.66530006E+02  0.19533E-04
 0.66580002E+02  0.74017E-04
 0.66630005E+02  0.10811E-03
 0.66680008E+02  0.97184E-04
 0.66730003E+02  0.66613E-04
 0.66780006E+02  0.27784E-04
 0.66830002E+02  0.19777E-04
 0.66880005E+02  0.13243E-04
 0.66930008E+02 -0.31025E-04
 0.66980003E+02 -0.73035E-04
 0.67030006E+02 -0.94939E-04
 0.67080002E+02 -0.66021E-04
 0.67130005E+02 -0.35764E-04
 0.67180008E+02  0.64520E-05
 0.67230003E+02  0.67376E-04
 0.67280006E+02  0.92723E-04
 0.67330002E+02  0.95845E-04
 0.67380005E+02  0.40980E-04
 0.67430008E+02 -0.42547E-04
 0.67480003E+02 -0.11264E-03
 0.67530006E+02 -0.14043E-03
 0.67580002E+02 -0.80070E-04
 0.67630005E+02  0.19415E-04
 0.67680008E+02  0.98088E-04
 0.67730003E+02  0.10170E-03
 0.67780006E+02  0.76637E-04
 0.67830002E+02  0.66870E-04
 0.67880005E+02  0.41578E-04
 0.67930008E+02  0.38979E-04
 0.67980003E+02  0.33373E-04
 0.68030006E+02  0.19768E-04
 0.68080002E+02 -0.25821E-04
 0.68130005E+02 -0.12676E-03
 0.68180008E+02 -0.14483E-03
 0.68230003E+02 -0.98699E-04
 0.68280006E+02 -0.50652E-04
 0.68330002E+02  0.12910E-04
 0.68380005E+02  0.35100E-04
 0.68430008E+02  0.25176E-04
 0.68480003E+02  0.87374E-05
 0.68530006E+02 -0.15452E-04
 0.68580002E+02 -0.17520E-04
 0.68630005E+02 -0.17006E-04
 0.68680008E+02 -0.24318E-04
 0.68730003E+02  0.16354E-04
 0.68780006E+02  0.62974E-04
 0.68830002E+02  0.59586E-04
 0.68880005E+02  0.23532E-04
 0.68930008E+02 -0.19426E-04
 0.68980003E+02 -0.27208E-04
 0.69030006E+02 -0.27490E-05
 0.69080002E+02  0.10928E-04
 0.69130005E+02  0.23571E-04
 0.69180008E+02  0.53603E-04
 0.69230003E+02  0.51947E-04
 0.69280006E+02  0.49773E-04
 0.69330002E+02  0.46935E-04
 0.69380005E+02 -0.27463E-04
 0.69430008E+02 -0.79585E-04
 0.69480003E+02 -0.64854E-04
 0.69530006E+02 -0.49601E-04
 0.69580002E+02 -0.31325E-04
 0.69630005E+02 -0.26210E-04
 0.69680008E+02 -0.50186E-04
 0.69730003E+02 -0.59060E-04
 0.69780006E+02 -0.15242E-04
 0.69830002E+02  0.45562E-04
 0.69880005E+02  0.93557E-04
 0.69930008E+02  0.11980E-03
 0.69980003E+02  0.62947E-04
 0.70030006E+02  0.16590E-05
 0.70080002E+02 -0.15980E-04
 0.70130005E+02 -0.32493E-04
 0.70180008E+02  0.27394E-05
 0.70230003E+02  0.36857E-04
 0.70280006E+02  0.74228E-05
 0.70330002E+02 -0.32775E-04
 0.70380005E+02 -0.33090E-04
 0.70430008E+02 -0.36161E-04
 0.70480003E+02 -0.37751E-04
 0.70530006E+02 -0.30790E-04
 0.70580002E+02 -0.46683E-04
 0.70630005E+02 -0.14663E-04
 0.70680008E+02  0.74938E-05
 0.70730003E+02 -0.34165E-05
 0.70780006E+02  0.68733E-05
 0.70830002E+02  0.19355E-04
 0.70880005E+02  0.63825E-04
 0.70930008E+02  0.10588E-03
 0.70980003E+02  0.13077E-03
 0.71030006E+02  0.12909E-03
 0.71080002E+02  0.54025E-04
 0.71130005E+02 -0.26989E-04
 0.71180008E+02 -0.58502E-04
 0.71230003E+02 -0.64082E-04
 0.71280006E+02 -0.55845E-04
 0.71330002E+02 -0.46532E-04
 0.71380005E+02 -0.45314E-04
 0.71430008E+02 -0.23228E-04
 0.71480003E+02  0.13486E-04
 0.71530006E+02  0.12014E-04
 0.71580002E+02  0.52869E-05
 0.71630005E+02  0.36424E-04
 0.71680008E+02  0.31451E-04
 0.71730003E+02 -0.21310E-04
 0.71780006E+02 -0.54350E-04
 0.71830002E+02 -0.76223E-04
 0.71880005E+02 -0.77779E-04
 0.71930008E+02 -0.17362E-04
 0.71980003E+02  0.80638E-05
 0.72030006E+02 -0.38541E-04
 0.72080002E+02 -0.58119E-04
 0.72130005E+02 -0.58348E-04
 0.72180008E+02 -0.34027E-04
 0.72230003E+02  0.19562E-04
 0.72280006E+02  0.62738E-04
 0.72330002E+02  0.44979E-04
 0.72380005E+02 -0.24032E-04
 0.72430008E+02 -0.13540E-04
 0.72480003E+02  0.30215E-05
 0.72530006E+02 -0.10053E-05
 0.72580002E+02  0.59310E-04
 0.72630005E+02  0.66946E-04
 0.72680008E+02  0.26767E-04
 0.72730003E+02  0.19811E-04
 0.72780006E+02  0.26641E-04
 0.72830002E+02  0.23403E-04
 0.72880005E+02  0.13872E-04
 0.72930008E+02  0.15456E-04
 0.72980003E+02  0.22298E-04
 0.73030006E+02  0.40407E-04
 0.73080002E+02  0.63845E-04
 0.73130005E+02  0.71827E-04
 0.73180008E+02  0.48205E-04
 0.73230003E+02  0.32977E-05
 0.73280006E+02 -0.41587E-04
 0.73330002E+02 -0.81573E-04
 0.73380005E+02 -0.11292E-03
 0.73430008E+02 -0.13085E-03
 0.73480003E+02 -0.12046E-03
 0.73530006E+02 -0.96898E-04
 0.73580002E+02 -0.61716E-04
 0.73630005E+02 -0.30418E-04
 0.73680008E+02 -0.32015E-04
 0.73730003E+02 -0.36717E-04
 0.73780006E+02 -0.58309E-05
 0.73830002E+02  0.48809E-04
 0.73880005E+02  0.83636E-04
 0.73930008E+02  0.11709E-03
 0.73980003E+02  0.14092E-03
 0.74030006E+02  0.12669E-03
 0.74080002E+02  0.93463E-04
 0.74130005E+02  0.78322E-04
 0.74180008E+02  0.42431E-04
 0.74230003E+02 -0.18789E-04
 0.74280006E+02 -0.36506E-04
 0.74330002E+02 -0.60338E-04
 0.74380005E+02 -0.78881E-04
 0.74430008E+02 -0.45441E-04
 0.74480003E+02 -0.49850E-05
 0.74530006E+02 -0.85586E-05
 0.74580002E+02 -0.16665E-04
 0.74630005E+02 -0.41641E-05
 0.74680008E+02  0.15455E-05
 0.74730003E+02  0.34882E-04
 0.74780006E+02  0.64620E-04
 0.74830002E+02  0.37246E-04
 0.74880005E+02  0.27642E-05
 0.74930008E+02 -0.14629E-04
 0.74980003E+02 -0.37841E-04
 0.75030006E+02 -0.49858E-04
 0.75080002E+02 -0.60036E-04
 0.75130005E+02 -0.55703E-04
 0.75180008E+02 -0.51491E-04
 0.75230003E+02 -0.61004E-04
 0.75280006E+02 -0.42650E-04
 0.75330002E+02 -0.13081E-04
 0.75380005E+02  0.13874E-04
 0.75430008E+02  0.35463E-04
 0.75480003E+02  0.37735E-04
 0.75530006E+02  0.34192E-04
 0.75580002E+02  0.40304E-04
 0.75630005E+02  0.46402E-04
 0.75680008E+02  0.43864E-04
 0.75730003E+02  0.19890E-04
 0.75780006E+02 -0.18427E-06
 0.75830002E+02 -0.24039E-05
 0.75880005E+02 -0.61637E-05
 0.75930008E+02 -0.76427E-05
 0.75980003E+02 -0.28072E-04
 0.76030006E+02 -0.69882E-04
 0.76080002E+02 -0.76878E-04
 0.76130005E+02 -0.32117E-04
 0.76180008E+02  0.87606E-05
 0.76230003E+02  0.38329E-04
 0.76280006E+02  0.59152E-04
 0.76330002E+02  0.41656E-04
 0.76380005E+02  0.25089E-04
 0.76430008E+02  0.34200E-04
 0.76480003E+02  0.46038E-04
 0.76530006E+02  0.56881E-04
 0.76580002E+02  0.68926E-04
 0.76630005E+02  0.76972E-04
 0.76680008E+02  0.42446E-04
 0.76730003E+02 -0.12258E-04
 0.76780006E+02 -0.35289E-04
 0.76830002E+02 -0.62348E-04
 0.76880005E+02 -0.83384E-04
 0.76930008E+02 -0.71626E-04
 0.76980003E+02 -0.67841E-04
 0.77030006E+02 -0.85497E-04
 0.77080002E+02 -0.85600E-04
 0.77130005E+02 -0.65750E-04
 0.77180008E+02 -0.47571E-04
 0.77230003E+02 -0.71803E-05
 0.77280006E+02  0.25577E-04
 0.77330002E+02  0.31108E-04
 0.77380005E+02  0.43765E-04
 0.77430008E+02  0.43509E-04
 0.77480003E+02  0.42951E-04
 0.77530006E+02  0.74067E-04
 0.77580002E+02  0.83857E-04
 0.77630005E+02  0.55412E-04
 0.77680008E+02  0.23974E-04
 0.77730003E+02 -0.29014E-05
 0.77780006E+02 -0.69057E-05
 0.77830002E+02  0.24705E-05
 0.77880005E+02  0.65298E-05
 0.77930008E+02 -0.69186E-05
 0.77980003E+02 -0.42004E-04
 0.78030006E+02 -0.76883E-04
 0.78080002E+02 -0.79485E-04
 0.78130005E+02 -0.48020E-04
 0.78180008E+02 -0.23897E-04
 0.78230003E+02  0.10230E-04
 0.78280006E+02  0.47876E-04
 0.78330002E+02  0.56645E-04
 0.78380005E+02  0.57411E-04
 0.78430008E+02  0.41572E-04
 0.78480003E+02  0.19175E-04
 0.78530006E+02  0.22024E-04
 0.78580002E+02  0.17040E-04
 0.78630005E+02  0.41944E-05
 0.78680008E+02  0.61889E-05
 0.78730003E+02 -0.92669E-05
 0.78780006E+02 -0.20671E-04
 0.78830002E+02 -0.28898E-04
 0.78880005E+02 -0.49518E-04
 0.78930008E+02 -0.46210E-04
 0.78980003E+02 -0.37380E-04
 0.79030006E+02 -0.39128E-04
 0.79080002E+02 -0.29264E-04
 0.79130005E+02 -0.18130E-04
 0.79180008E+02 -0.10946E-04
 0.79230003E+02  0.15010E-04
 0.79280006E+02  0.17936E-04
 0.79330002E+02  0.12068E-04
 0.79380005E+02  0.22805E-04
 0.79430008E+02  0.84956E-05
 0.79480003E+02  0.22481E-04
 0.79530006E+02  0.43767E-04
 0.79580002E+02  0.53344E-04
 0.79630005E+02  0.67276E-04
 0.79680008E+02  0.34150E-04
 0.79730003E+02  0.71967E-05
 0.79780006E+02 -0.57379E-05
 0.79830002E+02 -0.18907E-04
 0.79880005E+02 -0.17209E-04
 0.79930008E+02 -0.22594E-04
 0.79980003E+02 -0.28614E-04
 0.80030006E+02 -0.36927E-04
 0.80080002E+02 -0.25806E-04
 0.80130005E+02 -0.16234E-05
 0.80180008E+02  0.24549E-05
 0.80230003E+02  0.35753E-05
 0.80280006E+02  0.14412E-04
 0.80330002E+02  0.18301E-04
 0.80380005E+02  0.17686E-04
 0.80430008E+02  0.47021E-06
 0.80480003E+02 -0.30979E-04
 0.80530006E+02 -0.39902E-04
 0.80580002E+02 -0.44069E-04
 0.80630005E+02 -0.31137E-04
 0.80680008E+02 -0.92406E-05
 0.80730003E+02 -0.11133E-04
 0.80780006E+02 -0.10072E-04
 0.80830002E+02 -0.24068E-04
 0.80880005E+02 -0.10896E-04
 0.80930008E+02  0.33777E-04
 0.80980003E+02  0.38751E-04
 0.81030006E+02  0.43264E-04
 0.81080002E+02  0.33669E-04
 0.81130005E+02  0.81426E-05
 0.81180008E+02 -0.18468E-04
 0.81230003E+02 -0.41497E-04
 0.81280006E+02 -0.33584E-04
 0.81330002E+02 -0.28512E-04
 0.81380005E+02  0.96428E-05
 0.81430008E+02  0.51282E-04
 0.81480003E+02  0.64754E-04
 0.81530006E+02  0.86332E-04
 0.81580002E+02  0.80402E-04
 0.81630005E+02  0.65326E-04
 0.81680008E+02  0.43298E-04
 0.81730003E+02  0.75242E-05
 0.81780006E+02 -0.15664E-04
 0.81830002E+02 -0.40496E-04
 0.81880005E+02 -0.62503E-04
 0.81930008E+02 -0.64646E-04
 0.81980003E+02 -0.54891E-04
 0.82030006E+02 -0.53246E-04
 0.82080002E+02 -0.44254E-04
 0.82130005E+02 -0.15695E-04
 0.82180008E+02 -0.31964E-05
 0.82230003E+02  0.46909E-05
 0.82280006E+02  0.31434E-04
 0.82330002E+02  0.40613E-04
 0.82380005E+02  0.80166E-05
 0.82430008E+02 -0.41456E-04
 0.82480003E+02 -0.73680E-04
 0.82530006E+02 -0.67383E-04
 0.82580002E+02 -0.35959E-04
 0.82630005E+02  0.12403E-04
 0.82680008E+02  0.71437E-04
 0.82730003E+02  0.90145E-04
 0.82780006E+02  0.94968E-04
 0.82830002E+02  0.91633E-04
 0.82880005E+02  0.56493E-04
 0.82930008E+02  0.19764E-04
 0.82980003E+02 -0.48086E-04
 0.83030006E+02 -0.89430E-04
 0.83080002E+02 -0.65006E-04
 0.83130005E+02 -0.42762E-04
 0.83180008E+02 -0.26988E-04
 0.83230003E+02 -0.30890E-04
 0.83280006E+02 -0.47958E-04
 0.83330002E+02 -0.44498E-04
 0.83380005E+02 -0.22059E-04
 0.83430008E+02  0.20195E-04
 0.83480003E+02  0.52874E-04
 0.83530006E+02  0.41236E-04
 0.83580002E+02  0.19311E-04
 0.83630005E+02  0.39345E-05
 0.83680008E+02 -0.12297E-04
 0.83730003E+02 -0.81633E-05
 0.83780006E+02  0.14092E-04
 0.83830002E+02  0.36977E-04
 0.83880005E+02  0.47512E-04
 0.83930008E+02  0.47444E-04
 0.83980003E+02  0.24728E-04
 0.84030006E+02 -0.93749E-05
 0.84080002E+02 -0.22876E-04
 0.84130005E+02 -0.32440E-04
 0.84180008E+02 -0.29855E-04
 0.84230003E+02 -0.24243E-04
 0.84280006E+02 -0.30234E-04
 0.84330002E+02 -0.25444E-04
 0.84380005E+02 -0.13089E-04
 0.84430008E+02  0.25400E-05
 0.84480003E+02  0.57657E-05
 0.84530006E+02  0.16434E-04
 0.84580002E+02  0.37648E-04
 0.84630005E+02  0.43293E-04
 0.84680008E+02  0.49566E-04
 0.84730003E+02  0.43786E-04
 0.84780006E+02  0.29414E-04
 0.84830002E+02  0.10890E-04
 0.84880005E+02 -0.21415E-05
 0.84930008E+02 -0.13722E-04
 0.84980003E+02 -0.42795E-04
 0.85030006E+02 -0.51714E-04
 0.85080002E+02 -0.55937E-04
 0.85130005E+02 -0.56379E-04
 0.85180008E+02 -0.46611E-04
 0.85230003E+02 -0.42101E-04
 0.85280006E+02 -0.65998E-05
 0.85330002E+02  0.22088E-04
 0.85380005E+02  0.24214E-04
 0.85430008E+02  0.55914E-04
 0.85480003E+02  0.76720E-04
 0.85530006E+02  0.49915E-04
 0.85580002E+02  0.25184E-04
 0.85630005E+02  0.16263E-04
 0.85680008E+02  0.13672E-04
 0.85730003E+02  0.24706E-04
 0.85780006E+02  0.34709E-04
 0.85830002E+02  0.49772E-05
 0.85880005E+02 -0.38522E-04
 0.85930008E+02 -0.34443E-04
 0.85980003E+02 -0.96079E-05
 0.86030006E+02  0.29028E-05
 0.86080002E+02  0.90928E-05
 0.86130005E+02 -0.40630E-05
 0.86180008E+02 -0.29530E-04
 0.86230003E+02 -0.46662E-04
 0.86280006E+02 -0.64423E-04
 0.86330002E+02 -0.81709E-04
 0.86380005E+02 -0.66098E-04
 0.86430008E+02 -0.21637E-04
 0.86480003E+02  0.16371E-04
 0.86530006E+02  0.38131E-04
 0.86580002E+02  0.33338E-04
 0.86630005E+02  0.80726E-05
 0.86680008E+02 -0.19873E-04
 0.86730003E+02 -0.25220E-04
 0.86780006E+02  0.49173E-06
 0.86830002E+02  0.22034E-04
 0.86880005E+02  0.44924E-04
 0.86930008E+02  0.59306E-04
 0.86980003E+02  0.46043E-04
 0.87030006E+02  0.23423E-04
 0.87080002E+02  0.75907E-05
 0.87130005E+02 -0.14344E-05
 0.87180008E+02 -0.24495E-04
 0.87230003E+02 -0.34341E-04
 0.87280006E+02 -0.24954E-04
 0.87330002E+02 -0.54412E-05
 0.87380005E+02  0.29744E-04
 0.87430008E+02  0.48581E-04
 0.87480003E+02  0.50765E-04
 0.87530006E+02  0.53186E-04
 0.87580002E+02  0.46192E-04
 0.87630005E+02  0.17582E-04
 0.87680008E+02 -0.16334E-04
 0.87730003E+02 -0.50612E-04
 0.87780006E+02 -0.67323E-04
 0.87830002E+02 -0.52775E-04
 0.87880005E+02 -0.59120E-04
 0.87930008E+02 -0.66910E-04
 0.87980003E+02 -0.39061E-04
 0.88030006E+02 -0.55914E-05
 0.88080002E+02  0.28081E-04
 0.88130005E+02  0.47105E-04
 0.88180008E+02  0.40263E-04
 0.88230003E+02  0.35181E-04
 0.88280006E+02  0.29257E-04
 0.88330002E+02  0.18175E-04
 0.88380005E+02  0.12424E-04
 0.88430008E+02 -0.15356E-04
 0.88480003E+02 -0.48027E-04
 0.88530006E+02 -0.54522E-04
 0.88580002E+02 -0.49625E-04
 0.88630005E+02 -0.41373E-04
 0.88680008E+02 -0.31073E-04
 0.88730003E+02 -0.53160E-05
 0.88780006E+02  0.29945E-04
 0.88830002E+02  0.55864E-04
 0.88880005E+02  0.74980E-04
 0.88930008E+02  0.79365E-04
 0.88980003E+02  0.56430E-04
 0.89030006E+02  0.31765E-04
 0.89080002E+02  0.13152E-04
 0.89130005E+02 -0.10151E-04
 0.89180008E+02 -0.31410E-04
 0.89230003E+02 -0.46972E-04
 0.89280006E+02 -0.52953E-04
 0.89330002E+02 -0.51690E-04
 0.89380005E+02 -0.33112E-04
 0.89430008E+02 -0.21017E-04
 0.89480003E+02 -0.23225E-04
 0.89530006E+02 -0.11629E-04
 0.89580002E+02  0.11060E-04
 0.89630005E+02  0.43878E-04
 0.89680008E+02  0.71798E-04
 0.89730003E+02  0.71532E-04
 0.89780006E+02  0.29757E-04
 0.89830002E+02 -0.15670E-04
 0.89880005E+02 -0.34116E-04
 0.89930008E+02 -0.39283E-04
 0.89980003E+02 -0.52728E-05
 0.90030006E+02  0.24306E-04
 0.90080002E+02  0.14179E-04
 0.90130005E+02 -0.17632E-05
 0.90180008E+02 -0.32652E-04
 0.90230003E+02 -0.52520E-04
 0.90280006E+02 -0.44622E-04
 0.90330002E+02 -0.45244E-05
 0.90380005E+02  0.45106E-04
 0.90430008E+02  0.63856E-04
 0.90480003E+02  0.67291E-04
 0.90530006E+02  0.56365E-04
 0.90580002E+02  0.56645E-04
 0.90630005E+02  0.68742E-04
 0.90680008E+02  0.57845E-04
 0.90730003E+02  0.25824E-04
 0.90780006E+02 -0.23374E-04
 0.90830002E+02 -0.66476E-04
 0.90880005E+02 -0.94324E-04
 0.90930008E+02 -0.97853E-04
 0.90980003E+02 -0.80347E-04
 0.91030006E+02 -0.83160E-04
 0.91080002E+02 -0.74345E-04
 0.91130005E+02 -0.46310E-04
 0.91180008E+02 -0.36751E-04
 0.91230003E+02 -0.23594E-04
 0.91280006E+02 -0.92097E-05
 0.91330002E+02 -0.35534E-05
 0.91380005E+02  0.20217E-04
 0.91430008E+02  0.49484E-04
 0.91480003E+02  0.45132E-04
 0.91530006E+02  0.29090E-04
 0.91580002E+02  0.26594E-04
 0.91630005E+02  0.27053E-04
 0.91680008E+02  0.36987E-04
 0.91730003E+02  0.48449E-04
 0.91780006E+02  0.34978E-04
 0.91830002E+02  0.17020E-04
 0.91880005E+02  0.17863E-04
 0.91930008E+02  0.11806E-04
 0.91980003E+02  0.26514E-05
 0.92030006E+02 -0.75355E-05
 0.92080002E+02 -0.25730E-04
 0.92130005E+02 -0.34861E-04
 0.92180008E+02 -0.35051E-04
 0.92230003E+02 -0.12562E-04
 0.92280006E+02  0.21188E-04
 0.92330002E+02  0.43592E-04
 0.92380005E+02  0.43509E-04
 0.92430008E+02  0.12225E-04
 0.92480003E+02 -0.13909E-04
 0.92530006E+02 -0.18735E-04
 0.92580002E+02 -0.20384E-04
 0.92630005E+02 -0.27593E-04
 0.92680008E+02 -0.34294E-04
 0.92730003E+02 -0.42609E-04
 0.92780006E+02 -0.45981E-04
 0.92830002E+02 -0.24982E-04
 0.92880005E+02 -0.73780E-05
 0.92930008E+02 -0.81920E-06
 0.92980003E+02  0.27105E-04
 0.93030006E+02  0.53856E-04
 0.93080002E+02  0.53796E-04
 0.93130005E+02  0.41404E-04
 0.93180008E+02  0.27003E-04
 0.93230003E+02  0.16491E-04
 0.93280006E+02  0.22442E-04
 0.93330002E+02  0.49101E-04
 0.93380005E+02  0.55455E-04
 0.93430008E+02  0.24532E-04
 0.93480003E+02 -0.49702E-05
 0.93530006E+02 -0.21607E-04
 0.93580002E+02 -0.30419E-04
 0.93630005E+02 -0.26653E-04
 0.93680008E+02 -0.29286E-04
 0.93730003E+02 -0.46506E-04
 0.93780006E+02 -0.63011E-04
 0.93830002E+02 -0.61220E-04
 0.93880005E+02 -0.30831E-04
 0.93930008E+02 -0.47257E-05
 0.93980003E+02  0.80504E-05
 0.94030006E+02  0.93621E-05
 0.94080002E+02 -0.14084E-05
 0.94130005E+02  0.51805E-06
 0.94180008E+02  0.65605E-05
 0.94230003E+02  0.13623E-04
 0.94280006E+02  0.25744E-04
 0.94330002E+02  0.36561E-04
 0.94380005E+02  0.43791E-04
 0.94430008E+02  0.36297E-04
 0.94480003E+02  0.16161E-04
 0.94530006E+02 -0.11464E-04
 0.94580002E+02 -0.37920E-04
 0.94630005E+02 -0.49516E-04
 0.94680008E+02 -0.47173E-04
 0.94730003E+02 -0.35863E-04
 0.94780006E+02 -0.27493E-04
 0.94830002E+02 -0.19009E-04
 0.94880005E+02 -0.22172E-05
 0.94930008E+02  0.50697E-05
 0.94980003E+02  0.66366E-05
 0.95030006E+02  0.16612E-04
 0.95080002E+02  0.27266E-04
 0.95130005E+02  0.32501E-04
 0.95180008E+02  0.36184E-04
 0.95230003E+02  0.43160E-04
 0.95280006E+02  0.34562E-04
 0.95330002E+02  0.26258E-04
 0.95380005E+02  0.26060E-04
 0.95430008E+02  0.58103E-05
 0.95480003E+02 -0.16178E-04
 0.95530006E+02 -0.37728E-04
 0.95580002E+02 -0.51876E-04
 0.95630005E+02 -0.41556E-04
 0.95680008E+02 -0.17877E-04
 0.95730003E+02 -0.13816E-05
 0.95780006E+02 -0.26517E-05
 0.95830002E+02 -0.11500E-05
 0.95880005E+02  0.13217E-04
 0.95930008E+02  0.31856E-04
 0.95980003E+02  0.36143E-04
 0.96030006E+02  0.17010E-04
 0.96080002E+02 -0.16023E-04
 0.96130005E+02 -0.36900E-04
 0.96180008E+02 -0.30678E-04
 0.96230003E+02 -0.17092E-04
 0.96280006E+02 -0.15151E-05
 0.96330002E+02  0.14116E-04
 0.96380005E+02  0.26469E-04
 0.96430008E+02  0.34060E-04
 0.96480003E+02  0.26388E-04
 0.96530006E+02  0.16468E-04
 0.96580002E+02  0.15718E-04
 0.96630005E+02  0.14450E-04
 0.96680008E+02  0.34870E-05
 0.96730003E+02 -0.89060E-05
 0.96780006E+02 -0.18125E-04
 0.96830002E+02 -0.29791E-04
 0.96880005E+02 -0.24453E-04
 0.96930008E+02 -0.99087E-05
 0.96980003E+02 -0.11425E-04
 0.97030006E+02 -0.21329E-04
 0.97080002E+02 -0.35555E-04
 0.97130005E+02 -0.45867E-04
 0.97180008E+02 -0.40919E-04
 0.97230003E+02 -0.25592E-04
 0.97280006E+02 -0.58316E-05
 0.97330002E+02  0.11119E-04
 0.97380005E+02  0.16458E-04
 0.97430008E+02  0.14907E-04
 0.97480003E+02  0.99525E-05
 0.97530006E+02  0.13136E-04
 0.97580002E+02  0.35850E-04
 0.97630005E+02  0.50390E-04
 0.97680008E+02  0.47956E-04
 0.97730003E+02  0.36789E-04
 0.97780006E+02  0.45451E-05
 0.97830002E+02 -0.17893E-04
 0.97880005E+02 -0.27742E-05
 0.97930008E+02  0.12567E-04
 0.97980003E+02  0.18928E-04
 0.98030006E+02  0.18899E-04
 0.98080002E+02  0.29024E-05
 0.98130005E+02 -0.90697E-05
 0.98180008E+02 -0.67114E-05
 0.98230003E+02  0.60124E-05
 0.98280006E+02  0.17235E-04
 0.98330002E+02  0.10644E-04
 0.98380005E+02 -0.20211E-04
 0.98430008E+02 -0.43266E-04
 0.98480003E+02 -0.36678E-04
 0.98530006E+02 -0.36233E-04
 0.98580002E+02 -0.41554E-04
 0.98630005E+02 -0.25147E-04
 0.98680008E+02 -0.15109E-05
 0.98730003E+02  0.18594E-04
 0.98780006E+02  0.36585E-04
 0.98830002E+02  0.40411E-04
 0.98880005E+02  0.27593E-04
 0.98930008E+02  0.12851E-04
 0.98980003E+02  0.13115E-04
 0.99030006E+02  0.22009E-04
 0.99080002E+02  0.23883E-04
 0.99130005E+02  0.13944E-04
 0.99180008E+02 -0.95297E-05
 0.99230003E+02 -0.28729E-04
 0.99280006E+02 -0.32784E-04
 0.99330002E+02 -0.31583E-04
 0.99380005E+02 -0.24080E-04
 0.99430008E+02 -0.15863E-04
 0.99480003E+02 -0.12740E-04
 0.99530006E+02 -0.87803E-05
 0.99580002E+02 -0.84710E-05
 0.99630005E+02 -0.20519E-04
 0.99680008E+02 -0.30901E-04
 0.99730003E+02 -0.21240E-04
 0.99780006E+02 -0.60929E-05
 0.99830002E+02  0.83643E-05
 0.99880005E+02  0.15738E-04
 0.99930008E+02  0.10990E-04
 0.99980003E+02  0.15917E-04
