-0.20000458E-01  0.38634E-06
 0.29999543E-01  0.19404E-06
 0.79999544E-01  0.70782E-07
 0.12999955E+00 -0.21670E-07
 0.17999955E+00 -0.89977E-07
 0.22999954E+00 -0.13030E-06
 0.27999955E+00 -0.16813E-06
 0.32999954E+00 -0.18263E-06
 0.37999955E+00 -0.14593E-06
 0.42999956E+00 -0.10647E-06
 0.47999954E+00 -0.95744E-07
 0.52999955E+00 -0.71358E-07
 0.57999957E+00 -0.46946E-07
 0.62999958E+00 -0.12557E-07
 0.67999953E+00  0.20326E-07
 0.72999954E+00  0.26925E-07
 0.77999955E+00  0.38112E-07
 0.82999957E+00  0.46432E-07
 0.87999958E+00  0.54117E-07
 0.92999953E+00  0.42776E-07
 0.97999954E+00  0.39312E-07
 0.10299996E+01  0.43050E-07
 0.10799996E+01  0.38483E-07
 0.11299995E+01  0.56307E-07
 0.11799996E+01  0.42877E-07
 0.12299995E+01  0.95453E-08
 0.12799996E+01  0.11013E-07
 0.13299996E+01  0.16679E-07
 0.13799995E+01  0.19208E-07
 0.14299996E+01  0.16715E-07
 0.14799995E+01  0.23182E-08
 0.15299996E+01  0.20016E-07
 0.15799996E+01  0.39110E-07
 0.16299995E+01  0.43071E-07
 0.16799996E+01  0.44489E-07
 0.17299995E+01  0.25460E-07
 0.17799996E+01  0.17289E-07
 0.18299996E+01 -0.14822E-07
 0.18799995E+01 -0.31420E-07
 0.19299996E+01  0.37067E-08
 0.19799995E+01  0.63006E-08
 0.20299995E+01  0.15874E-07
 0.20799997E+01  0.27050E-07
 0.21299996E+01  0.25216E-09
 0.21799996E+01 -0.15552E-07
 0.22299995E+01 -0.31219E-07
 0.22799995E+01 -0.28940E-07
 0.23299997E+01 -0.14868E-07
 0.23799996E+01 -0.13765E-07
 0.24299996E+01 -0.27148E-07
 0.24799995E+01 -0.41498E-07
 0.25299995E+01 -0.27029E-07
 0.25799997E+01 -0.28202E-07
 0.26299996E+01 -0.28559E-07
 0.26799996E+01 -0.22987E-07
 0.27299995E+01 -0.38840E-07
 0.27799995E+01 -0.57810E-07
 0.28299997E+01 -0.54345E-07
 0.28799996E+01 -0.20639E-07
 0.29299996E+01  0.24024E-08
 0.29799995E+01  0.76362E-08
 0.30299995E+01  0.68729E-08
 0.30799997E+01  0.18570E-08
 0.31299996E+01  0.45690E-08
 0.31799996E+01  0.16695E-07
 0.32299995E+01  0.19390E-07
 0.32799995E+01  0.20730E-07
 0.33299997E+01  0.13612E-07
 0.33799996E+01  0.94055E-09
 0.34299996E+01 -0.11470E-07
 0.34799995E+01 -0.30664E-07
 0.35299995E+01 -0.10822E-07
 0.35799997E+01  0.58123E-08
 0.36299996E+01 -0.12039E-07
 0.36799996E+01 -0.56891E-08
 0.37299995E+01 -0.15186E-07
 0.37799995E+01 -0.32681E-07
 0.38299997E+01 -0.59898E-09
 0.38799996E+01  0.18388E-07
 0.39299996E+01  0.15062E-07
 0.39799995E+01  0.96559E-09
 0.40299997E+01 -0.20543E-07
 0.40799994E+01 -0.16089E-07
 0.41299996E+01 -0.56285E-08
 0.41799998E+01  0.48055E-08
 0.42299995E+01 -0.59541E-08
 0.42799997E+01 -0.22663E-07
 0.43299994E+01 -0.93363E-09
 0.43799996E+01 -0.71539E-09
 0.44299998E+01 -0.63623E-08
 0.44799995E+01  0.43198E-08
 0.45299997E+01 -0.46053E-08
 0.45799994E+01  0.78073E-08
 0.46299996E+01  0.26128E-07
 0.46799998E+01  0.42559E-07
 0.47299995E+01  0.71185E-07
 0.47799997E+01  0.81722E-07
 0.48299994E+01  0.89162E-07
 0.48799996E+01  0.85134E-07
 0.49299998E+01  0.90206E-07
 0.49799995E+01  0.10889E-06
 0.50299997E+01  0.81732E-07
 0.50799994E+01  0.62425E-07
 0.51299996E+01  0.57885E-07
 0.51799998E+01  0.51726E-07
 0.52299995E+01  0.54374E-07
 0.52799997E+01  0.29496E-07
 0.53299994E+01  0.60279E-08
 0.53799996E+01 -0.16521E-07
 0.54299998E+01 -0.44851E-07
 0.54799995E+01 -0.66196E-07
 0.55299997E+01 -0.81348E-07
 0.55799994E+01 -0.99960E-07
 0.56299996E+01 -0.10924E-06
 0.56799998E+01 -0.89589E-07
 0.57299995E+01 -0.87087E-07
 0.57799997E+01 -0.89473E-07
 0.58299994E+01 -0.10766E-06
 0.58799996E+01 -0.12587E-06
 0.59299998E+01 -0.10009E-06
 0.59799995E+01 -0.95148E-07
 0.60299997E+01 -0.11730E-06
 0.60799994E+01 -0.11600E-06
 0.61299996E+01 -0.10024E-06
 0.61799998E+01 -0.59407E-07
 0.62299995E+01 -0.69368E-08
 0.62799997E+01  0.13012E-07
 0.63299994E+01  0.23826E-07
 0.63799996E+01  0.14354E-07
 0.64299998E+01  0.18580E-07
 0.64799995E+01  0.41773E-07
 0.65299997E+01  0.56097E-07
 0.65799994E+01  0.82752E-07
 0.66299996E+01  0.83849E-07
 0.66799998E+01  0.79219E-07
 0.67299995E+01  0.88354E-07
 0.67799997E+01  0.90153E-07
 0.68299994E+01  0.83832E-07
 0.68799996E+01  0.76082E-07
 0.69299998E+01  0.64532E-07
 0.69799995E+01  0.52642E-07
 0.70299997E+01  0.75151E-07
 0.70799994E+01  0.10062E-06
 0.71299996E+01  0.97878E-07
 0.71799998E+01  0.83818E-07
 0.72299995E+01  0.59884E-07
 0.72799997E+01  0.40191E-07
 0.73299994E+01  0.20592E-07
 0.73799996E+01  0.56668E-08
 0.74299998E+01  0.12237E-07
 0.74799995E+01  0.14766E-07
 0.75299997E+01  0.67866E-08
 0.75799994E+01 -0.17578E-07
 0.76299996E+01 -0.61482E-07
 0.76799998E+01 -0.83999E-07
 0.77299995E+01 -0.91459E-07
 0.77799997E+01 -0.78610E-07
 0.78299994E+01 -0.63587E-07
 0.78799996E+01 -0.75493E-07
 0.79299998E+01 -0.68416E-07
 0.79799995E+01 -0.56276E-07
 0.80299997E+01 -0.33450E-07
 0.80799999E+01 -0.12850E-07
 0.81300001E+01 -0.19178E-07
 0.81799994E+01 -0.57997E-08
 0.82299995E+01  0.13065E-07
 0.82799997E+01  0.14764E-07
 0.83299999E+01  0.22770E-08
 0.83800001E+01 -0.24077E-08
 0.84299994E+01 -0.26473E-08
 0.84799995E+01 -0.11238E-07
 0.85299997E+01  0.12207E-08
 0.85799999E+01 -0.11730E-08
 0.86300001E+01 -0.19913E-07
 0.86799994E+01 -0.23319E-07
 0.87299995E+01 -0.26670E-07
 0.87799997E+01 -0.38832E-07
 0.88299999E+01 -0.46552E-07
 0.88800001E+01 -0.42153E-07
 0.89299994E+01 -0.25192E-07
 0.89799995E+01 -0.14394E-07
 0.90299997E+01 -0.22443E-07
 0.90799999E+01 -0.26036E-07
 0.91300001E+01 -0.37002E-07
 0.91799994E+01 -0.49712E-07
 0.92299995E+01 -0.37740E-07
 0.92799997E+01 -0.16277E-07
 0.93299999E+01 -0.26059E-08
 0.93800001E+01  0.10111E-07
 0.94299994E+01  0.14650E-07
 0.94799995E+01  0.23865E-07
 0.95299997E+01  0.44222E-07
 0.95799999E+01  0.44141E-07
 0.96300001E+01  0.25347E-07
 0.96799994E+01  0.24583E-07
 0.97299995E+01  0.62327E-07
 0.97799997E+01  0.71709E-07
 0.98299999E+01  0.52562E-07
 0.98800001E+01  0.66450E-07
 0.99299994E+01  0.88487E-07
 0.99799995E+01  0.70732E-07
 0.10030000E+02  0.64884E-07
 0.10080000E+02  0.10314E-06
 0.10130000E+02  0.11729E-06
 0.10179999E+02  0.10502E-06
 0.10230000E+02  0.72816E-07
 0.10280000E+02  0.32754E-07
 0.10330000E+02  0.12377E-07
 0.10380000E+02  0.25223E-08
 0.10429999E+02 -0.28321E-08
 0.10480000E+02 -0.34671E-08
 0.10530000E+02 -0.59335E-08
 0.10580000E+02 -0.34156E-07
 0.10630000E+02 -0.64942E-07
 0.10679999E+02 -0.80639E-07
 0.10730000E+02 -0.78851E-07
 0.10780000E+02 -0.69032E-07
 0.10830000E+02 -0.68177E-07
 0.10880000E+02 -0.51865E-07
 0.10929999E+02 -0.47757E-07
 0.10980000E+02 -0.64663E-07
 0.11030000E+02 -0.99533E-07
 0.11080000E+02 -0.12138E-06
 0.11130000E+02 -0.10414E-06
 0.11179999E+02 -0.83541E-07
 0.11230000E+02 -0.76713E-07
 0.11280000E+02 -0.76223E-07
 0.11330000E+02 -0.24901E-07
 0.11380000E+02  0.15158E-07
 0.11429999E+02  0.38643E-08
 0.11480000E+02 -0.55592E-08
 0.11530000E+02 -0.12325E-07
 0.11580000E+02 -0.12636E-07
 0.11630000E+02 -0.16729E-07
 0.11679999E+02  0.60687E-08
 0.11730000E+02  0.36800E-07
 0.11780000E+02  0.59398E-07
 0.11830000E+02  0.84782E-07
 0.11880000E+02  0.81394E-07
 0.11929999E+02  0.97228E-07
 0.11980000E+02  0.12809E-06
 0.12030000E+02  0.12427E-06
 0.12080000E+02  0.92437E-07
 0.12130000E+02  0.66931E-07
 0.12179999E+02  0.43793E-07
 0.12230000E+02  0.55645E-08
 0.12280000E+02  0.23406E-08
 0.12330000E+02  0.27670E-07
 0.12380000E+02  0.40056E-07
 0.12429999E+02  0.31691E-07
 0.12480000E+02  0.29624E-07
 0.12530000E+02  0.11892E-07
 0.12580000E+02 -0.44385E-07
 0.12630000E+02 -0.60314E-07
 0.12679999E+02 -0.41140E-07
 0.12730000E+02 -0.35823E-07
 0.12780000E+02 -0.39120E-07
 0.12830000E+02 -0.50248E-07
 0.12880000E+02 -0.66907E-07
 0.12929999E+02 -0.66606E-07
 0.12980000E+02 -0.52880E-07
 0.13030000E+02 -0.27907E-07
 0.13080000E+02  0.16534E-07
 0.13130000E+02  0.32487E-07
 0.13179999E+02  0.16498E-07
 0.13230000E+02 -0.60694E-08
 0.13280000E+02 -0.15848E-07
 0.13330000E+02 -0.50746E-09
 0.13380000E+02 -0.25507E-08
 0.13429999E+02 -0.18150E-07
 0.13480000E+02 -0.51898E-08
 0.13530000E+02  0.17799E-07
 0.13580000E+02  0.20126E-07
 0.13630000E+02  0.31924E-07
 0.13679999E+02  0.43940E-07
 0.13730000E+02  0.44843E-07
 0.13780000E+02  0.50236E-07
 0.13830000E+02  0.28386E-07
 0.13880000E+02  0.60134E-08
 0.13929999E+02  0.14679E-08
 0.13980000E+02  0.15500E-07
 0.14030000E+02  0.20917E-07
 0.14080000E+02 -0.48746E-08
 0.14130000E+02 -0.21960E-07
 0.14179999E+02 -0.35361E-07
 0.14230000E+02 -0.46726E-07
 0.14280000E+02 -0.46988E-07
 0.14330000E+02 -0.38940E-07
 0.14380000E+02 -0.57300E-07
 0.14429999E+02 -0.83408E-07
 0.14480000E+02 -0.84335E-07
 0.14530000E+02 -0.74414E-07
 0.14580000E+02 -0.57631E-07
 0.14630000E+02 -0.52291E-07
 0.14679999E+02 -0.39054E-07
 0.14730000E+02 -0.34908E-07
 0.14780000E+02 -0.38562E-07
 0.14830000E+02 -0.32197E-07
 0.14880000E+02 -0.13840E-07
 0.14929999E+02  0.32242E-07
 0.14980000E+02  0.58738E-07
 0.15030000E+02  0.53246E-07
 0.15080000E+02  0.54798E-07
 0.15130000E+02  0.75469E-07
 0.15179999E+02  0.77988E-07
 0.15230000E+02  0.65859E-07
 0.15280000E+02  0.48347E-07
 0.15330000E+02  0.42115E-07
 0.15380000E+02  0.53671E-07
 0.15429999E+02  0.48822E-07
 0.15480000E+02  0.49738E-07
 0.15530000E+02  0.49837E-07
 0.15580000E+02  0.51741E-07
 0.15630000E+02  0.58157E-07
 0.15679999E+02  0.58301E-07
 0.15730000E+02  0.43657E-07
 0.15780000E+02  0.25382E-07
 0.15830000E+02  0.23778E-07
 0.15880000E+02  0.70467E-08
 0.15929999E+02 -0.84581E-08
 0.15980000E+02 -0.14917E-07
 0.16030001E+02 -0.15290E-07
 0.16080000E+02 -0.28093E-07
 0.16129999E+02 -0.30308E-07
 0.16180000E+02 -0.29761E-07
 0.16230000E+02 -0.48760E-07
 0.16280001E+02 -0.54924E-07
 0.16330000E+02 -0.64050E-07
 0.16379999E+02 -0.55407E-07
 0.16430000E+02 -0.64348E-07
 0.16480000E+02 -0.93199E-07
 0.16530001E+02 -0.89956E-07
 0.16580000E+02 -0.50493E-07
 0.16629999E+02 -0.18088E-07
 0.16680000E+02 -0.11047E-07
 0.16730000E+02 -0.19670E-07
 0.16780001E+02 -0.29932E-07
 0.16830000E+02 -0.14239E-07
 0.16879999E+02 -0.23134E-07
 0.16930000E+02 -0.35397E-07
 0.16980000E+02 -0.18443E-07
 0.17030001E+02  0.16821E-07
 0.17080000E+02  0.27801E-07
 0.17129999E+02  0.71283E-08
 0.17180000E+02  0.14103E-07
 0.17230000E+02  0.20716E-07
 0.17280001E+02  0.50588E-08
 0.17330000E+02 -0.23503E-08
 0.17379999E+02  0.11555E-07
 0.17430000E+02  0.39649E-07
 0.17480000E+02  0.60794E-07
 0.17530001E+02  0.48198E-07
 0.17580000E+02  0.28534E-07
 0.17629999E+02  0.26721E-07
 0.17680000E+02  0.47022E-07
 0.17730000E+02  0.56967E-07
 0.17780001E+02  0.58768E-07
 0.17830000E+02  0.74138E-07
 0.17879999E+02  0.54195E-07
 0.17930000E+02  0.41493E-07
 0.17980000E+02  0.51520E-07
 0.18030001E+02  0.41188E-07
 0.18080000E+02  0.12084E-07
 0.18129999E+02 -0.11995E-07
 0.18180000E+02 -0.11279E-07
 0.18230000E+02 -0.25576E-07
 0.18280001E+02 -0.38068E-07
 0.18330000E+02 -0.42320E-07
 0.18379999E+02 -0.55674E-07
 0.18430000E+02 -0.23298E-07
 0.18480000E+02  0.51831E-08
 0.18530001E+02  0.15085E-07
 0.18580000E+02  0.27470E-07
 0.18629999E+02  0.11700E-07
 0.18680000E+02 -0.66016E-08
 0.18730000E+02 -0.37913E-07
 0.18780001E+02 -0.54716E-07
 0.18830000E+02 -0.22991E-07
 0.18879999E+02  0.94881E-08
 0.18930000E+02  0.16699E-07
 0.18980000E+02  0.81300E-09
 0.19030001E+02 -0.19727E-07
 0.19080000E+02 -0.43472E-07
 0.19129999E+02 -0.76949E-07
 0.19180000E+02 -0.60445E-07
 0.19230000E+02 -0.28173E-07
 0.19280001E+02 -0.24147E-07
 0.19330000E+02 -0.28743E-07
 0.19379999E+02 -0.51356E-07
 0.19430000E+02 -0.49343E-07
 0.19480000E+02 -0.40114E-07
 0.19530001E+02 -0.38454E-07
 0.19580000E+02 -0.34066E-07
 0.19629999E+02 -0.39035E-07
 0.19680000E+02 -0.35813E-07
 0.19730000E+02 -0.12401E-07
 0.19780001E+02  0.31195E-07
 0.19830000E+02  0.49403E-07
 0.19879999E+02  0.33734E-07
 0.19930000E+02  0.17001E-07
 0.19980000E+02  0.15189E-07
 0.20030001E+02  0.16080E-07
 0.20080000E+02  0.12788E-07
 0.20129999E+02  0.41676E-07
 0.20180000E+02  0.66674E-07
 0.20230000E+02  0.57012E-07
 0.20280001E+02  0.48106E-07
 0.20330000E+02  0.44374E-07
 0.20379999E+02  0.45194E-07
 0.20430000E+02  0.35545E-07
 0.20480000E+02  0.32812E-07
 0.20530001E+02  0.59282E-07
 0.20580000E+02  0.65652E-07
 0.20629999E+02  0.55813E-07
 0.20680000E+02  0.48526E-07
 0.20730000E+02  0.24058E-07
 0.20780001E+02  0.45623E-08
 0.20830000E+02 -0.45675E-08
 0.20879999E+02 -0.16602E-07
 0.20930000E+02 -0.98946E-08
 0.20980000E+02  0.18111E-07
 0.21030001E+02  0.27839E-07
 0.21080000E+02  0.21789E-07
 0.21129999E+02  0.84438E-08
 0.21180000E+02 -0.23937E-07
 0.21230000E+02 -0.43249E-07
 0.21280001E+02 -0.47017E-07
 0.21330000E+02 -0.45657E-07
 0.21379999E+02 -0.39948E-07
 0.21430000E+02 -0.41260E-07
 0.21480000E+02 -0.35981E-07
 0.21530001E+02 -0.30640E-07
 0.21580000E+02 -0.47897E-07
 0.21629999E+02 -0.55117E-07
 0.21680000E+02 -0.52982E-07
 0.21730000E+02 -0.51330E-07
 0.21780001E+02 -0.32589E-07
 0.21830000E+02 -0.20289E-07
 0.21879999E+02 -0.14511E-07
 0.21930000E+02 -0.17821E-07
 0.21980000E+02 -0.29734E-07
 0.22030001E+02 -0.31011E-07
 0.22080000E+02 -0.30976E-07
 0.22129999E+02 -0.27763E-07
 0.22180000E+02  0.76192E-08
 0.22230000E+02  0.33206E-07
 0.22280001E+02  0.40637E-07
 0.22330000E+02  0.43307E-07
 0.22379999E+02  0.34358E-08
 0.22430000E+02 -0.23581E-07
 0.22480000E+02 -0.38078E-07
 0.22530001E+02 -0.32161E-07
 0.22580000E+02 -0.26393E-08
 0.22629999E+02  0.13701E-07
 0.22680000E+02  0.35471E-07
 0.22730000E+02  0.36064E-07
 0.22780001E+02  0.19286E-07
 0.22830000E+02  0.17730E-07
 0.22879999E+02  0.18114E-07
 0.22930000E+02  0.54492E-08
 0.22980000E+02  0.67076E-08
 0.23030001E+02  0.60408E-08
 0.23080000E+02 -0.23529E-08
 0.23129999E+02  0.13492E-07
 0.23180000E+02  0.20467E-07
 0.23230000E+02  0.16984E-07
 0.23280001E+02  0.27880E-07
 0.23330000E+02  0.35901E-07
 0.23379999E+02  0.30213E-07
 0.23430000E+02  0.24839E-07
 0.23480000E+02  0.27346E-07
 0.23530001E+02  0.50134E-07
 0.23580000E+02  0.74748E-07
 0.23629999E+02  0.73776E-07
 0.23680000E+02  0.63485E-07
 0.23730000E+02  0.43370E-07
 0.23780001E+02  0.30023E-07
 0.23830000E+02  0.34949E-07
 0.23879999E+02  0.44884E-07
 0.23930000E+02  0.35261E-07
 0.23980000E+02  0.12230E-07
 0.24030001E+02 -0.71799E-09
 0.24080000E+02 -0.21355E-07
 0.24129999E+02 -0.31238E-07
 0.24180000E+02 -0.49795E-07
 0.24230000E+02 -0.83645E-07
 0.24280001E+02 -0.92557E-07
 0.24330000E+02 -0.71201E-07
 0.24379999E+02 -0.58330E-07
 0.24430000E+02 -0.65727E-07
 0.24480000E+02 -0.54672E-07
 0.24530001E+02 -0.46929E-07
 0.24580000E+02 -0.26739E-07
 0.24629999E+02 -0.14681E-07
 0.24680000E+02 -0.27275E-07
 0.24730000E+02 -0.19603E-07
 0.24780001E+02 -0.17315E-07
 0.24830000E+02 -0.22873E-07
 0.24879999E+02 -0.28574E-07
 0.24930000E+02 -0.25026E-07
 0.24980000E+02 -0.16298E-07
 0.25030001E+02 -0.18976E-07
 0.25080000E+02 -0.91165E-08
 0.25129999E+02 -0.53338E-08
 0.25180000E+02 -0.18610E-07
 0.25230000E+02 -0.16746E-07
 0.25280001E+02 -0.18647E-07
 0.25330000E+02 -0.32628E-07
 0.25379999E+02 -0.38740E-07
 0.25430000E+02 -0.40249E-07
 0.25480000E+02 -0.21386E-07
 0.25530001E+02  0.11366E-07
 0.25580000E+02  0.44549E-07
 0.25629999E+02  0.60850E-07
 0.25680000E+02  0.50987E-07
 0.25730000E+02  0.41501E-07
 0.25780001E+02  0.58266E-07
 0.25830000E+02  0.61532E-07
 0.25879999E+02  0.46293E-07
 0.25930000E+02  0.61789E-07
 0.25980000E+02  0.74946E-07
 0.26030001E+02  0.74791E-07
 0.26080000E+02  0.75230E-07
 0.26129999E+02  0.71338E-07
 0.26180000E+02  0.57500E-07
 0.26230000E+02  0.47279E-07
 0.26280001E+02  0.30146E-07
 0.26330000E+02  0.41127E-08
 0.26379999E+02 -0.54337E-08
 0.26430000E+02 -0.76132E-08
 0.26480000E+02  0.65621E-08
 0.26530001E+02 -0.40432E-08
 0.26580000E+02 -0.34365E-07
 0.26629999E+02 -0.56194E-07
 0.26680000E+02 -0.72459E-07
 0.26730000E+02 -0.54628E-07
 0.26780001E+02 -0.29453E-07
 0.26830000E+02 -0.22395E-07
 0.26879999E+02 -0.13732E-07
 0.26930000E+02 -0.96442E-08
 0.26980000E+02 -0.22846E-07
 0.27030001E+02 -0.35789E-07
 0.27080000E+02 -0.51501E-07
 0.27129999E+02 -0.52298E-07
 0.27180000E+02 -0.30841E-07
 0.27230000E+02 -0.10430E-08
 0.27280001E+02  0.21658E-07
 0.27330000E+02  0.16244E-07
 0.27379999E+02  0.42190E-08
 0.27430000E+02 -0.55907E-09
 0.27480000E+02 -0.10071E-08
 0.27530001E+02  0.34619E-08
 0.27580000E+02  0.21245E-07
 0.27629999E+02  0.32814E-07
 0.27680000E+02  0.34792E-07
 0.27730000E+02  0.19474E-07
 0.27780001E+02 -0.52405E-08
 0.27830000E+02 -0.33527E-07
 0.27879999E+02 -0.10672E-06
 0.27930000E+02 -0.13994E-06
 0.27980000E+02 -0.16544E-06
 0.28030001E+02 -0.23045E-06
 0.28080000E+02 -0.37239E-06
 0.28129999E+02 -0.63221E-06
 0.28180000E+02 -0.68027E-06
 0.28230000E+02 -0.29386E-06
 0.28280001E+02  0.21695E-06
 0.28330000E+02  0.14562E-06
 0.28379999E+02  0.33644E-06
 0.28430000E+02  0.11902E-05
 0.28480000E+02  0.12881E-05
 0.28530001E+02  0.99854E-06
 0.28580000E+02  0.56684E-06
 0.28629999E+02  0.83128E-07
 0.28680000E+02 -0.66579E-06
 0.28730000E+02 -0.15765E-05
 0.28780001E+02 -0.14082E-05
 0.28830000E+02 -0.12392E-05
 0.28879999E+02 -0.93943E-06
 0.28930000E+02 -0.28526E-06
 0.28980000E+02 -0.82182E-07
 0.29030001E+02  0.36699E-06
 0.29080000E+02  0.15186E-05
 0.29129999E+02  0.24054E-05
 0.29180000E+02  0.20079E-05
 0.29230000E+02  0.16531E-05
 0.29280001E+02  0.87686E-06
 0.29330000E+02 -0.53837E-06
 0.29379999E+02 -0.11828E-05
 0.29430000E+02 -0.21234E-05
 0.29480000E+02 -0.37841E-05
 0.29530001E+02 -0.39631E-05
 0.29580000E+02 -0.18140E-05
 0.29629999E+02 -0.52264E-06
 0.29680000E+02  0.11045E-05
 0.29730000E+02  0.33375E-05
 0.29780001E+02  0.33001E-05
 0.29830000E+02  0.43575E-05
 0.29879999E+02  0.50606E-05
 0.29930000E+02  0.31715E-05
 0.29980000E+02  0.11607E-05
 0.30030001E+02 -0.14084E-05
 0.30080000E+02 -0.38874E-05
 0.30129999E+02 -0.65087E-05
 0.30180000E+02 -0.11638E-04
 0.30230000E+02 -0.14109E-04
 0.30280001E+02 -0.10884E-04
 0.30330000E+02 -0.74745E-05
 0.30379999E+02 -0.15653E-05
 0.30430000E+02  0.59315E-05
 0.30480000E+02  0.12453E-04
 0.30530001E+02  0.18839E-04
 0.30580000E+02  0.20005E-04
 0.30629999E+02  0.22767E-04
 0.30680000E+02  0.25480E-04
 0.30730000E+02  0.17766E-04
 0.30780001E+02  0.72381E-05
 0.30830000E+02 -0.53108E-05
 0.30879999E+02 -0.20105E-04
 0.30930000E+02 -0.32351E-04
 0.30980000E+02 -0.38385E-04
 0.31030001E+02 -0.35298E-04
 0.31080000E+02 -0.29322E-04
 0.31129999E+02 -0.19671E-04
 0.31180000E+02 -0.61855E-05
 0.31230000E+02  0.97088E-05
 0.31280001E+02  0.24436E-04
 0.31330000E+02  0.33150E-04
 0.31379999E+02  0.41574E-04
 0.31430000E+02  0.42665E-04
 0.31480000E+02  0.33322E-04
 0.31530001E+02  0.21815E-04
 0.31580000E+02  0.52108E-05
 0.31629999E+02 -0.14728E-04
 0.31680000E+02 -0.28086E-04
 0.31730000E+02 -0.30604E-04
 0.31780001E+02 -0.30628E-04
 0.31830000E+02 -0.31232E-04
 0.31879999E+02 -0.25816E-04
 0.31930000E+02 -0.19585E-04
 0.31980000E+02 -0.10181E-04
 0.32029999E+02  0.46125E-06
 0.32080002E+02  0.66738E-05
 0.32130001E+02  0.22705E-04
 0.32180000E+02  0.40685E-04
 0.32230000E+02  0.45497E-04
 0.32279999E+02  0.34966E-04
 0.32330002E+02  0.12543E-04
 0.32380001E+02  0.67150E-06
 0.32430000E+02 -0.91080E-05
 0.32480000E+02 -0.27016E-04
 0.32529999E+02 -0.25017E-04
 0.32580002E+02 -0.10056E-04
 0.32630001E+02 -0.75195E-06
 0.32680000E+02 -0.17359E-05
 0.32730000E+02 -0.12939E-04
 0.32779999E+02 -0.17288E-04
 0.32830002E+02 -0.20750E-04
 0.32880001E+02 -0.18697E-04
 0.32930000E+02 -0.12468E-05
 0.32980000E+02  0.12959E-04
 0.33029999E+02  0.21566E-04
 0.33080002E+02  0.13179E-04
 0.33130001E+02  0.37006E-05
 0.33180000E+02  0.86700E-05
 0.33230000E+02 -0.17698E-05
 0.33279999E+02 -0.89759E-05
 0.33330002E+02  0.17235E-05
 0.33380001E+02  0.19183E-04
 0.33430000E+02  0.25498E-04
 0.33480000E+02  0.99582E-05
 0.33529999E+02  0.38993E-05
 0.33580002E+02 -0.72048E-05
 0.33630001E+02 -0.28795E-04
 0.33680000E+02 -0.24749E-04
 0.33730000E+02 -0.93956E-05
 0.33779999E+02  0.12666E-05
 0.33830002E+02  0.81937E-05
 0.33880001E+02  0.40981E-05
 0.33930000E+02 -0.82295E-05
 0.33980000E+02 -0.91416E-05
 0.34029999E+02 -0.35886E-05
 0.34080002E+02 -0.11239E-04
 0.34130001E+02 -0.12980E-04
 0.34180000E+02 -0.23147E-05
 0.34230000E+02  0.12758E-04
 0.34279999E+02  0.24518E-04
 0.34330002E+02  0.18677E-04
 0.34380001E+02  0.67435E-05
 0.34430000E+02  0.59317E-05
 0.34480000E+02  0.86700E-05
 0.34529999E+02 -0.50766E-06
 0.34580002E+02 -0.47846E-05
 0.34630001E+02  0.33873E-05
 0.34680000E+02  0.89154E-05
 0.34730000E+02  0.97148E-05
 0.34779999E+02 -0.35951E-05
 0.34830002E+02 -0.20623E-04
 0.34880001E+02 -0.20968E-04
 0.34930000E+02 -0.15875E-04
 0.34980000E+02 -0.12442E-04
 0.35029999E+02 -0.27546E-05
 0.35080002E+02  0.11803E-04
 0.35130001E+02  0.15674E-04
 0.35180000E+02  0.10251E-04
 0.35230000E+02  0.11334E-04
 0.35279999E+02  0.10302E-04
 0.35330002E+02  0.32094E-05
 0.35380001E+02 -0.61091E-05
 0.35430000E+02 -0.89040E-05
 0.35480000E+02  0.28113E-05
 0.35529999E+02  0.11577E-04
 0.35580002E+02  0.53837E-05
 0.35630001E+02 -0.14119E-04
 0.35680000E+02 -0.24032E-04
 0.35730000E+02 -0.27000E-04
 0.35779999E+02 -0.23289E-04
 0.35830002E+02  0.52841E-05
 0.35880001E+02  0.23735E-04
 0.35930000E+02  0.34397E-04
 0.35980000E+02  0.35618E-04
 0.36029999E+02  0.14876E-04
 0.36080002E+02 -0.43431E-05
 0.36130001E+02 -0.25043E-04
 0.36180000E+02 -0.33703E-04
 0.36230000E+02 -0.26782E-04
 0.36279999E+02 -0.10848E-04
 0.36330002E+02  0.29687E-05
 0.36380001E+02  0.29628E-05
 0.36430000E+02  0.74272E-05
 0.36480000E+02  0.11156E-04
 0.36529999E+02  0.12506E-04
 0.36580002E+02  0.16086E-04
 0.36630001E+02  0.19057E-04
 0.36680000E+02  0.22549E-04
 0.36730000E+02  0.15989E-04
 0.36779999E+02 -0.41408E-06
 0.36830002E+02 -0.20251E-04
 0.36880001E+02 -0.30549E-04
 0.36930000E+02 -0.26494E-04
 0.36980000E+02 -0.25321E-04
 0.37029999E+02 -0.19237E-04
 0.37080002E+02  0.58208E-05
 0.37130001E+02  0.25418E-04
 0.37180000E+02  0.24552E-04
 0.37230000E+02  0.10354E-04
 0.37279999E+02 -0.11227E-04
 0.37330002E+02 -0.15662E-04
 0.37380001E+02  0.18350E-05
 0.37430000E+02  0.16286E-04
 0.37480000E+02  0.16678E-04
 0.37529999E+02  0.88894E-05
 0.37580002E+02  0.15434E-05
 0.37630001E+02 -0.46532E-05
 0.37680000E+02 -0.30910E-05
 0.37730000E+02  0.91591E-06
 0.37779999E+02 -0.39226E-06
 0.37830002E+02 -0.45330E-06
 0.37880001E+02 -0.32461E-05
 0.37930000E+02 -0.27698E-05
 0.37980000E+02 -0.83318E-05
 0.38029999E+02 -0.18672E-04
 0.38080002E+02 -0.75982E-05
 0.38130001E+02  0.11964E-04
 0.38180000E+02  0.22531E-04
 0.38230000E+02  0.20816E-04
 0.38279999E+02  0.11679E-04
 0.38330002E+02 -0.61624E-05
 0.38380001E+02 -0.22960E-04
 0.38430000E+02 -0.20499E-04
 0.38480000E+02 -0.11192E-04
 0.38529999E+02  0.15886E-05
 0.38580002E+02  0.80962E-05
 0.38630001E+02  0.28885E-05
 0.38680000E+02  0.20993E-05
 0.38730000E+02 -0.34022E-06
 0.38779999E+02 -0.13289E-04
 0.38830002E+02 -0.18954E-04
 0.38880001E+02 -0.35569E-05
 0.38930000E+02  0.10819E-04
 0.38980000E+02  0.92431E-05
 0.39029999E+02  0.17090E-05
 0.39080002E+02 -0.11619E-05
 0.39130001E+02 -0.19781E-05
 0.39180000E+02 -0.53977E-05
 0.39230000E+02 -0.49718E-05
 0.39279999E+02  0.46367E-05
 0.39330002E+02  0.19391E-04
 0.39380001E+02  0.15631E-04
 0.39430000E+02  0.40263E-05
 0.39480000E+02  0.42076E-05
 0.39529999E+02 -0.35653E-05
 0.39580002E+02 -0.12709E-04
 0.39630001E+02 -0.13266E-04
 0.39680000E+02 -0.99788E-05
 0.39730000E+02 -0.42647E-05
 0.39779999E+02  0.48027E-05
 0.39830002E+02  0.13604E-04
 0.39880001E+02  0.11201E-04
 0.39930000E+02  0.12238E-04
 0.39980000E+02  0.17112E-04
 0.40029999E+02  0.10762E-04
 0.40080002E+02 -0.26095E-05
 0.40130001E+02 -0.20842E-04
 0.40180000E+02 -0.28510E-04
 0.40230000E+02 -0.25390E-04
 0.40279999E+02 -0.27385E-04
 0.40330002E+02 -0.21496E-04
 0.40380001E+02 -0.44505E-05
 0.40430000E+02  0.23549E-04
 0.40480000E+02  0.44935E-04
 0.40529999E+02  0.26649E-04
 0.40580002E+02 -0.19785E-05
 0.40630001E+02 -0.71818E-05
 0.40680000E+02  0.14531E-05
 0.40730000E+02  0.78585E-05
 0.40779999E+02  0.94375E-05
 0.40830002E+02  0.19589E-04
 0.40880001E+02  0.27978E-04
 0.40930000E+02  0.98937E-05
 0.40980000E+02 -0.18157E-04
 0.41029999E+02 -0.34753E-04
 0.41080002E+02 -0.41170E-04
 0.41130001E+02 -0.32180E-04
 0.41180000E+02 -0.15590E-04
 0.41230000E+02  0.56801E-05
 0.41279999E+02  0.25042E-04
 0.41330002E+02  0.24148E-04
 0.41380001E+02  0.92191E-05
 0.41430000E+02 -0.47765E-05
 0.41480000E+02 -0.11432E-06
 0.41529999E+02  0.12824E-04
 0.41580002E+02  0.17354E-04
 0.41630001E+02  0.91030E-05
 0.41680000E+02 -0.81552E-05
 0.41730000E+02 -0.71939E-05
 0.41779999E+02 -0.17002E-05
 0.41830002E+02 -0.11498E-04
 0.41880001E+02 -0.19320E-04
 0.41930000E+02 -0.13605E-04
 0.41980000E+02 -0.61822E-05
 0.42029999E+02 -0.10023E-04
 0.42080002E+02 -0.13347E-04
 0.42130001E+02 -0.55589E-05
 0.42180000E+02  0.13460E-04
 0.42230000E+02  0.19082E-04
 0.42279999E+02  0.94694E-05
 0.42330002E+02  0.14402E-04
 0.42380001E+02  0.24151E-04
 0.42430000E+02  0.27034E-04
 0.42480000E+02  0.21973E-04
 0.42529999E+02  0.10956E-04
 0.42580002E+02 -0.10864E-05
 0.42630001E+02 -0.16692E-04
 0.42680000E+02 -0.25448E-04
 0.42730000E+02 -0.22521E-04
 0.42779999E+02 -0.10896E-04
 0.42830002E+02 -0.55456E-06
 0.42880001E+02 -0.60566E-06
 0.42930000E+02 -0.41936E-05
 0.42980000E+02 -0.53406E-05
 0.43029999E+02 -0.74748E-07
 0.43080002E+02 -0.13986E-06
 0.43130001E+02 -0.63869E-05
 0.43180000E+02 -0.56278E-05
 0.43230000E+02 -0.20890E-05
 0.43279999E+02  0.21321E-05
 0.43330002E+02  0.36342E-05
 0.43380001E+02  0.22759E-05
 0.43430000E+02  0.20562E-05
 0.43480000E+02  0.65593E-05
 0.43529999E+02  0.20891E-04
 0.43580002E+02  0.25060E-04
 0.43630001E+02  0.83295E-05
 0.43680000E+02 -0.53576E-05
 0.43730000E+02 -0.96429E-05
 0.43779999E+02 -0.13284E-04
 0.43830002E+02 -0.17291E-04
 0.43880001E+02 -0.19575E-04
 0.43930000E+02 -0.15190E-04
 0.43980000E+02 -0.47267E-05
 0.44029999E+02  0.87559E-05
 0.44080002E+02  0.14979E-04
 0.44130001E+02  0.11731E-04
 0.44180000E+02  0.13259E-04
 0.44230000E+02  0.14857E-04
 0.44279999E+02  0.11972E-04
 0.44330002E+02  0.11580E-04
 0.44380001E+02  0.95418E-05
 0.44430000E+02  0.55345E-06
 0.44480000E+02 -0.16537E-04
 0.44529999E+02 -0.33081E-04
 0.44580002E+02 -0.40612E-04
 0.44630001E+02 -0.37915E-04
 0.44680000E+02 -0.24002E-04
 0.44730000E+02 -0.81651E-05
 0.44779999E+02  0.64978E-05
 0.44830002E+02  0.24085E-04
 0.44880001E+02  0.36740E-04
 0.44930000E+02  0.38219E-04
 0.44980000E+02  0.32003E-04
 0.45029999E+02  0.22230E-04
 0.45080002E+02  0.14654E-04
 0.45130001E+02  0.12710E-04
 0.45180000E+02  0.56116E-05
 0.45230000E+02 -0.92155E-05
 0.45279999E+02 -0.21540E-04
 0.45330002E+02 -0.27139E-04
 0.45380001E+02 -0.24151E-04
 0.45430000E+02 -0.14389E-04
 0.45480000E+02 -0.73930E-05
 0.45529999E+02 -0.10296E-04
 0.45580002E+02 -0.14369E-04
 0.45630001E+02 -0.14313E-04
 0.45680000E+02 -0.98080E-05
 0.45730000E+02  0.34840E-05
 0.45779999E+02  0.18961E-04
 0.45830002E+02  0.25415E-04
 0.45880001E+02  0.20264E-04
 0.45930000E+02  0.82816E-05
 0.45980000E+02 -0.12681E-05
 0.46029999E+02 -0.13774E-05
 0.46080002E+02 -0.17817E-05
 0.46130001E+02 -0.15571E-05
 0.46180000E+02  0.30586E-05
 0.46230000E+02 -0.43322E-06
 0.46279999E+02 -0.80813E-05
 0.46330002E+02 -0.14548E-04
 0.46380001E+02 -0.14436E-04
 0.46430000E+02 -0.35079E-05
 0.46480000E+02  0.81301E-05
 0.46529999E+02  0.18358E-04
 0.46580002E+02  0.20727E-04
 0.46630001E+02  0.10945E-04
 0.46680000E+02  0.33085E-05
 0.46730000E+02 -0.37201E-06
 0.46779999E+02 -0.27197E-05
 0.46830002E+02 -0.23443E-05
 0.46880001E+02 -0.95631E-05
 0.46930000E+02 -0.17992E-04
 0.46980000E+02 -0.13268E-04
 0.47029999E+02 -0.52049E-05
 0.47080002E+02 -0.39102E-05
 0.47130001E+02 -0.39047E-05
 0.47180000E+02  0.14043E-05
 0.47230000E+02  0.73252E-05
 0.47279999E+02  0.23254E-05
 0.47330002E+02 -0.72329E-05
 0.47380001E+02 -0.61225E-05
 0.47430000E+02 -0.10424E-05
 0.47480000E+02  0.38304E-06
 0.47529999E+02 -0.17567E-06
 0.47580002E+02  0.64540E-07
 0.47630001E+02  0.56545E-05
 0.47680000E+02  0.13614E-04
 0.47730000E+02  0.17921E-04
 0.47779999E+02  0.14222E-04
 0.47830002E+02  0.43598E-05
 0.47880001E+02 -0.49326E-05
 0.47930000E+02 -0.72200E-05
 0.47980000E+02 -0.76357E-05
 0.48029999E+02 -0.13497E-04
 0.48080002E+02 -0.17584E-04
 0.48130001E+02 -0.84347E-05
 0.48180000E+02  0.14904E-04
 0.48230000E+02  0.33296E-04
 0.48279999E+02  0.38283E-04
 0.48330002E+02  0.28191E-04
 0.48380001E+02  0.49572E-05
 0.48430000E+02 -0.15575E-04
 0.48480000E+02 -0.31731E-04
 0.48529999E+02 -0.38296E-04
 0.48580002E+02 -0.30591E-04
 0.48630001E+02 -0.12436E-04
 0.48680000E+02  0.78094E-05
 0.48730000E+02  0.13948E-04
 0.48779999E+02  0.78228E-05
 0.48830002E+02 -0.37736E-05
 0.48880001E+02 -0.14020E-04
 0.48930000E+02 -0.10026E-04
 0.48980000E+02  0.63120E-05
 0.49029999E+02  0.23419E-04
 0.49080002E+02  0.29335E-04
 0.49130001E+02  0.17826E-04
 0.49180000E+02 -0.79888E-07
 0.49230000E+02 -0.12640E-04
 0.49279999E+02 -0.20884E-04
 0.49330002E+02 -0.23953E-04
 0.49380001E+02 -0.19050E-04
 0.49430000E+02 -0.35167E-05
 0.49480000E+02  0.13148E-04
 0.49529999E+02  0.12295E-04
 0.49580002E+02  0.61144E-06
 0.49630001E+02 -0.67506E-05
 0.49680000E+02 -0.33122E-05
 0.49730000E+02  0.45862E-05
 0.49779999E+02  0.46458E-05
 0.49830002E+02  0.40295E-05
 0.49880001E+02  0.10411E-04
 0.49930000E+02  0.19050E-04
 0.49980000E+02  0.23112E-04
 0.50029999E+02  0.17984E-04
 0.50080002E+02  0.35699E-05
 0.50130001E+02 -0.14084E-04
 0.50180000E+02 -0.27350E-04
 0.50230000E+02 -0.28966E-04
 0.50279999E+02 -0.16758E-04
 0.50330002E+02 -0.22653E-06
 0.50380001E+02  0.78965E-05
 0.50430000E+02  0.69281E-05
 0.50480000E+02  0.82299E-05
 0.50529999E+02  0.91022E-05
 0.50580002E+02  0.65482E-06
 0.50630001E+02 -0.72241E-05
 0.50680000E+02 -0.59425E-05
 0.50730000E+02 -0.29128E-05
 0.50779999E+02 -0.35487E-05
 0.50830002E+02 -0.25835E-05
 0.50880001E+02  0.30106E-05
 0.50930000E+02  0.82794E-05
 0.50980000E+02  0.85989E-05
 0.51029999E+02  0.63458E-06
 0.51080002E+02 -0.10269E-04
 0.51130001E+02 -0.14270E-04
 0.51180000E+02 -0.16156E-04
 0.51230000E+02 -0.14231E-04
 0.51279999E+02  0.22099E-05
 0.51330002E+02  0.25275E-04
 0.51380001E+02  0.36244E-04
 0.51430000E+02  0.29336E-04
 0.51480000E+02  0.16650E-04
 0.51529999E+02  0.42459E-05
 0.51580002E+02 -0.12605E-04
 0.51630001E+02 -0.23620E-04
 0.51680000E+02 -0.16578E-04
 0.51730000E+02 -0.58652E-05
 0.51779999E+02 -0.10004E-05
 0.51830002E+02  0.53899E-05
 0.51880001E+02  0.77955E-05
 0.51930000E+02  0.22050E-05
 0.51980000E+02 -0.38986E-05
 0.52029999E+02 -0.39898E-05
 0.52080002E+02 -0.12819E-05
 0.52130001E+02 -0.14344E-05
 0.52180000E+02  0.25876E-05
 0.52230000E+02  0.10295E-04
 0.52279999E+02  0.15361E-04
 0.52330002E+02  0.14421E-04
 0.52380001E+02  0.40784E-05
 0.52430000E+02 -0.11326E-04
 0.52480000E+02 -0.27542E-04
 0.52529999E+02 -0.31619E-04
 0.52580002E+02 -0.22438E-04
 0.52630001E+02 -0.13166E-04
 0.52680000E+02 -0.10177E-05
 0.52730000E+02  0.10081E-04
 0.52779999E+02  0.19018E-04
 0.52830002E+02  0.33541E-04
 0.52880001E+02  0.45741E-04
 0.52930000E+02  0.51777E-04
 0.52980000E+02  0.48099E-04
 0.53029999E+02  0.20833E-04
 0.53080002E+02 -0.22694E-04
 0.53130001E+02 -0.60723E-04
 0.53180000E+02 -0.80327E-04
 0.53230000E+02 -0.74992E-04
 0.53279999E+02 -0.47727E-04
 0.53330002E+02 -0.89725E-05
 0.53380001E+02  0.22414E-04
 0.53430000E+02  0.25567E-04
 0.53480000E+02  0.80293E-05
 0.53529999E+02 -0.34362E-05
 0.53580002E+02  0.13686E-06
 0.53630001E+02  0.58165E-05
 0.53680000E+02 -0.83942E-06
 0.53730000E+02 -0.11891E-04
 0.53779999E+02 -0.11006E-04
 0.53830002E+02  0.15892E-05
 0.53880001E+02  0.16640E-04
 0.53930000E+02  0.34476E-04
 0.53980000E+02  0.54190E-04
 0.54029999E+02  0.58511E-04
 0.54080002E+02  0.45036E-04
 0.54130001E+02  0.27854E-04
 0.54180000E+02  0.99938E-05
 0.54230000E+02 -0.15924E-04
 0.54279999E+02 -0.47323E-04
 0.54330002E+02 -0.66771E-04
 0.54380001E+02 -0.70664E-04
 0.54430000E+02 -0.61713E-04
 0.54480000E+02 -0.34762E-04
 0.54529999E+02  0.79377E-05
 0.54580002E+02  0.51364E-04
 0.54630001E+02  0.74582E-04
 0.54680000E+02  0.70176E-04
 0.54730000E+02  0.31204E-04
 0.54779999E+02 -0.30131E-04
 0.54830002E+02 -0.70819E-04
 0.54880001E+02 -0.71345E-04
 0.54930000E+02 -0.34764E-04
 0.54980000E+02  0.91266E-05
 0.55029999E+02  0.21505E-04
 0.55080002E+02 -0.77587E-06
 0.55130001E+02 -0.38344E-04
 0.55180000E+02 -0.61909E-04
 0.55230000E+02 -0.53207E-04
 0.55279999E+02 -0.11896E-04
 0.55330002E+02  0.46733E-04
 0.55380001E+02  0.95579E-04
 0.55430000E+02  0.11230E-03
 0.55480000E+02  0.89634E-04
 0.55529999E+02  0.49430E-04
 0.55580002E+02  0.15845E-04
 0.55630001E+02 -0.46207E-05
 0.55680000E+02 -0.16588E-04
 0.55730000E+02 -0.29776E-04
 0.55779999E+02 -0.39080E-04
 0.55830002E+02 -0.41508E-04
 0.55880001E+02 -0.41283E-04
 0.55930000E+02 -0.30371E-04
 0.55980000E+02 -0.84164E-05
 0.56029999E+02  0.50339E-05
 0.56080002E+02  0.41857E-05
 0.56130001E+02  0.78748E-05
 0.56180000E+02  0.22101E-04
 0.56230000E+02  0.35190E-04
 0.56279999E+02  0.25074E-04
 0.56330002E+02 -0.12696E-04
 0.56380001E+02 -0.49379E-04
 0.56430000E+02 -0.69314E-04
 0.56480000E+02 -0.66181E-04
 0.56529999E+02 -0.38488E-04
 0.56580002E+02  0.13268E-04
 0.56630001E+02  0.80994E-04
 0.56680000E+02  0.12622E-03
 0.56730000E+02  0.12147E-03
 0.56779999E+02  0.62639E-04
 0.56830002E+02 -0.18607E-04
 0.56880001E+02 -0.70941E-04
 0.56930000E+02 -0.71346E-04
 0.56980000E+02 -0.29935E-04
 0.57029999E+02  0.89257E-05
 0.57080002E+02  0.17725E-04
 0.57130001E+02  0.14519E-05
 0.57180000E+02 -0.20503E-04
 0.57230000E+02 -0.26683E-04
 0.57279999E+02 -0.24756E-04
 0.57330002E+02 -0.32707E-04
 0.57380001E+02 -0.51266E-04
 0.57430000E+02 -0.53900E-04
 0.57480000E+02 -0.19794E-04
 0.57529999E+02  0.32534E-04
 0.57580002E+02  0.69145E-04
 0.57630001E+02  0.70021E-04
 0.57680000E+02  0.47446E-04
 0.57730000E+02  0.15644E-04
 0.57779999E+02 -0.22239E-04
 0.57830002E+02 -0.47362E-04
 0.57880001E+02 -0.48471E-04
 0.57930000E+02 -0.22861E-04
 0.57980000E+02  0.28528E-04
 0.58029999E+02  0.80291E-04
 0.58080002E+02  0.10122E-03
 0.58130001E+02  0.75735E-04
 0.58180000E+02  0.10328E-04
 0.58230000E+02 -0.67548E-04
 0.58279999E+02 -0.12869E-03
 0.58330002E+02 -0.15265E-03
 0.58380001E+02 -0.11771E-03
 0.58430000E+02 -0.31765E-04
 0.58480000E+02  0.45605E-04
 0.58529999E+02  0.74724E-04
 0.58580002E+02  0.65796E-04
 0.58630001E+02  0.39156E-04
 0.58680000E+02  0.10426E-04
 0.58730000E+02 -0.87777E-05
 0.58779999E+02 -0.11622E-04
 0.58830002E+02 -0.97356E-05
 0.58880001E+02 -0.54918E-05
 0.58930000E+02  0.17415E-04
 0.58980000E+02  0.47501E-04
 0.59029999E+02  0.64011E-04
 0.59080002E+02  0.62218E-04
 0.59130001E+02  0.45623E-04
 0.59180000E+02  0.20897E-04
 0.59230000E+02 -0.73987E-05
 0.59279999E+02 -0.24842E-04
 0.59330002E+02 -0.22038E-04
 0.59380001E+02 -0.84615E-05
 0.59430000E+02  0.50628E-05
 0.59480000E+02  0.76399E-05
 0.59529999E+02 -0.49336E-05
 0.59580002E+02 -0.23233E-04
 0.59630001E+02 -0.46259E-04
 0.59680000E+02 -0.75315E-04
 0.59730000E+02 -0.80567E-04
 0.59779999E+02 -0.38781E-04
 0.59830002E+02  0.18633E-04
 0.59880001E+02  0.44757E-04
 0.59930000E+02  0.34456E-04
 0.59980000E+02  0.11979E-04
 0.60029999E+02 -0.66089E-05
 0.60080002E+02 -0.10533E-04
 0.60130001E+02 -0.53496E-05
 0.60180000E+02  0.34965E-05
 0.60230000E+02  0.29670E-04
 0.60279999E+02  0.66920E-04
 0.60330002E+02  0.95149E-04
 0.60380001E+02  0.97078E-04
 0.60430000E+02  0.61373E-04
 0.60480000E+02 -0.28031E-05
 0.60529999E+02 -0.70355E-04
 0.60580002E+02 -0.11252E-03
 0.60630001E+02 -0.12714E-03
 0.60680000E+02 -0.12907E-03
 0.60730000E+02 -0.11117E-03
 0.60779999E+02 -0.73861E-04
 0.60830002E+02 -0.35937E-04
 0.60880001E+02 -0.20752E-05
 0.60930000E+02  0.21163E-04
 0.60980000E+02  0.27259E-04
 0.61029999E+02  0.32420E-04
 0.61080002E+02  0.42858E-04
 0.61130001E+02  0.49388E-04
 0.61180000E+02  0.54743E-04
 0.61230000E+02  0.71770E-04
 0.61279999E+02  0.99468E-04
 0.61330002E+02  0.10398E-03
 0.61380001E+02  0.66123E-04
 0.61430000E+02  0.12946E-04
 0.61480000E+02 -0.17312E-04
 0.61529999E+02 -0.15877E-05
 0.61580002E+02  0.35508E-04
 0.61630001E+02  0.50376E-04
 0.61680000E+02  0.34482E-04
 0.61730000E+02 -0.98024E-05
 0.61779999E+02 -0.59497E-04
 0.61830002E+02 -0.87171E-04
 0.61880001E+02 -0.10397E-03
 0.61930000E+02 -0.10834E-03
 0.61980000E+02 -0.77943E-04
 0.62029999E+02 -0.21064E-04
 0.62080002E+02  0.28492E-04
 0.62130001E+02  0.49663E-04
 0.62180000E+02  0.39120E-04
 0.62230000E+02  0.61526E-05
 0.62279999E+02 -0.29744E-04
 0.62330002E+02 -0.58011E-04
 0.62380001E+02 -0.67264E-04
 0.62430000E+02 -0.46726E-04
 0.62480000E+02 -0.32661E-05
 0.62529999E+02  0.47380E-04
 0.62580002E+02  0.72724E-04
 0.62630001E+02  0.51752E-04
 0.62680000E+02  0.16847E-04
 0.62730000E+02 -0.10379E-05
 0.62779999E+02  0.35799E-06
 0.62830002E+02  0.17378E-04
 0.62880001E+02  0.34067E-04
 0.62930000E+02  0.43626E-04
 0.62980000E+02  0.42190E-04
 0.63029999E+02  0.21738E-04
 0.63080002E+02 -0.10804E-04
 0.63130001E+02 -0.48741E-04
 0.63180000E+02 -0.79482E-04
 0.63230000E+02 -0.79989E-04
 0.63279999E+02 -0.47782E-04
 0.63330002E+02  0.15996E-05
 0.63380001E+02  0.55365E-04
 0.63430000E+02  0.92690E-04
 0.63480000E+02  0.98467E-04
 0.63529999E+02  0.73129E-04
 0.63580002E+02  0.15415E-04
 0.63630001E+02 -0.60836E-04
 0.63680000E+02 -0.11845E-03
 0.63730000E+02 -0.11685E-03
 0.63779999E+02 -0.53782E-04
 0.63830002E+02  0.22679E-04
 0.63880001E+02  0.69330E-04
 0.63930000E+02  0.80532E-04
 0.63980000E+02  0.70085E-04
 0.64029999E+02  0.43995E-04
 0.64080002E+02  0.65671E-05
 0.64129997E+02 -0.26651E-04
 0.64180000E+02 -0.39812E-04
 0.64230003E+02 -0.23131E-04
 0.64279999E+02  0.10496E-04
 0.64330002E+02  0.28502E-04
 0.64379997E+02  0.17411E-04
 0.64430000E+02 -0.49239E-05
 0.64480003E+02 -0.24118E-04
 0.64529999E+02 -0.44461E-04
 0.64580002E+02 -0.57873E-04
 0.64629997E+02 -0.52641E-04
 0.64680000E+02 -0.29671E-04
 0.64730003E+02  0.88340E-05
 0.64779999E+02  0.41514E-04
 0.64830002E+02  0.41005E-04
 0.64879997E+02  0.91576E-05
 0.64930000E+02 -0.26003E-04
 0.64980003E+02 -0.32273E-04
 0.65029999E+02 -0.99217E-05
 0.65080002E+02  0.12412E-04
 0.65129997E+02  0.17696E-04
 0.65180000E+02  0.98485E-05
 0.65230003E+02 -0.15250E-06
 0.65279999E+02 -0.12395E-04
 0.65330002E+02 -0.24908E-04
 0.65379997E+02 -0.20082E-04
 0.65430000E+02  0.56507E-05
 0.65480003E+02  0.38155E-04
 0.65529999E+02  0.65165E-04
 0.65580002E+02  0.77102E-04
 0.65629997E+02  0.73150E-04
 0.65680000E+02  0.52358E-04
 0.65730003E+02  0.13422E-04
 0.65779999E+02 -0.24409E-04
 0.65830002E+02 -0.45793E-04
 0.65879997E+02 -0.49795E-04
 0.65930000E+02 -0.34014E-04
 0.65980003E+02 -0.12536E-04
 0.66029999E+02 -0.54598E-05
 0.66080002E+02 -0.11797E-04
 0.66129997E+02 -0.22043E-04
 0.66180000E+02 -0.29877E-04
 0.66230003E+02 -0.27001E-04
 0.66279999E+02 -0.13562E-04
 0.66330002E+02  0.52872E-05
 0.66379997E+02  0.28318E-04
 0.66430000E+02  0.43706E-04
 0.66480003E+02  0.36855E-04
 0.66529999E+02  0.78174E-05
 0.66580002E+02 -0.30396E-04
 0.66629997E+02 -0.64941E-04
 0.66680000E+02 -0.80628E-04
 0.66730003E+02 -0.69544E-04
 0.66779999E+02 -0.38766E-04
 0.66830002E+02  0.70013E-05
 0.66879997E+02  0.48625E-04
 0.66930000E+02  0.68043E-04
 0.66980003E+02  0.69993E-04
 0.67029999E+02  0.60924E-04
 0.67080002E+02  0.43690E-04
 0.67129997E+02  0.17328E-04
 0.67180000E+02 -0.13138E-04
 0.67230003E+02 -0.37134E-04
 0.67279999E+02 -0.46800E-04
 0.67330002E+02 -0.37708E-04
 0.67379997E+02 -0.13498E-04
 0.67430000E+02  0.11145E-04
 0.67480003E+02  0.19377E-04
 0.67529999E+02  0.12295E-04
 0.67580002E+02  0.31401E-05
 0.67629997E+02  0.60189E-06
 0.67680000E+02  0.52439E-05
 0.67730003E+02  0.16088E-04
 0.67779999E+02  0.31321E-04
 0.67830002E+02  0.39815E-04
 0.67879997E+02  0.28587E-04
 0.67930000E+02 -0.23939E-05
 0.67980003E+02 -0.32941E-04
 0.68029999E+02 -0.43327E-04
 0.68080002E+02 -0.34150E-04
 0.68129997E+02 -0.17743E-04
 0.68180000E+02 -0.73425E-05
 0.68230003E+02 -0.72111E-05
 0.68279999E+02 -0.86471E-05
 0.68330002E+02 -0.42622E-06
 0.68379997E+02  0.12059E-04
 0.68430000E+02  0.12484E-04
 0.68480003E+02 -0.46448E-06
 0.68529999E+02 -0.16114E-04
 0.68580002E+02 -0.28352E-04
 0.68629997E+02 -0.37182E-04
 0.68680000E+02 -0.45413E-04
 0.68730003E+02 -0.48168E-04
 0.68779999E+02 -0.34558E-04
 0.68830002E+02 -0.24776E-05
 0.68879997E+02  0.38216E-04
 0.68930000E+02  0.68955E-04
 0.68980003E+02  0.81395E-04
 0.69029999E+02  0.86163E-04
 0.69080002E+02  0.87102E-04
 0.69129997E+02  0.73604E-04
 0.69180000E+02  0.45276E-04
 0.69230003E+02  0.12354E-04
 0.69279999E+02 -0.16238E-04
 0.69330002E+02 -0.28083E-04
 0.69379997E+02 -0.24458E-04
 0.69430000E+02 -0.23875E-04
 0.69480003E+02 -0.31981E-04
 0.69529999E+02 -0.46022E-04
 0.69580002E+02 -0.63867E-04
 0.69629997E+02 -0.76020E-04
 0.69680000E+02 -0.77803E-04
 0.69730003E+02 -0.70289E-04
 0.69779999E+02 -0.52253E-04
 0.69830002E+02 -0.25536E-04
 0.69879997E+02  0.32737E-05
 0.69930000E+02  0.26376E-04
 0.69980003E+02  0.37563E-04
 0.70029999E+02  0.35809E-04
 0.70080002E+02  0.30798E-04
 0.70129997E+02  0.33965E-04
 0.70180000E+02  0.46419E-04
 0.70230003E+02  0.59419E-04
 0.70279999E+02  0.61762E-04
 0.70330002E+02  0.49150E-04
 0.70379997E+02  0.23489E-04
 0.70430000E+02 -0.55232E-05
 0.70480003E+02 -0.27093E-04
 0.70529999E+02 -0.37441E-04
 0.70580002E+02 -0.34534E-04
 0.70629997E+02 -0.22115E-04
 0.70680000E+02 -0.65555E-05
 0.70730003E+02  0.55306E-05
 0.70779999E+02  0.43429E-05
 0.70830002E+02 -0.74131E-05
 0.70879997E+02 -0.17647E-04
 0.70930000E+02 -0.23760E-04
 0.70980003E+02 -0.23705E-04
 0.71029999E+02 -0.14330E-04
 0.71080002E+02 -0.26698E-05
 0.71129997E+02  0.23351E-05
 0.71180000E+02 -0.99231E-06
 0.71230003E+02 -0.82301E-05
 0.71279999E+02 -0.10944E-04
 0.71330002E+02 -0.16606E-05
 0.71379997E+02  0.15275E-04
 0.71430000E+02  0.26496E-04
 0.71480003E+02  0.25475E-04
 0.71529999E+02  0.17064E-04
 0.71580002E+02  0.10272E-04
 0.71629997E+02  0.87268E-05
 0.71680000E+02  0.75329E-05
 0.71730003E+02  0.70467E-06
 0.71779999E+02 -0.67168E-05
 0.71830002E+02 -0.56245E-05
 0.71879997E+02  0.33857E-05
 0.71930000E+02  0.18151E-04
 0.71980003E+02  0.35906E-04
 0.72029999E+02  0.46575E-04
 0.72080002E+02  0.41216E-04
 0.72129997E+02  0.20538E-04
 0.72180000E+02 -0.63030E-05
 0.72230003E+02 -0.31928E-04
 0.72279999E+02 -0.53753E-04
 0.72330002E+02 -0.66312E-04
 0.72379997E+02 -0.66736E-04
 0.72430000E+02 -0.58675E-04
 0.72480003E+02 -0.43977E-04
 0.72529999E+02 -0.23234E-04
 0.72580002E+02 -0.20864E-06
 0.72629997E+02  0.19741E-04
 0.72680000E+02  0.35885E-04
 0.72730003E+02  0.48953E-04
 0.72779999E+02  0.53639E-04
 0.72830002E+02  0.50082E-04
 0.72879997E+02  0.46274E-04
 0.72930000E+02  0.43532E-04
 0.72980003E+02  0.38664E-04
 0.73029999E+02  0.28066E-04
 0.73080002E+02  0.75942E-05
 0.73129997E+02 -0.19188E-04
 0.73180000E+02 -0.43602E-04
 0.73230003E+02 -0.56200E-04
 0.73279999E+02 -0.49083E-04
 0.73330002E+02 -0.28369E-04
 0.73379997E+02 -0.80742E-05
 0.73430000E+02  0.38901E-05
 0.73480003E+02  0.22065E-05
 0.73529999E+02 -0.10534E-04
 0.73580002E+02 -0.24394E-04
 0.73629997E+02 -0.32155E-04
 0.73680000E+02 -0.24501E-04
 0.73730003E+02 -0.19681E-05
 0.73779999E+02  0.21950E-04
 0.73830002E+02  0.36760E-04
 0.73879997E+02  0.32987E-04
 0.73930000E+02  0.10516E-04
 0.73980003E+02 -0.17873E-04
 0.74029999E+02 -0.39650E-04
 0.74080002E+02 -0.48386E-04
 0.74129997E+02 -0.43603E-04
 0.74180000E+02 -0.28402E-04
 0.74230003E+02 -0.93034E-05
 0.74279999E+02  0.79819E-05
 0.74330002E+02  0.19440E-04
 0.74379997E+02  0.25644E-04
 0.74430000E+02  0.31054E-04
 0.74480003E+02  0.34504E-04
 0.74529999E+02  0.36973E-04
 0.74580002E+02  0.41760E-04
 0.74629997E+02  0.43649E-04
 0.74680000E+02  0.35905E-04
 0.74730003E+02  0.18978E-04
 0.74779999E+02 -0.22620E-05
 0.74830002E+02 -0.20444E-04
 0.74879997E+02 -0.28368E-04
 0.74930000E+02 -0.24715E-04
 0.74980003E+02 -0.11644E-04
 0.75029999E+02  0.42646E-05
 0.75080002E+02  0.15163E-04
 0.75129997E+02  0.17860E-04
 0.75180000E+02  0.12105E-04
 0.75230003E+02  0.17142E-05
 0.75279999E+02 -0.80256E-05
 0.75330002E+02 -0.11741E-04
 0.75379997E+02 -0.92580E-05
 0.75430000E+02 -0.52451E-05
 0.75480003E+02 -0.43103E-05
 0.75529999E+02 -0.12902E-04
 0.75580002E+02 -0.30539E-04
 0.75629997E+02 -0.47457E-04
 0.75680000E+02 -0.50763E-04
 0.75730003E+02 -0.35646E-04
 0.75779999E+02 -0.10806E-04
 0.75830002E+02  0.13612E-04
 0.75879997E+02  0.31956E-04
 0.75930000E+02  0.41651E-04
 0.75980003E+02  0.40073E-04
 0.76029999E+02  0.27781E-04
 0.76080002E+02  0.11502E-04
 0.76129997E+02 -0.66946E-06
 0.76180000E+02 -0.31942E-05
 0.76230003E+02  0.22660E-05
 0.76279999E+02  0.99574E-05
 0.76330002E+02  0.15601E-04
 0.76379997E+02  0.16173E-04
 0.76430000E+02  0.11730E-04
 0.76480003E+02  0.68418E-05
 0.76529999E+02  0.25425E-05
 0.76580002E+02 -0.48812E-05
 0.76629997E+02 -0.13745E-04
 0.76680000E+02 -0.19530E-04
 0.76730003E+02 -0.21481E-04
 0.76779999E+02 -0.19542E-04
 0.76830002E+02 -0.11473E-04
 0.76879997E+02 -0.58670E-06
 0.76930000E+02  0.58693E-05
 0.76980003E+02  0.48318E-05
 0.77029999E+02 -0.42710E-05
 0.77080002E+02 -0.17366E-04
 0.77129997E+02 -0.25982E-04
 0.77180000E+02 -0.24255E-04
 0.77230003E+02 -0.15134E-04
 0.77279999E+02 -0.40474E-05
 0.77330002E+02  0.93178E-05
 0.77379997E+02  0.24202E-04
 0.77430000E+02  0.32271E-04
 0.77480003E+02  0.26263E-04
 0.77529999E+02  0.91140E-05
 0.77580002E+02 -0.10187E-04
 0.77629997E+02 -0.22226E-04
 0.77680000E+02 -0.22600E-04
 0.77730003E+02 -0.12119E-04
 0.77779999E+02  0.55615E-05
 0.77830002E+02  0.21790E-04
 0.77879997E+02  0.27744E-04
 0.77930000E+02  0.21494E-04
 0.77980003E+02  0.58901E-05
 0.78029999E+02 -0.14359E-04
 0.78080002E+02 -0.30945E-04
 0.78129997E+02 -0.35331E-04
 0.78180000E+02 -0.26476E-04
 0.78230003E+02 -0.13216E-04
 0.78279999E+02 -0.10377E-05
 0.78330002E+02  0.12035E-04
 0.78379997E+02  0.21597E-04
 0.78430000E+02  0.22917E-04
 0.78480003E+02  0.18526E-04
 0.78529999E+02  0.12683E-04
 0.78580002E+02  0.93278E-05
 0.78629997E+02  0.10648E-04
 0.78680000E+02  0.15401E-04
 0.78730003E+02  0.20046E-04
 0.78779999E+02  0.21919E-04
 0.78830002E+02  0.19689E-04
 0.78879997E+02  0.14724E-04
 0.78930000E+02  0.85510E-05
 0.78980003E+02  0.16814E-05
 0.79029999E+02 -0.44603E-05
 0.79080002E+02 -0.77596E-05
 0.79129997E+02 -0.78550E-05
 0.79180000E+02 -0.99812E-05
 0.79230003E+02 -0.15914E-04
 0.79279999E+02 -0.22689E-04
 0.79330002E+02 -0.29336E-04
 0.79379997E+02 -0.33369E-04
 0.79430000E+02 -0.32076E-04
 0.79480003E+02 -0.23826E-04
 0.79529999E+02 -0.96369E-05
 0.79580002E+02  0.48542E-05
 0.79629997E+02  0.14951E-04
 0.79680000E+02  0.19265E-04
 0.79730003E+02  0.18068E-04
 0.79779999E+02  0.12313E-04
 0.79830002E+02  0.47413E-05
 0.79879997E+02 -0.13489E-05
 0.79930000E+02 -0.58131E-05
 0.79980003E+02 -0.80990E-05
 0.80029999E+02 -0.74427E-05
 0.80080002E+02 -0.49191E-05
 0.80129997E+02  0.70129E-06
 0.80180000E+02  0.85386E-05
 0.80230003E+02  0.13896E-04
 0.80279999E+02  0.14349E-04
 0.80330002E+02  0.11005E-04
 0.80379997E+02  0.66809E-05
 0.80430000E+02  0.18658E-05
 0.80480003E+02 -0.39982E-05
 0.80529999E+02 -0.98168E-05
 0.80580002E+02 -0.14584E-04
 0.80629997E+02 -0.17106E-04
 0.80680000E+02 -0.16346E-04
 0.80730003E+02 -0.13142E-04
 0.80779999E+02 -0.98265E-05
 0.80830002E+02 -0.64660E-05
 0.80879997E+02 -0.76516E-06
 0.80930000E+02  0.82230E-05
 0.80980003E+02  0.18387E-04
 0.81029999E+02  0.25040E-04
 0.81080002E+02  0.26433E-04
 0.81129997E+02  0.22148E-04
 0.81180000E+02  0.11820E-04
 0.81230003E+02  0.17301E-05
 0.81279999E+02 -0.20078E-05
 0.81330002E+02  0.36587E-06
 0.81379997E+02  0.50861E-05
 0.81430000E+02  0.81380E-05
 0.81480003E+02  0.83511E-05
 0.81529999E+02  0.45803E-05
 0.81580002E+02 -0.41877E-05
 0.81629997E+02 -0.15698E-04
 0.81680000E+02 -0.25112E-04
 0.81730003E+02 -0.29392E-04
 0.81779999E+02 -0.27496E-04
 0.81830002E+02 -0.20217E-04
 0.81879997E+02 -0.13277E-04
 0.81930000E+02 -0.10458E-04
 0.81980003E+02 -0.92125E-05
 0.82029999E+02 -0.51860E-05
 0.82080002E+02  0.36657E-05
 0.82129997E+02  0.16339E-04
 0.82180000E+02  0.29151E-04
 0.82230003E+02  0.37765E-04
 0.82279999E+02  0.39537E-04
 0.82330002E+02  0.33536E-04
 0.82379997E+02  0.21233E-04
 0.82430000E+02  0.45968E-05
 0.82480003E+02 -0.12037E-04
 0.82529999E+02 -0.23684E-04
 0.82580002E+02 -0.29727E-04
 0.82629997E+02 -0.30686E-04
 0.82680000E+02 -0.26621E-04
 0.82730003E+02 -0.17991E-04
 0.82779999E+02 -0.60485E-05
 0.82830002E+02  0.54051E-05
 0.82879997E+02  0.11838E-04
 0.82930000E+02  0.13154E-04
 0.82980003E+02  0.11947E-04
 0.83029999E+02  0.96784E-05
 0.83080002E+02  0.72723E-05
 0.83129997E+02  0.54891E-05
 0.83180000E+02  0.46673E-05
 0.83230003E+02  0.46910E-05
 0.83279999E+02  0.58225E-05
 0.83330002E+02  0.96078E-05
 0.83379997E+02  0.16972E-04
 0.83430000E+02  0.25242E-04
 0.83480003E+02  0.30162E-04
 0.83529999E+02  0.29007E-04
 0.83580002E+02  0.21638E-04
 0.83629997E+02  0.11443E-04
 0.83680000E+02  0.37367E-06
 0.83730003E+02 -0.12741E-04
 0.83779999E+02 -0.26535E-04
 0.83830002E+02 -0.38664E-04
 0.83879997E+02 -0.47201E-04
 0.83930000E+02 -0.49817E-04
 0.83980003E+02 -0.45774E-04
 0.84029999E+02 -0.36746E-04
 0.84080002E+02 -0.26061E-04
 0.84129997E+02 -0.15188E-04
 0.84180000E+02 -0.50822E-05
 0.84230003E+02  0.20132E-05
 0.84279999E+02  0.46476E-05
 0.84330002E+02  0.32044E-05
 0.84379997E+02  0.64468E-06
 0.84430000E+02 -0.10061E-06
 0.84480003E+02  0.32007E-05
 0.84529999E+02  0.11173E-04
 0.84580002E+02  0.20605E-04
 0.84629997E+02  0.27672E-04
 0.84680000E+02  0.29775E-04
 0.84730003E+02  0.25433E-04
 0.84779999E+02  0.15692E-04
 0.84830002E+02  0.40336E-05
 0.84879997E+02 -0.50770E-05
 0.84930000E+02 -0.82689E-05
 0.84980003E+02 -0.62742E-05
 0.85029999E+02 -0.31016E-05
 0.85080002E+02 -0.27872E-05
 0.85129997E+02 -0.61177E-05
 0.85180000E+02 -0.91518E-05
 0.85230003E+02 -0.85975E-05
 0.85279999E+02 -0.43938E-05
 0.85330002E+02  0.19021E-05
 0.85379997E+02  0.92096E-05
 0.85430000E+02  0.17476E-04
 0.85480003E+02  0.24922E-04
 0.85529999E+02  0.29901E-04
 0.85580002E+02  0.30370E-04
 0.85629997E+02  0.23660E-04
 0.85680000E+02  0.11325E-04
 0.85730003E+02 -0.30933E-05
 0.85779999E+02 -0.17648E-04
 0.85830002E+02 -0.29230E-04
 0.85879997E+02 -0.33597E-04
 0.85930000E+02 -0.30832E-04
 0.85980003E+02 -0.24681E-04
 0.86029999E+02 -0.18405E-04
 0.86080002E+02 -0.13325E-04
 0.86129997E+02 -0.80257E-05
 0.86180000E+02 -0.20880E-05
 0.86230003E+02  0.31204E-05
 0.86279999E+02  0.76705E-05
 0.86330002E+02  0.11156E-04
 0.86379997E+02  0.13509E-04
 0.86430000E+02  0.16331E-04
 0.86480003E+02  0.19437E-04
 0.86529999E+02  0.21051E-04
 0.86580002E+02  0.20744E-04
 0.86629997E+02  0.20327E-04
 0.86680000E+02  0.19541E-04
 0.86730003E+02  0.14990E-04
 0.86779999E+02  0.61542E-05
 0.86830002E+02 -0.44187E-05
 0.86879997E+02 -0.13772E-04
 0.86930000E+02 -0.20296E-04
 0.86980003E+02 -0.23608E-04
 0.87029999E+02 -0.22642E-04
 0.87080002E+02 -0.17643E-04
 0.87129997E+02 -0.10213E-04
 0.87180000E+02 -0.30376E-05
 0.87230003E+02  0.83524E-06
 0.87279999E+02  0.15462E-05
 0.87330002E+02  0.65947E-06
 0.87379997E+02 -0.17676E-05
 0.87430000E+02 -0.50505E-05
 0.87480003E+02 -0.72008E-05
 0.87529999E+02 -0.72777E-05
 0.87580002E+02 -0.58446E-05
 0.87629997E+02 -0.44270E-05
 0.87680000E+02 -0.40564E-05
 0.87730003E+02 -0.32953E-05
 0.87779999E+02 -0.15327E-06
 0.87830002E+02  0.52134E-05
 0.87879997E+02  0.11081E-04
 0.87930000E+02  0.14867E-04
 0.87980003E+02  0.15392E-04
 0.88029999E+02  0.13838E-04
 0.88080002E+02  0.10883E-04
 0.88129997E+02  0.60687E-05
 0.88180000E+02 -0.65855E-06
 0.88230003E+02 -0.85291E-05
 0.88279999E+02 -0.15623E-04
 0.88330002E+02 -0.18889E-04
 0.88379997E+02 -0.16909E-04
 0.88430000E+02 -0.10426E-04
 0.88480003E+02 -0.94714E-06
 0.88529999E+02  0.95163E-05
 0.88580002E+02  0.17793E-04
 0.88629997E+02  0.19317E-04
 0.88680000E+02  0.13040E-04
 0.88730003E+02  0.34127E-05
 0.88779999E+02 -0.46416E-05
 0.88830002E+02 -0.93586E-05
 0.88879997E+02 -0.12015E-04
 0.88930000E+02 -0.13778E-04
 0.88980003E+02 -0.14082E-04
 0.89029999E+02 -0.12271E-04
 0.89080002E+02 -0.90607E-05
 0.89129997E+02 -0.50033E-05
 0.89180000E+02 -0.51683E-06
 0.89230003E+02  0.30073E-05
 0.89279999E+02  0.59384E-05
 0.89330002E+02  0.94552E-05
 0.89379997E+02  0.13459E-04
 0.89430000E+02  0.16418E-04
 0.89480003E+02  0.16739E-04
 0.89529999E+02  0.14927E-04
 0.89580002E+02  0.11350E-04
 0.89629997E+02  0.60292E-05
 0.89680000E+02  0.54049E-06
 0.89730003E+02 -0.33988E-05
 0.89779999E+02 -0.59568E-05
 0.89830002E+02 -0.76907E-05
 0.89879997E+02 -0.75277E-05
 0.89930000E+02 -0.48149E-05
 0.89980003E+02 -0.68026E-06
 0.90029999E+02  0.25516E-05
 0.90080002E+02  0.30187E-05
 0.90129997E+02  0.12474E-05
 0.90180000E+02 -0.12017E-05
 0.90230003E+02 -0.32921E-05
 0.90279999E+02 -0.39954E-05
 0.90330002E+02 -0.32522E-05
 0.90379997E+02 -0.18884E-05
 0.90430000E+02 -0.73957E-06
 0.90480003E+02 -0.14182E-05
 0.90529999E+02 -0.40354E-05
 0.90580002E+02 -0.68252E-05
 0.90629997E+02 -0.83744E-05
 0.90680000E+02 -0.80152E-05
 0.90730003E+02 -0.59981E-05
 0.90779999E+02 -0.18046E-05
 0.90830002E+02  0.51195E-05
 0.90879997E+02  0.12230E-04
 0.90930000E+02  0.15987E-04
 0.90980003E+02  0.14861E-04
 0.91029999E+02  0.89019E-05
 0.91080002E+02 -0.92382E-07
 0.91129997E+02 -0.84932E-05
 0.91180000E+02 -0.12364E-04
 0.91230003E+02 -0.10576E-04
 0.91279999E+02 -0.55315E-05
 0.91330002E+02  0.76663E-06
 0.91379997E+02  0.71581E-05
 0.91430000E+02  0.11866E-04
 0.91480003E+02  0.14381E-04
 0.91529999E+02  0.15155E-04
 0.91580002E+02  0.15032E-04
 0.91629997E+02  0.14366E-04
 0.91680000E+02  0.11653E-04
 0.91730003E+02  0.70185E-05
 0.91779999E+02  0.23373E-05
 0.91830002E+02 -0.13030E-05
 0.91879997E+02 -0.45364E-05
 0.91930000E+02 -0.93855E-05
 0.91980003E+02 -0.16323E-04
 0.92029999E+02 -0.23764E-04
 0.92080002E+02 -0.28582E-04
 0.92129997E+02 -0.28092E-04
 0.92180000E+02 -0.21776E-04
 0.92230003E+02 -0.11859E-04
 0.92279999E+02 -0.35251E-05
 0.92330002E+02  0.20457E-06
 0.92379997E+02  0.78689E-06
 0.92430000E+02  0.10329E-05
 0.92480003E+02  0.28205E-05
 0.92529999E+02  0.55033E-05
 0.92580002E+02  0.72992E-05
 0.92629997E+02  0.75284E-05
 0.92680000E+02  0.63364E-05
 0.92730003E+02  0.41095E-05
 0.92779999E+02  0.21978E-05
 0.92830002E+02  0.26829E-05
 0.92879997E+02  0.57680E-05
 0.92930000E+02  0.97474E-05
 0.92980003E+02  0.12985E-04
 0.93029999E+02  0.14720E-04
 0.93080002E+02  0.14069E-04
 0.93129997E+02  0.91298E-05
 0.93180000E+02 -0.19287E-06
 0.93230003E+02 -0.10491E-04
 0.93279999E+02 -0.18166E-04
 0.93330002E+02 -0.22342E-04
 0.93379997E+02 -0.23429E-04
 0.93430000E+02 -0.21844E-04
 0.93480003E+02 -0.17643E-04
 0.93529999E+02 -0.10862E-04
 0.93580002E+02 -0.26152E-05
 0.93629997E+02  0.62679E-05
 0.93680000E+02  0.15076E-04
 0.93730003E+02  0.22089E-04
 0.93779999E+02  0.25249E-04
 0.93830002E+02  0.23486E-04
 0.93879997E+02  0.18063E-04
 0.93930000E+02  0.11200E-04
 0.93980003E+02  0.51922E-05
 0.94029999E+02  0.20847E-05
 0.94080002E+02  0.18555E-05
 0.94129997E+02  0.37003E-05
 0.94180000E+02  0.64362E-05
 0.94230003E+02  0.76022E-05
 0.94279999E+02  0.60102E-05
 0.94330002E+02  0.28798E-05
 0.94379997E+02 -0.14187E-06
 0.94430000E+02 -0.24042E-05
 0.94480003E+02 -0.52796E-05
 0.94529999E+02 -0.10632E-04
 0.94580002E+02 -0.17268E-04
 0.94629997E+02 -0.22019E-04
 0.94680000E+02 -0.22546E-04
 0.94730003E+02 -0.18279E-04
 0.94779999E+02 -0.10943E-04
 0.94830002E+02 -0.32829E-05
 0.94879997E+02  0.26855E-05
 0.94930000E+02  0.56894E-05
 0.94980003E+02  0.58160E-05
 0.95029999E+02  0.48660E-05
 0.95080002E+02  0.42264E-05
 0.95129997E+02  0.36904E-05
 0.95180000E+02  0.20482E-05
 0.95230003E+02 -0.11949E-05
 0.95279999E+02 -0.51305E-05
 0.95330002E+02 -0.90768E-05
 0.95379997E+02 -0.11607E-04
 0.95430000E+02 -0.11255E-04
 0.95480003E+02 -0.81816E-05
 0.95529999E+02 -0.21265E-05
 0.95580002E+02  0.57336E-05
 0.95629997E+02  0.12736E-04
 0.95680000E+02  0.17752E-04
 0.95730003E+02  0.19951E-04
 0.95779999E+02  0.19208E-04
 0.95830002E+02  0.16860E-04
 0.95879997E+02  0.13682E-04
 0.95930000E+02  0.96050E-05
 0.95980003E+02  0.48342E-05
 0.96029999E+02 -0.15444E-06
 0.96080002E+02 -0.44326E-05
 0.96129997E+02 -0.71073E-05
 0.96180000E+02 -0.85249E-05
 0.96230003E+02 -0.86552E-05
 0.96279999E+02 -0.69046E-05
 0.96330002E+02 -0.43942E-05
 0.96379997E+02 -0.29359E-05
 0.96430000E+02 -0.33703E-05
 0.96480003E+02 -0.55922E-05
 0.96529999E+02 -0.80312E-05
 0.96580002E+02 -0.90487E-05
 0.96629997E+02 -0.81376E-05
 0.96680000E+02 -0.50596E-05
 0.96730003E+02 -0.84043E-06
 0.96779999E+02  0.24036E-05
 0.96830002E+02  0.36567E-05
 0.96879997E+02  0.30580E-05
 0.96930000E+02  0.11279E-05
 0.96980003E+02 -0.12574E-05
 0.97029999E+02 -0.37469E-05
 0.97080002E+02 -0.61754E-05
 0.97129997E+02 -0.79157E-05
 0.97180000E+02 -0.87913E-05
 0.97230003E+02 -0.80710E-05
 0.97279999E+02 -0.52549E-05
 0.97330002E+02 -0.17076E-05
 0.97379997E+02  0.22959E-05
 0.97430000E+02  0.78112E-05
 0.97480003E+02  0.14521E-04
 0.97529999E+02  0.20674E-04
 0.97580002E+02  0.24233E-04
 0.97629997E+02  0.24278E-04
 0.97680000E+02  0.21343E-04
 0.97730003E+02  0.16037E-04
 0.97779999E+02  0.84935E-05
 0.97830002E+02 -0.17285E-07
 0.97879997E+02 -0.75434E-05
 0.97930000E+02 -0.12736E-04
 0.97980003E+02 -0.14979E-04
 0.98029999E+02 -0.15129E-04
 0.98080002E+02 -0.14376E-04
 0.98129997E+02 -0.12924E-04
 0.98180000E+02 -0.10629E-04
 0.98230003E+02 -0.75243E-05
 0.98279999E+02 -0.39515E-05
 0.98330002E+02  0.76832E-07
 0.98379997E+02  0.48559E-05
 0.98430000E+02  0.96241E-05
 0.98480003E+02  0.13418E-04
 0.98529999E+02  0.14837E-04
 0.98580002E+02  0.12080E-04
 0.98629997E+02  0.58305E-05
 0.98680000E+02 -0.18526E-05
 0.98730003E+02 -0.88518E-05
 0.98779999E+02 -0.13152E-04
 0.98830002E+02 -0.14133E-04
 0.98879997E+02 -0.12311E-04
 0.98930000E+02 -0.90487E-05
 0.98980003E+02 -0.56382E-05
 0.99029999E+02 -0.24205E-05
 0.99080002E+02  0.50032E-06
 0.99129997E+02  0.29267E-05
 0.99180000E+02  0.49924E-05
 0.99230003E+02  0.64587E-05
 0.99279999E+02  0.67419E-05
 0.99330002E+02  0.58206E-05
 0.99379997E+02  0.36342E-05
 0.99430000E+02 -0.11624E-06
 0.99480003E+02 -0.56020E-05
 0.99529999E+02 -0.11676E-04
 0.99580002E+02 -0.15619E-04
 0.99629997E+02 -0.15440E-04
 0.99680000E+02 -0.11955E-04
 0.99730003E+02 -0.79804E-05
 0.99779999E+02 -0.46790E-05
 0.99830002E+02 -0.13488E-05
 0.99879997E+02  0.23861E-05
 0.99930000E+02  0.68095E-05
 0.99980003E+02  0.11863E-04
 0.10003000E+03  0.16552E-04
 0.10008000E+03  0.19401E-04
 0.10013000E+03  0.19350E-04
 0.10018000E+03  0.16803E-04
 0.10023000E+03  0.12885E-04
 0.10028000E+03  0.76646E-05
 0.10033000E+03  0.15985E-05
 0.10038000E+03 -0.35761E-05
 0.10043000E+03 -0.69949E-05
 0.10048000E+03 -0.89579E-05
 0.10053000E+03 -0.99339E-05
 0.10058000E+03 -0.96017E-05
 0.10063000E+03 -0.75508E-05
 0.10068000E+03 -0.45505E-05
 0.10073000E+03 -0.12924E-05
 0.10078000E+03  0.18459E-05
 0.10083000E+03  0.40458E-05
 0.10088000E+03  0.52283E-05
 0.10093000E+03  0.56321E-05
 0.10098000E+03  0.44608E-05
 0.10103000E+03  0.14453E-05
 0.10108000E+03 -0.26172E-05
 0.10113000E+03 -0.63671E-05
 0.10118000E+03 -0.88951E-05
 0.10123000E+03 -0.10707E-04
 0.10128000E+03 -0.11955E-04
 0.10133000E+03 -0.12320E-04
 0.10138000E+03 -0.11760E-04
 0.10143000E+03 -0.10077E-04
 0.10148000E+03 -0.72657E-05
 0.10153000E+03 -0.35100E-05
 0.10158000E+03  0.93353E-06
 0.10163000E+03  0.51117E-05
 0.10168000E+03  0.83180E-05
 0.10173000E+03  0.10431E-04
 0.10178000E+03  0.10498E-04
 0.10183000E+03  0.81394E-05
 0.10188000E+03  0.47393E-05
 0.10193000E+03  0.21350E-05
 0.10198000E+03  0.16060E-05
 0.10203000E+03  0.36377E-05
 0.10208000E+03  0.80887E-05
 0.10213000E+03  0.14146E-04
 0.10218000E+03  0.20091E-04
 0.10223000E+03  0.23723E-04
 0.10228000E+03  0.23168E-04
 0.10233000E+03  0.17388E-04
 0.10238000E+03  0.74210E-05
 0.10243000E+03 -0.38046E-05
 0.10248000E+03 -0.13072E-04
 0.10253000E+03 -0.18490E-04
 0.10258000E+03 -0.20574E-04
 0.10263000E+03 -0.20461E-04
 0.10268000E+03 -0.18894E-04
 0.10273000E+03 -0.16541E-04
 0.10278000E+03 -0.14105E-04
 0.10283000E+03 -0.12557E-04
 0.10288000E+03 -0.12202E-04
 0.10293000E+03 -0.12192E-04
 0.10298000E+03 -0.10737E-04
 0.10303000E+03 -0.66591E-05
 0.10308000E+03 -0.65284E-06
 0.10313000E+03  0.55310E-05
 0.10318000E+03  0.10508E-04
 0.10323000E+03  0.13974E-04
 0.10328000E+03  0.16077E-04
 0.10333000E+03  0.17487E-04
 0.10338000E+03  0.18376E-04
 0.10343000E+03  0.17916E-04
 0.10348000E+03  0.16097E-04
 0.10353000E+03  0.13104E-04
 0.10358000E+03  0.88930E-05
 0.10363000E+03  0.40510E-05
 0.10368000E+03 -0.11368E-05
 0.10373000E+03 -0.63507E-05
 0.10378000E+03 -0.10512E-04
 0.10383000E+03 -0.12911E-04
 0.10388000E+03 -0.13234E-04
 0.10393000E+03 -0.11606E-04
 0.10398000E+03 -0.89724E-05
 0.10403000E+03 -0.61545E-05
 0.10408000E+03 -0.38054E-05
 0.10413000E+03 -0.27161E-05
 0.10418000E+03 -0.28751E-05
 0.10423000E+03 -0.34000E-05
 0.10428000E+03 -0.36496E-05
 0.10433000E+03 -0.29566E-05
 0.10438000E+03 -0.59545E-06
 0.10443000E+03  0.29351E-05
 0.10448000E+03  0.58127E-05
 0.10453000E+03  0.62120E-05
 0.10458000E+03  0.40210E-05
 0.10463000E+03  0.58818E-06
 0.10468000E+03 -0.28280E-05
 0.10473000E+03 -0.54031E-05
 0.10478000E+03 -0.63428E-05
 0.10483000E+03 -0.49046E-05
 0.10488000E+03 -0.16462E-05
 0.10493000E+03  0.17985E-05
 0.10498000E+03  0.44551E-05
 0.10503000E+03  0.56992E-05
 0.10508000E+03  0.55941E-05
 0.10513000E+03  0.48068E-05
 0.10518000E+03  0.30957E-05
 0.10523000E+03  0.58866E-06
 0.10528000E+03 -0.19067E-05
 0.10533000E+03 -0.35690E-05
 0.10538000E+03 -0.35936E-05
 0.10543000E+03 -0.19295E-05
 0.10548000E+03  0.52201E-06
 0.10553000E+03  0.25411E-05
 0.10558000E+03  0.41346E-05
 0.10563000E+03  0.55248E-05
 0.10568000E+03  0.61872E-05
 0.10573000E+03  0.62068E-05
 0.10578000E+03  0.59511E-05
 0.10583000E+03  0.54626E-05
 0.10588000E+03  0.46223E-05
 0.10593000E+03  0.33565E-05
 0.10598000E+03  0.13341E-05
 0.10603000E+03 -0.12956E-05
 0.10608000E+03 -0.33870E-05
 0.10613000E+03 -0.44627E-05
 0.10618000E+03 -0.46104E-05
 0.10623000E+03 -0.42710E-05
 0.10628000E+03 -0.42238E-05
 0.10633000E+03 -0.41468E-05
 0.10638000E+03 -0.34586E-05
 0.10643000E+03 -0.22337E-05
 0.10648000E+03 -0.10104E-05
 0.10653000E+03 -0.42934E-06
 0.10658000E+03 -0.16107E-06
 0.10663000E+03  0.29253E-06
 0.10668000E+03  0.46433E-06
 0.10673000E+03 -0.26509E-06
 0.10678000E+03 -0.15230E-05
 0.10683000E+03 -0.24735E-05
 0.10688000E+03 -0.29982E-05
 0.10693000E+03 -0.33850E-05
 0.10698000E+03 -0.41161E-05
 0.10703000E+03 -0.56449E-05
 0.10708000E+03 -0.70834E-05
 0.10713000E+03 -0.67604E-05
 0.10718000E+03 -0.44158E-05
 0.10723000E+03 -0.11307E-05
 0.10728000E+03  0.19896E-05
 0.10733000E+03  0.41734E-05
 0.10738000E+03  0.56506E-05
 0.10743000E+03  0.73759E-05
 0.10748000E+03  0.97053E-05
 0.10753000E+03  0.12244E-04
 0.10758000E+03  0.14288E-04
 0.10763000E+03  0.15424E-04
 0.10768000E+03  0.15204E-04
 0.10773000E+03  0.13042E-04
 0.10778000E+03  0.94226E-05
 0.10783000E+03  0.52572E-05
 0.10788000E+03  0.53464E-06
 0.10793000E+03 -0.47982E-05
 0.10798000E+03 -0.98878E-05
 0.10803000E+03 -0.13522E-04
 0.10808000E+03 -0.15299E-04
 0.10813000E+03 -0.15937E-04
 0.10818000E+03 -0.15881E-04
 0.10823000E+03 -0.14685E-04
 0.10828000E+03 -0.11906E-04
 0.10833000E+03 -0.80272E-05
 0.10838000E+03 -0.39105E-05
 0.10843000E+03 -0.28903E-07
 0.10848000E+03  0.27072E-05
 0.10853000E+03  0.40752E-05
 0.10858000E+03  0.50315E-05
 0.10863000E+03  0.62057E-05
 0.10868000E+03  0.80314E-05
 0.10873000E+03  0.10227E-04
 0.10878000E+03  0.11751E-04
 0.10883000E+03  0.11573E-04
 0.10888000E+03  0.93184E-05
 0.10893000E+03  0.55495E-05
 0.10898000E+03  0.97830E-06
 0.10903000E+03 -0.33725E-05
 0.10908000E+03 -0.67153E-05
 0.10913000E+03 -0.92198E-05
 0.10918000E+03 -0.11148E-04
 0.10923000E+03 -0.12742E-04
 0.10928000E+03 -0.14153E-04
 0.10933000E+03 -0.14937E-04
 0.10938000E+03 -0.14763E-04
 0.10943000E+03 -0.13189E-04
 0.10948000E+03 -0.93077E-05
 0.10953000E+03 -0.31886E-05
 0.10958000E+03  0.38995E-05
 0.10963000E+03  0.10306E-04
 0.10968000E+03  0.14562E-04
 0.10973000E+03  0.16042E-04
 0.10978000E+03  0.15141E-04
 0.10983000E+03  0.12677E-04
 0.10988000E+03  0.96711E-05
 0.10993000E+03  0.69861E-05
 0.10998000E+03  0.47078E-05
 0.11003000E+03  0.30795E-05
 0.11008000E+03  0.23019E-05
 0.11013000E+03  0.18985E-05
 0.11018000E+03  0.20864E-05
 0.11023000E+03  0.32382E-05
 0.11028000E+03  0.47488E-05
 0.11033000E+03  0.61116E-05
 0.11038000E+03  0.70508E-05
 0.11043000E+03  0.72978E-05
 0.11048000E+03  0.69432E-05
 0.11053000E+03  0.59917E-05
 0.11058000E+03  0.44642E-05
 0.11063000E+03  0.22799E-05
 0.11068000E+03 -0.11204E-05
 0.11073000E+03 -0.57368E-05
 0.11078000E+03 -0.10447E-04
 0.11083000E+03 -0.14315E-04
 0.11088000E+03 -0.17412E-04
 0.11093000E+03 -0.19868E-04
 0.11098000E+03 -0.21066E-04
 0.11103000E+03 -0.19953E-04
 0.11108000E+03 -0.16472E-04
 0.11113000E+03 -0.11642E-04
 0.11118000E+03 -0.64741E-05
 0.11123000E+03 -0.21199E-05
 0.11128000E+03  0.10477E-05
 0.11133000E+03  0.36497E-05
 0.11138000E+03  0.58568E-05
 0.11143000E+03  0.77905E-05
 0.11148000E+03  0.92742E-05
 0.11153000E+03  0.96428E-05
 0.11158000E+03  0.91634E-05
 0.11163000E+03  0.83927E-05
 0.11168000E+03  0.73095E-05
 0.11173000E+03  0.57653E-05
 0.11178000E+03  0.41084E-05
 0.11183000E+03  0.31084E-05
 0.11188000E+03  0.30026E-05
 0.11193000E+03  0.31672E-05
 0.11198000E+03  0.26078E-05
 0.11203000E+03  0.11285E-05
 0.11208000E+03 -0.66784E-06
 0.11213000E+03 -0.24517E-05
 0.11218000E+03 -0.41462E-05
 0.11223000E+03 -0.57805E-05
 0.11228000E+03 -0.72763E-05
 0.11233000E+03 -0.80821E-05
 0.11238000E+03 -0.78644E-05
 0.11243000E+03 -0.66074E-05
 0.11248000E+03 -0.45100E-05
 0.11253000E+03 -0.21694E-05
 0.11258000E+03  0.15119E-06
 0.11263000E+03  0.24502E-05
 0.11268000E+03  0.47841E-05
 0.11273000E+03  0.70851E-05
 0.11278000E+03  0.87566E-05
 0.11283000E+03  0.94010E-05
 0.11288000E+03  0.90560E-05
 0.11293000E+03  0.77400E-05
 0.11298000E+03  0.57120E-05
 0.11303000E+03  0.39476E-05
 0.11308000E+03  0.34290E-05
 0.11313000E+03  0.45130E-05
 0.11318000E+03  0.67032E-05
 0.11323000E+03  0.83732E-05
 0.11328000E+03  0.80616E-05
 0.11333000E+03  0.55714E-05
 0.11338000E+03  0.20582E-05
 0.11343000E+03 -0.11996E-05
 0.11348000E+03 -0.39713E-05
 0.11353000E+03 -0.60518E-05
 0.11358000E+03 -0.71515E-05
 0.11363000E+03 -0.74709E-05
 0.11368000E+03 -0.73103E-05
 0.11373000E+03 -0.69742E-05
 0.11378000E+03 -0.67041E-05
 0.11383000E+03 -0.64256E-05
 0.11388000E+03 -0.59904E-05
 0.11393000E+03 -0.54432E-05
 0.11398000E+03 -0.47915E-05
 0.11403000E+03 -0.39372E-05
 0.11408000E+03 -0.31777E-05
 0.11413000E+03 -0.27566E-05
 0.11418000E+03 -0.23017E-05
 0.11423000E+03 -0.17084E-05
 0.11428000E+03 -0.11222E-05
 0.11433000E+03 -0.39048E-06
 0.11438000E+03  0.65322E-06
 0.11443000E+03  0.20462E-05
 0.11448000E+03  0.36066E-05
 0.11453000E+03  0.50112E-05
 0.11458000E+03  0.60165E-05
 0.11463000E+03  0.63619E-05
 0.11468000E+03  0.57154E-05
 0.11473000E+03  0.39082E-05
 0.11478000E+03  0.10669E-05
 0.11483000E+03 -0.23309E-05
 0.11488000E+03 -0.52026E-05
 0.11493000E+03 -0.66397E-05
 0.11498000E+03 -0.67881E-05
 0.11503000E+03 -0.59647E-05
 0.11508000E+03 -0.43117E-05
 0.11513000E+03 -0.21003E-05
 0.11518000E+03  0.37453E-06
 0.11523000E+03  0.22891E-05
 0.11528000E+03  0.29292E-05
 0.11533000E+03  0.28812E-05
 0.11538000E+03  0.28648E-05
 0.11543000E+03  0.27706E-05
 0.11548000E+03  0.21712E-05
 0.11553000E+03  0.52935E-06
 0.11558000E+03 -0.22017E-05
 0.11563000E+03 -0.52433E-05
 0.11568000E+03 -0.73794E-05
 0.11573000E+03 -0.79032E-05
 0.11578000E+03 -0.70540E-05
 0.11583000E+03 -0.54513E-05
 0.11588000E+03 -0.36635E-05
 0.11593000E+03 -0.16737E-05
 0.11598000E+03  0.49404E-06
 0.11603000E+03  0.26129E-05
 0.11608000E+03  0.46282E-05
 0.11613000E+03  0.63482E-05
 0.11618000E+03  0.77612E-05
 0.11623000E+03  0.86576E-05
 0.11628000E+03  0.84802E-05
 0.11633000E+03  0.70014E-05
 0.11638000E+03  0.46843E-05
 0.11643000E+03  0.25850E-05
 0.11648000E+03  0.14324E-05
 0.11653000E+03  0.10555E-05
 0.11658000E+03  0.10118E-05
 0.11663000E+03  0.10647E-05
 0.11668000E+03  0.11317E-05
 0.11673000E+03  0.11674E-05
 0.11678000E+03  0.10591E-05
 0.11683000E+03  0.75801E-06
 0.11688000E+03  0.30600E-06
 0.11693000E+03  0.34769E-07
 0.11698000E+03  0.21148E-06
 0.11703000E+03  0.71834E-06
 0.11708000E+03  0.13340E-05
 0.11713000E+03  0.14263E-05
 0.11718000E+03  0.39045E-06
 0.11723000E+03 -0.18362E-05
 0.11728000E+03 -0.44355E-05
 0.11733000E+03 -0.61028E-05
 0.11738000E+03 -0.63636E-05
 0.11743000E+03 -0.54220E-05
 0.11748000E+03 -0.37043E-05
 0.11753000E+03 -0.14532E-05
 0.11758000E+03  0.13021E-05
 0.11763000E+03  0.39740E-05
 0.11768000E+03  0.55856E-05
 0.11773000E+03  0.55409E-05
 0.11778000E+03  0.39621E-05
 0.11783000E+03  0.17819E-05
 0.11788000E+03  0.24148E-06
 0.11793000E+03 -0.39864E-06
 0.11798000E+03 -0.76734E-06
 0.11803000E+03 -0.10930E-05
 0.11808000E+03 -0.12850E-05
 0.11813000E+03 -0.12725E-05
 0.11818000E+03 -0.93223E-06
 0.11823000E+03 -0.39153E-06
 0.11828000E+03  0.57073E-07
 0.11833000E+03 -0.19112E-07
 0.11838000E+03 -0.95431E-06
 0.11843000E+03 -0.25673E-05
 0.11848000E+03 -0.45102E-05
 0.11853000E+03 -0.61539E-05
 0.11858000E+03 -0.65768E-05
 0.11863000E+03 -0.51798E-05
 0.11868000E+03 -0.18696E-05
 0.11873000E+03  0.23380E-05
 0.11878000E+03  0.56871E-05
 0.11883000E+03  0.71853E-05
 0.11888000E+03  0.66233E-05
 0.11893000E+03  0.43459E-05
 0.11898000E+03  0.12100E-05
 0.11903000E+03 -0.17942E-05
 0.11908000E+03 -0.37646E-05
 0.11913000E+03 -0.40255E-05
 0.11918000E+03 -0.22853E-05
 0.11923000E+03  0.78205E-06
 0.11928000E+03  0.37109E-05
 0.11933000E+03  0.53239E-05
 0.11938000E+03  0.53835E-05
 0.11943000E+03  0.43868E-05
 0.11948000E+03  0.29468E-05
 0.11953000E+03  0.12886E-05
 0.11958000E+03 -0.74294E-06
 0.11963000E+03 -0.30763E-05
 0.11968000E+03 -0.54386E-05
 0.11973000E+03 -0.72417E-05
 0.11978000E+03 -0.76782E-05
 0.11983000E+03 -0.68320E-05
 0.11988000E+03 -0.55181E-05
 0.11993000E+03 -0.42363E-05
 0.11998000E+03 -0.30174E-05
 0.12003000E+03 -0.19296E-05
 0.12008000E+03 -0.11820E-05
 0.12013000E+03 -0.75872E-06
 0.12018000E+03 -0.42540E-06
 0.12023000E+03 -0.36483E-07
 0.12028000E+03  0.48449E-06
 0.12033000E+03  0.13725E-05
 0.12038000E+03  0.28499E-05
 0.12043000E+03  0.45033E-05
 0.12048000E+03  0.54713E-05
 0.12053000E+03  0.54197E-05
 0.12058000E+03  0.47802E-05
 0.12063000E+03  0.44430E-05
 0.12068000E+03  0.47483E-05
 0.12073000E+03  0.53134E-05
 0.12078000E+03  0.60804E-05
 0.12083000E+03  0.70125E-05
 0.12088000E+03  0.77562E-05
 0.12093000E+03  0.78922E-05
 0.12098000E+03  0.70989E-05
 0.12103000E+03  0.54624E-05
 0.12108000E+03  0.32026E-05
 0.12113000E+03  0.53920E-06
 0.12118000E+03 -0.23127E-05
 0.12123000E+03 -0.53399E-05
 0.12128000E+03 -0.82277E-05
 0.12133000E+03 -0.10195E-04
 0.12138000E+03 -0.10495E-04
 0.12143000E+03 -0.90770E-05
 0.12148000E+03 -0.69453E-05
 0.12153000E+03 -0.52684E-05
 0.12158000E+03 -0.45516E-05
 0.12163000E+03 -0.43844E-05
 0.12168000E+03 -0.40628E-05
 0.12173000E+03 -0.31917E-05
 0.12178000E+03 -0.15505E-05
 0.12183000E+03  0.55197E-06
 0.12188000E+03  0.26242E-05
 0.12193000E+03  0.42773E-05
 0.12198000E+03  0.51669E-05
 0.12203000E+03  0.51667E-05
 0.12208000E+03  0.42087E-05
 0.12213000E+03  0.21579E-05
 0.12218000E+03 -0.79792E-06
 0.12223000E+03 -0.37042E-05
 0.12228000E+03 -0.56923E-05
 0.12233000E+03 -0.64962E-05
 0.12238000E+03 -0.62717E-05
 0.12243000E+03 -0.53227E-05
 0.12248000E+03 -0.37327E-05
 0.12253000E+03 -0.17541E-05
 0.12258000E+03  0.21314E-06
 0.12263000E+03  0.18892E-05
 0.12268000E+03  0.30446E-05
 0.12273000E+03  0.36088E-05
 0.12278000E+03  0.36875E-05
 0.12283000E+03  0.34294E-05
 0.12288000E+03  0.30722E-05
 0.12293000E+03  0.27640E-05
 0.12298000E+03  0.23459E-05
 0.12303000E+03  0.15763E-05
 0.12308000E+03  0.39829E-06
 0.12313000E+03 -0.83316E-06
 0.12318000E+03 -0.17248E-05
 0.12323000E+03 -0.21469E-05
 0.12328000E+03 -0.18795E-05
 0.12333000E+03 -0.72175E-06
 0.12338000E+03  0.10559E-05
 0.12343000E+03  0.27237E-05
 0.12348000E+03  0.37550E-05
 0.12353000E+03  0.41033E-05
 0.12358000E+03  0.38056E-05
 0.12363000E+03  0.30483E-05
 0.12368000E+03  0.22541E-05
 0.12373000E+03  0.14973E-05
 0.12378000E+03  0.59009E-06
 0.12383000E+03 -0.16191E-06
 0.12388000E+03 -0.34552E-06
 0.12393000E+03  0.68723E-07
 0.12398000E+03  0.94627E-06
 0.12403000E+03  0.20968E-05
 0.12408000E+03  0.31213E-05
 0.12413000E+03  0.36588E-05
 0.12418000E+03  0.40916E-05
 0.12423000E+03  0.48562E-05
 0.12428000E+03  0.56869E-05
 0.12433000E+03  0.59660E-05
 0.12438000E+03  0.49873E-05
 0.12443000E+03  0.24858E-05
 0.12448000E+03 -0.11609E-05
 0.12453000E+03 -0.52909E-05
 0.12458000E+03 -0.91384E-05
 0.12463000E+03 -0.11954E-04
 0.12468000E+03 -0.13487E-04
 0.12473000E+03 -0.13922E-04
 0.12478000E+03 -0.13002E-04
 0.12483000E+03 -0.10402E-04
 0.12488000E+03 -0.67228E-05
 0.12493000E+03 -0.28237E-05
 0.12498000E+03  0.94297E-06
 0.12503000E+03  0.41325E-05
 0.12508000E+03  0.65047E-05
 0.12513000E+03  0.83531E-05
 0.12518000E+03  0.95723E-05
 0.12523000E+03  0.98060E-05
 0.12528000E+03  0.90545E-05
 0.12533000E+03  0.73042E-05
 0.12538000E+03  0.46902E-05
 0.12543000E+03  0.17326E-05
 0.12548000E+03 -0.12303E-05
 0.12553000E+03 -0.38588E-05
 0.12558000E+03 -0.56984E-05
 0.12563000E+03 -0.67036E-05
 0.12568000E+03 -0.69037E-05
 0.12573000E+03 -0.64073E-05
 0.12578000E+03 -0.55988E-05
 0.12583000E+03 -0.47193E-05
 0.12588000E+03 -0.38930E-05
 0.12593000E+03 -0.29954E-05
 0.12598000E+03 -0.18004E-05
 0.12603000E+03 -0.30205E-06
 0.12608000E+03  0.13445E-05
 0.12613000E+03  0.28494E-05
 0.12618000E+03  0.39250E-05
 0.12623000E+03  0.44850E-05
 0.12628000E+03  0.47994E-05
 0.12633000E+03  0.50333E-05
 0.12638000E+03  0.50948E-05
 0.12643000E+03  0.48020E-05
 0.12648000E+03  0.39772E-05
 0.12653000E+03  0.27933E-05
 0.12658000E+03  0.15258E-05
 0.12663000E+03  0.28775E-06
 0.12668000E+03 -0.10247E-05
 0.12673000E+03 -0.25795E-05
 0.12678000E+03 -0.42451E-05
 0.12683000E+03 -0.57358E-05
 0.12688000E+03 -0.65886E-05
 0.12693000E+03 -0.63626E-05
 0.12698000E+03 -0.51567E-05
 0.12703000E+03 -0.34468E-05
 0.12708000E+03 -0.16642E-05
 0.12713000E+03 -0.10407E-06
 0.12718000E+03  0.10643E-05
 0.12723000E+03  0.19633E-05
 0.12728000E+03  0.26115E-05
 0.12733000E+03  0.30743E-05
 0.12738000E+03  0.36778E-05
 0.12743000E+03  0.45258E-05
 0.12748000E+03  0.57469E-05
 0.12753000E+03  0.72073E-05
 0.12758000E+03  0.81031E-05
 0.12763000E+03  0.76936E-05
 0.12768000E+03  0.60388E-05
 0.12773000E+03  0.37123E-05
 0.12778000E+03  0.11022E-05
 0.12783000E+03 -0.16659E-05
 0.12788000E+03 -0.44435E-05
 0.12793000E+03 -0.69024E-05
 0.12798000E+03 -0.87020E-05
 0.12803000E+03 -0.95220E-05
 0.12808000E+03 -0.93232E-05
 0.12813000E+03 -0.85112E-05
 0.12818001E+03 -0.72897E-05
 0.12823000E+03 -0.56960E-05
 0.12828000E+03 -0.38535E-05
 0.12833000E+03 -0.16826E-05
 0.12838000E+03  0.82502E-06
 0.12843001E+03  0.32542E-05
 0.12848000E+03  0.51492E-05
 0.12853000E+03  0.64456E-05
 0.12858000E+03  0.71685E-05
 0.12863000E+03  0.70951E-05
 0.12868001E+03  0.61305E-05
 0.12873000E+03  0.45821E-05
 0.12878000E+03  0.28150E-05
 0.12883000E+03  0.11829E-05
 0.12888000E+03 -0.89831E-07
 0.12893001E+03 -0.97016E-06
 0.12898000E+03 -0.14178E-05
 0.12903000E+03 -0.16260E-05
 0.12908000E+03 -0.16694E-05
 0.12913000E+03 -0.14088E-05
 0.12918001E+03 -0.89056E-06
 0.12923000E+03 -0.34588E-06
 0.12928000E+03 -0.84723E-07
 0.12933000E+03 -0.43438E-07
 0.12938000E+03  0.95469E-07
 0.12943001E+03  0.54835E-06
 0.12948000E+03  0.12735E-05
 0.12953000E+03  0.18918E-05
 0.12958000E+03  0.21296E-05
 0.12963000E+03  0.18420E-05
 0.12968001E+03  0.91667E-06
 0.12973000E+03 -0.39727E-06
 0.12978000E+03 -0.15776E-05
 0.12983000E+03 -0.21607E-05
 0.12988000E+03 -0.21563E-05
 0.12993001E+03 -0.19992E-05
 0.12998000E+03 -0.18900E-05
 0.13003000E+03 -0.18056E-05
 0.13008000E+03 -0.17500E-05
 0.13013000E+03 -0.17292E-05
 0.13018001E+03 -0.15297E-05
 0.13023000E+03 -0.90646E-06
 0.13028000E+03  0.31969E-07
 0.13033000E+03  0.10983E-05
 0.13038000E+03  0.20129E-05
 0.13043001E+03  0.24974E-05
 0.13048000E+03  0.25960E-05
 0.13053000E+03  0.25381E-05
 0.13058000E+03  0.24126E-05
 0.13063000E+03  0.21514E-05
 0.13068001E+03  0.17472E-05
 0.13073000E+03  0.11952E-05
 0.13078000E+03  0.54224E-06
 0.13083000E+03 -0.37548E-06
 0.13088000E+03 -0.17393E-05
 0.13093001E+03 -0.34210E-05
 0.13098000E+03 -0.51982E-05
 0.13103000E+03 -0.65499E-05
 0.13108000E+03 -0.69463E-05
 0.13113000E+03 -0.61056E-05
 0.13118001E+03 -0.41700E-05
 0.13123000E+03 -0.17149E-05
 0.13128000E+03  0.72265E-06
 0.13133000E+03  0.29014E-05
 0.13138000E+03  0.47392E-05
 0.13143001E+03  0.60500E-05
 0.13148000E+03  0.67558E-05
 0.13153000E+03  0.67579E-05
 0.13158000E+03  0.59293E-05
 0.13163000E+03  0.45472E-05
 0.13168001E+03  0.30412E-05
 0.13173000E+03  0.16258E-05
 0.13178000E+03  0.48450E-06
 0.13183000E+03 -0.25481E-06
 0.13188000E+03 -0.58928E-06
 0.13193001E+03 -0.68748E-06
 0.13198000E+03 -0.89231E-06
 0.13203000E+03 -0.12505E-05
 0.13208000E+03 -0.15507E-05
 0.13213000E+03 -0.17617E-05
 0.13218001E+03 -0.20384E-05
 0.13223000E+03 -0.24055E-05
 0.13228000E+03 -0.27849E-05
 0.13233000E+03 -0.29435E-05
 0.13238000E+03 -0.24995E-05
 0.13243001E+03 -0.13580E-05
 0.13248000E+03  0.15878E-06
 0.13253000E+03  0.13486E-05
 0.13258000E+03  0.17294E-05
 0.13263000E+03  0.12886E-05
 0.13268001E+03  0.12440E-06
 0.13273000E+03 -0.13757E-05
 0.13278000E+03 -0.28376E-05
 0.13283000E+03 -0.38624E-05
 0.13288000E+03 -0.39120E-05
 0.13293001E+03 -0.31739E-05
 0.13298000E+03 -0.22340E-05
 0.13303000E+03 -0.15911E-05
 0.13308000E+03 -0.15021E-05
 0.13313000E+03 -0.16650E-05
 0.13318001E+03 -0.19524E-05
 0.13323000E+03 -0.22567E-05
 0.13328000E+03 -0.23202E-05
 0.13333000E+03 -0.22315E-05
 0.13338000E+03 -0.20812E-05
 0.13343001E+03 -0.17199E-05
 0.13348000E+03 -0.72064E-06
 0.13353000E+03  0.11110E-05
 0.13358000E+03  0.33763E-05
 0.13363000E+03  0.55874E-05
 0.13368001E+03  0.74415E-05
 0.13373000E+03  0.87122E-05
 0.13378000E+03  0.86880E-05
 0.13383000E+03  0.69150E-05
 0.13388000E+03  0.44206E-05
 0.13393001E+03  0.18471E-05
 0.13398000E+03 -0.53836E-06
 0.13403000E+03 -0.17377E-05
 0.13408000E+03 -0.15734E-05
 0.13413000E+03 -0.43438E-06
 0.13418001E+03  0.74295E-06
 0.13423000E+03  0.13177E-05
 0.13428000E+03  0.16941E-05
 0.13433000E+03  0.14948E-05
 0.13438000E+03  0.70010E-06
 0.13443001E+03 -0.24641E-06
 0.13448000E+03 -0.13358E-05
 0.13453000E+03 -0.22736E-05
 0.13458000E+03 -0.27107E-05
 0.13463000E+03 -0.26839E-05
 0.13468001E+03 -0.27506E-05
 0.13473000E+03 -0.27384E-05
 0.13478000E+03 -0.25426E-05
 0.13483000E+03 -0.17714E-05
 0.13488000E+03 -0.13561E-06
 0.13493001E+03  0.12454E-05
 0.13498000E+03  0.20773E-05
 0.13503000E+03  0.20130E-05
 0.13508000E+03  0.17387E-05
 0.13513000E+03  0.16557E-05
 0.13518001E+03  0.88172E-06
 0.13523000E+03  0.28273E-06
 0.13528000E+03 -0.18235E-06
 0.13533000E+03 -0.74114E-06
 0.13538000E+03 -0.14393E-05
 0.13543001E+03 -0.21625E-05
 0.13548000E+03 -0.22092E-05
 0.13553000E+03 -0.21548E-05
 0.13558000E+03 -0.19900E-05
 0.13563000E+03 -0.16703E-05
 0.13568001E+03 -0.12842E-05
 0.13573000E+03 -0.74133E-06
 0.13578000E+03 -0.58068E-06
 0.13583000E+03 -0.87189E-06
 0.13588000E+03 -0.82101E-06
 0.13593001E+03 -0.66912E-06
 0.13598000E+03 -0.14407E-05
 0.13603000E+03 -0.20886E-05
 0.13608000E+03 -0.20860E-05
 0.13613000E+03 -0.22260E-05
 0.13618001E+03 -0.24461E-05
 0.13623000E+03 -0.22128E-05
 0.13628000E+03 -0.96831E-06
 0.13633000E+03  0.69520E-06
 0.13638000E+03  0.16861E-05
 0.13643001E+03  0.24207E-05
 0.13648000E+03  0.38017E-05
 0.13653000E+03  0.52147E-05
 0.13658000E+03  0.63631E-05
 0.13663000E+03  0.68767E-05
 0.13668001E+03  0.65780E-05
 0.13673000E+03  0.61607E-05
 0.13678000E+03  0.47770E-05
 0.13683000E+03  0.34291E-05
 0.13688000E+03  0.26249E-05
 0.13693001E+03  0.13080E-05
 0.13698000E+03  0.48282E-07
 0.13703000E+03 -0.17799E-05
 0.13708000E+03 -0.30512E-05
 0.13713000E+03 -0.31260E-05
 0.13718001E+03 -0.39249E-05
 0.13723000E+03 -0.46963E-05
 0.13728000E+03 -0.42712E-05
 0.13733000E+03 -0.35142E-05
 0.13738000E+03 -0.37037E-05
 0.13743001E+03 -0.40175E-05
 0.13748000E+03 -0.35404E-05
 0.13753000E+03 -0.28425E-05
 0.13758000E+03 -0.17640E-05
 0.13763000E+03 -0.84804E-06
 0.13768001E+03 -0.29767E-06
 0.13773000E+03  0.41655E-06
 0.13778000E+03  0.73620E-06
 0.13783000E+03  0.31282E-06
 0.13788000E+03 -0.17647E-06
 0.13793001E+03 -0.33350E-06
 0.13798000E+03 -0.82658E-06
 0.13803000E+03 -0.78980E-06
 0.13808000E+03  0.64976E-08
 0.13813000E+03  0.30348E-06
 0.13818001E+03  0.54836E-06
 0.13823000E+03  0.73686E-06
 0.13828000E+03  0.12310E-05
 0.13833000E+03  0.18926E-05
 0.13838000E+03  0.24717E-05
 0.13843001E+03  0.35928E-05
 0.13848000E+03  0.41532E-05
 0.13853000E+03  0.39346E-05
 0.13858000E+03  0.31981E-05
 0.13863000E+03  0.19143E-05
 0.13868001E+03  0.61616E-06
 0.13873000E+03 -0.25000E-06
 0.13878000E+03 -0.10314E-05
 0.13883000E+03 -0.20883E-05
 0.13888000E+03 -0.25764E-05
 0.13893001E+03 -0.28197E-05
 0.13898000E+03 -0.26357E-05
 0.13903000E+03 -0.15190E-05
 0.13908000E+03 -0.85448E-06
 0.13913000E+03 -0.70657E-06
 0.13918001E+03 -0.30410E-06
 0.13923000E+03  0.36487E-06
 0.13928000E+03  0.11309E-05
 0.13933000E+03  0.21306E-05
 0.13938000E+03  0.33956E-05
 0.13943001E+03  0.43035E-05
 0.13948000E+03  0.47871E-05
 0.13953000E+03  0.45129E-05
 0.13958000E+03  0.37627E-05
 0.13963000E+03  0.31546E-05
 0.13968001E+03  0.18940E-05
 0.13973000E+03  0.71597E-06
 0.13978000E+03  0.20939E-06
 0.13983000E+03 -0.20713E-06
 0.13988000E+03 -0.69608E-06
 0.13993001E+03 -0.13124E-05
 0.13998000E+03 -0.16978E-05
 0.14003000E+03 -0.22579E-05
 0.14008000E+03 -0.33248E-05
 0.14013000E+03 -0.44674E-05
 0.14018001E+03 -0.53544E-05
 0.14023000E+03 -0.63836E-05
 0.14028000E+03 -0.75817E-05
 0.14033000E+03 -0.79275E-05
 0.14038000E+03 -0.70873E-05
 0.14043001E+03 -0.57644E-05
 0.14048000E+03 -0.45546E-05
 0.14053000E+03 -0.30568E-05
 0.14058000E+03 -0.10193E-05
 0.14063000E+03  0.11267E-05
 0.14068001E+03  0.27408E-05
 0.14073000E+03  0.34546E-05
 0.14078000E+03  0.39933E-05
 0.14083000E+03  0.41220E-05
 0.14088000E+03  0.31823E-05
 0.14093001E+03  0.22778E-05
 0.14098000E+03  0.19553E-05
 0.14103000E+03  0.15068E-05
 0.14108000E+03  0.89681E-06
 0.14113000E+03  0.68042E-06
 0.14118001E+03  0.53069E-06
 0.14123000E+03  0.18654E-06
 0.14128000E+03  0.16965E-06
 0.14133000E+03  0.13397E-06
 0.14138000E+03 -0.13042E-06
 0.14143001E+03  0.86640E-07
 0.14148000E+03  0.38510E-06
 0.14153000E+03  0.30409E-06
 0.14158000E+03  0.64196E-06
 0.14163000E+03  0.17550E-05
 0.14168001E+03  0.31496E-05
 0.14173000E+03  0.45206E-05
 0.14178000E+03  0.52486E-05
 0.14183000E+03  0.48160E-05
 0.14188000E+03  0.36104E-05
 0.14193001E+03  0.19794E-05
 0.14198000E+03  0.12725E-06
 0.14203000E+03 -0.18944E-05
 0.14208000E+03 -0.34714E-05
 0.14213000E+03 -0.40206E-05
 0.14218001E+03 -0.44928E-05
 0.14223000E+03 -0.51927E-05
 0.14228000E+03 -0.47393E-05
 0.14233000E+03 -0.31586E-05
 0.14238000E+03 -0.18802E-05
 0.14243001E+03 -0.68241E-06
 0.14248000E+03  0.10011E-05
 0.14253000E+03  0.30260E-05
 0.14258000E+03  0.51244E-05
 0.14263000E+03  0.61128E-05
 0.14268001E+03  0.62409E-05
 0.14273000E+03  0.66816E-05
 0.14278000E+03  0.68793E-05
 0.14283000E+03  0.64516E-05
 0.14288000E+03  0.56291E-05
 0.14293001E+03  0.44937E-05
 0.14298000E+03  0.32694E-05
 0.14303000E+03  0.20076E-05
 0.14308000E+03  0.86645E-06
 0.14313000E+03 -0.81850E-07
 0.14318001E+03 -0.10514E-05
 0.14323000E+03 -0.18728E-05
 0.14328000E+03 -0.23619E-05
 0.14333000E+03 -0.27598E-05
 0.14338000E+03 -0.35441E-05
 0.14343001E+03 -0.48488E-05
 0.14348000E+03 -0.62882E-05
 0.14353000E+03 -0.71758E-05
 0.14358000E+03 -0.80750E-05
 0.14363000E+03 -0.96441E-05
 0.14368001E+03 -0.10635E-04
 0.14373000E+03 -0.10738E-04
 0.14378000E+03 -0.10458E-04
 0.14383000E+03 -0.95830E-05
 0.14388000E+03 -0.82575E-05
 0.14393001E+03 -0.65196E-05
 0.14398000E+03 -0.38772E-05
 0.14403000E+03 -0.72628E-06
 0.14408000E+03  0.23713E-05
 0.14413000E+03  0.54545E-05
 0.14418001E+03  0.75946E-05
 0.14423000E+03  0.87474E-05
 0.14428000E+03  0.94347E-05
 0.14433000E+03  0.91236E-05
 0.14438000E+03  0.84780E-05
 0.14443001E+03  0.77630E-05
 0.14448000E+03  0.68019E-05
 0.14453000E+03  0.55339E-05
 0.14458000E+03  0.36762E-05
 0.14463000E+03  0.22657E-05
 0.14468001E+03  0.12964E-05
 0.14473000E+03  0.22598E-06
 0.14478000E+03 -0.94434E-06
 0.14483000E+03 -0.22344E-05
 0.14488000E+03 -0.30653E-05
 0.14493001E+03 -0.32692E-05
 0.14498000E+03 -0.33098E-05
 0.14503000E+03 -0.33436E-05
 0.14508000E+03 -0.27055E-05
 0.14513000E+03 -0.14255E-05
 0.14518001E+03 -0.87983E-07
 0.14523000E+03  0.12374E-05
 0.14528000E+03  0.21288E-05
 0.14533000E+03  0.23897E-05
 0.14538000E+03  0.23279E-05
 0.14543001E+03  0.18747E-05
 0.14548000E+03  0.10832E-05
 0.14553000E+03  0.32592E-06
 0.14558000E+03 -0.31408E-06
 0.14563000E+03 -0.57939E-06
 0.14568001E+03 -0.14311E-06
 0.14573000E+03  0.39202E-06
 0.14578000E+03  0.82062E-06
 0.14583000E+03  0.15890E-05
 0.14588000E+03  0.19350E-05
 0.14593001E+03  0.15266E-05
 0.14598000E+03  0.77017E-06
 0.14603000E+03 -0.86840E-07
 0.14608000E+03 -0.80250E-06
 0.14613000E+03 -0.15972E-05
 0.14618001E+03 -0.20752E-05
 0.14623000E+03 -0.17578E-05
 0.14628000E+03 -0.11712E-05
 0.14633000E+03 -0.72086E-06
 0.14638000E+03 -0.41126E-06
 0.14643001E+03 -0.16845E-06
 0.14648000E+03  0.22734E-06
 0.14653000E+03  0.16159E-06
 0.14658000E+03 -0.54439E-06
 0.14663000E+03 -0.13502E-05
 0.14668001E+03 -0.26178E-05
 0.14673000E+03 -0.39674E-05
 0.14678000E+03 -0.49482E-05
 0.14683000E+03 -0.57185E-05
 0.14688000E+03 -0.58488E-05
 0.14693001E+03 -0.54976E-05
 0.14698000E+03 -0.50624E-05
 0.14703000E+03 -0.41818E-05
 0.14708000E+03 -0.30850E-05
 0.14713000E+03 -0.23736E-05
 0.14718001E+03 -0.17107E-05
 0.14723000E+03 -0.11026E-05
 0.14728000E+03 -0.76987E-06
 0.14733000E+03 -0.19540E-06
 0.14738000E+03  0.47722E-06
 0.14743001E+03  0.10605E-05
 0.14748000E+03  0.20103E-05
 0.14753000E+03  0.29543E-05
 0.14758000E+03  0.39795E-05
 0.14763000E+03  0.54547E-05
 0.14768001E+03  0.66477E-05
 0.14773000E+03  0.72576E-05
 0.14778000E+03  0.73378E-05
 0.14783000E+03  0.71413E-05
 0.14788000E+03  0.66918E-05
 0.14793001E+03  0.57434E-05
 0.14798000E+03  0.46791E-05
 0.14803000E+03  0.34570E-05
 0.14808000E+03  0.22950E-05
 0.14813000E+03  0.17927E-05
 0.14818001E+03  0.17080E-05
 0.14823000E+03  0.15918E-05
 0.14828000E+03  0.13223E-05
 0.14833000E+03  0.14369E-05
 0.14838000E+03  0.17571E-05
 0.14843001E+03  0.17250E-05
 0.14848000E+03  0.18999E-05
 0.14853000E+03  0.20555E-05
 0.14858000E+03  0.16892E-05
 0.14863000E+03  0.10426E-05
 0.14868001E+03  0.32096E-06
 0.14873000E+03 -0.40003E-06
 0.14878000E+03 -0.13822E-05
 0.14883000E+03 -0.28853E-05
 0.14888000E+03 -0.44748E-05
 0.14893001E+03 -0.56060E-05
 0.14898000E+03 -0.65465E-05
 0.14903000E+03 -0.70340E-05
 0.14908000E+03 -0.69654E-05
 0.14913000E+03 -0.66980E-05
 0.14918001E+03 -0.62846E-05
 0.14923000E+03 -0.63129E-05
 0.14928000E+03 -0.61080E-05
 0.14933000E+03 -0.51715E-05
 0.14938000E+03 -0.41804E-05
 0.14943001E+03 -0.28880E-05
 0.14948000E+03 -0.13324E-05
 0.14953000E+03  0.93726E-07
 0.14958000E+03  0.14298E-05
 0.14963000E+03  0.27280E-05
 0.14968001E+03  0.36384E-05
 0.14973000E+03  0.40936E-05
 0.14978000E+03  0.44321E-05
 0.14983000E+03  0.40706E-05
 0.14988000E+03  0.32109E-05
 0.14993001E+03  0.25924E-05
 0.14998000E+03  0.19121E-05
