 0.00000000E+00  0.36713E-02
 0.50000001E-01  0.63994E-02
 0.10000000E+00  0.62199E-02
 0.15000001E+00  0.68293E-02
 0.20000000E+00  0.55177E-02
 0.25000000E+00  0.62620E-02
 0.30000001E+00  0.61025E-02
 0.34999999E+00  0.59186E-02
 0.40000001E+00  0.59609E-02
 0.45000002E+00  0.62566E-02
 0.50000000E+00  0.51895E-02
 0.55000001E+00  0.37398E-02
 0.60000002E+00  0.36338E-02
 0.65000004E+00  0.32596E-02
 0.69999999E+00  0.22911E-02
 0.75000000E+00  0.20986E-02
 0.80000001E+00  0.21361E-02
 0.85000002E+00  0.85813E-03
 0.90000004E+00  0.56389E-03
 0.94999999E+00  0.38662E-04
 0.10000000E+01 -0.11101E-02
 0.10500001E+01 -0.16576E-02
 0.11000000E+01 -0.21186E-02
 0.11500000E+01 -0.26671E-02
 0.12000000E+01 -0.24973E-02
 0.12500000E+01 -0.18068E-02
 0.13000001E+01 -0.23867E-02
 0.13500000E+01 -0.31753E-02
 0.14000000E+01 -0.28096E-02
 0.14500000E+01 -0.24500E-02
 0.15000000E+01 -0.26987E-02
 0.15500001E+01 -0.29995E-02
 0.16000000E+01 -0.31088E-02
 0.16500000E+01 -0.29885E-02
 0.17000000E+01 -0.33264E-02
 0.17500000E+01 -0.35365E-02
 0.18000001E+01 -0.40281E-02
 0.18500000E+01 -0.51908E-02
 0.19000000E+01 -0.53229E-02
 0.19500000E+01 -0.55604E-02
 0.20000000E+01 -0.65229E-02
 0.20500000E+01 -0.52431E-02
 0.21000001E+01 -0.43889E-02
 0.21500001E+01 -0.45244E-02
 0.22000000E+01 -0.38744E-02
 0.22500000E+01 -0.26178E-02
 0.23000000E+01 -0.21083E-02
 0.23500001E+01 -0.21171E-02
 0.24000001E+01 -0.10164E-02
 0.24500000E+01 -0.61620E-03
 0.25000000E+01  0.27472E-03
 0.25500000E+01  0.62264E-03
 0.26000001E+01  0.65248E-03
 0.26500001E+01  0.15012E-02
 0.27000000E+01  0.19782E-02
 0.27500000E+01  0.22804E-02
 0.28000000E+01  0.20342E-02
 0.28500001E+01  0.25856E-02
 0.29000001E+01  0.32192E-02
 0.29500000E+01  0.17744E-02
 0.30000000E+01  0.20777E-02
 0.30500000E+01  0.33145E-02
 0.31000001E+01  0.30119E-02
 0.31500001E+01  0.23585E-02
 0.32000000E+01  0.21512E-02
 0.32500000E+01  0.24618E-02
 0.33000000E+01  0.24487E-02
 0.33500001E+01  0.20712E-02
 0.34000001E+01  0.23862E-02
 0.34500000E+01  0.22560E-02
 0.35000000E+01  0.27214E-02
 0.35500000E+01  0.26681E-02
 0.36000001E+01  0.19353E-02
 0.36500001E+01  0.31785E-02
 0.37000000E+01  0.27786E-02
 0.37500000E+01  0.27599E-02
 0.38000000E+01  0.20148E-02
 0.38500001E+01  0.25320E-02
 0.39000001E+01  0.28450E-02
 0.39500000E+01  0.15539E-02
 0.40000000E+01  0.12394E-02
 0.40500002E+01  0.65382E-03
 0.40999999E+01  0.76442E-03
 0.41500001E+01  0.43551E-03
 0.42000003E+01  0.14752E-03
 0.42500000E+01 -0.11015E-02
 0.43000002E+01 -0.10671E-02
 0.43499999E+01 -0.10827E-02
 0.44000001E+01 -0.14428E-02
 0.44500003E+01 -0.17515E-02
 0.45000000E+01 -0.13793E-02
 0.45500002E+01 -0.10831E-02
 0.45999999E+01 -0.17383E-02
 0.46500001E+01 -0.15673E-02
 0.47000003E+01 -0.13091E-02
 0.47500000E+01 -0.27655E-03
 0.48000002E+01 -0.63057E-03
 0.48499999E+01 -0.10437E-02
 0.49000001E+01 -0.87997E-03
 0.49500003E+01 -0.50213E-03
 0.50000000E+01 -0.74530E-03
 0.50500002E+01 -0.16867E-02
 0.50999999E+01 -0.13971E-02
 0.51500001E+01 -0.12973E-02
 0.52000003E+01 -0.18301E-02
 0.52500000E+01 -0.25112E-02
 0.53000002E+01 -0.20107E-02
 0.53499999E+01 -0.91842E-03
 0.54000001E+01 -0.65493E-03
 0.54500003E+01 -0.60336E-03
 0.55000000E+01  0.93377E-04
 0.55500002E+01  0.18764E-03
 0.55999999E+01 -0.94114E-03
 0.56500001E+01 -0.32917E-03
 0.57000003E+01  0.29678E-03
 0.57500000E+01 -0.40954E-03
 0.58000002E+01  0.55910E-03
 0.58499999E+01  0.10068E-02
 0.59000001E+01  0.64159E-03
 0.59500003E+01  0.17152E-02
 0.60000000E+01  0.26030E-02
 0.60500002E+01  0.17200E-02
 0.60999999E+01  0.18459E-02
 0.61500001E+01  0.28911E-02
 0.62000003E+01  0.23556E-02
 0.62500000E+01  0.23600E-02
 0.63000002E+01  0.28970E-02
 0.63499999E+01  0.21524E-02
 0.64000001E+01  0.18207E-02
 0.64500003E+01  0.20973E-02
 0.65000000E+01  0.52843E-03
 0.65500002E+01 -0.17089E-05
 0.65999999E+01  0.42504E-03
 0.66500001E+01 -0.58371E-03
 0.67000003E+01 -0.20214E-02
 0.67500000E+01 -0.19144E-02
 0.68000002E+01 -0.12209E-02
 0.68499999E+01 -0.29531E-02
 0.69000001E+01 -0.33941E-02
 0.69500003E+01 -0.26089E-02
 0.70000000E+01 -0.37428E-02
 0.70500002E+01 -0.39102E-02
 0.70999999E+01 -0.32879E-02
 0.71500001E+01 -0.34011E-02
 0.72000003E+01 -0.31748E-02
 0.72500000E+01 -0.20890E-02
 0.73000002E+01 -0.17857E-02
 0.73499999E+01 -0.11139E-02
 0.74000001E+01  0.34087E-03
 0.74500003E+01  0.35429E-03
 0.75000000E+01  0.13976E-03
 0.75500002E+01  0.13153E-02
 0.75999999E+01  0.15867E-02
 0.76500001E+01  0.10744E-02
 0.77000003E+01  0.17094E-02
 0.77500000E+01  0.15319E-02
 0.78000002E+01  0.16328E-02
 0.78499999E+01  0.20078E-02
 0.79000001E+01  0.18184E-02
 0.79500003E+01  0.14903E-02
 0.80000000E+01  0.15603E-02
 0.80500002E+01  0.13757E-02
 0.81000004E+01  0.67782E-03
 0.81500006E+01  0.11800E-02
 0.81999998E+01  0.66069E-03
 0.82500000E+01 -0.20872E-03
 0.83000002E+01  0.62990E-03
 0.83500004E+01  0.14391E-02
 0.84000006E+01  0.19053E-02
 0.84499998E+01  0.20169E-02
 0.85000000E+01  0.20944E-02
 0.85500002E+01  0.20031E-02
 0.86000004E+01  0.21076E-02
 0.86500006E+01  0.21987E-02
 0.86999998E+01  0.20788E-02
 0.87500000E+01  0.18767E-02
 0.88000002E+01  0.18687E-02
 0.88500004E+01  0.17323E-02
 0.89000006E+01  0.52198E-03
 0.89499998E+01  0.17049E-03
 0.90000000E+01 -0.46371E-03
 0.90500002E+01 -0.14966E-02
 0.91000004E+01 -0.20179E-02
 0.91500006E+01 -0.22879E-02
 0.91999998E+01 -0.29505E-02
 0.92500000E+01 -0.39115E-02
 0.93000002E+01 -0.28534E-02
 0.93500004E+01 -0.30370E-02
 0.94000006E+01 -0.33323E-02
 0.94499998E+01 -0.28575E-02
 0.95000000E+01 -0.32114E-02
 0.95500002E+01 -0.29290E-02
 0.96000004E+01 -0.18369E-02
 0.96500006E+01 -0.10214E-02
 0.96999998E+01 -0.97067E-03
 0.97500000E+01 -0.15899E-03
 0.98000002E+01 -0.46735E-03
 0.98500004E+01 -0.10598E-02
 0.99000006E+01 -0.58044E-03
 0.99499998E+01  0.22773E-03
 0.10000000E+02 -0.50226E-03
 0.10050000E+02 -0.43824E-03
 0.10100000E+02  0.29875E-03
 0.10150001E+02 -0.43215E-03
 0.10200000E+02 -0.72005E-03
 0.10250000E+02 -0.10932E-02
 0.10300000E+02 -0.61233E-03
 0.10350000E+02 -0.97606E-03
 0.10400001E+02 -0.85780E-03
 0.10450000E+02 -0.23142E-03
 0.10500000E+02 -0.47942E-03
 0.10550000E+02  0.25368E-03
 0.10600000E+02  0.59979E-03
 0.10650001E+02  0.15764E-02
 0.10700000E+02  0.17013E-02
 0.10750000E+02  0.17510E-02
 0.10800000E+02  0.20200E-02
 0.10850000E+02  0.16413E-02
 0.10900001E+02  0.19594E-02
 0.10950000E+02  0.27086E-02
 0.11000000E+02  0.22928E-02
 0.11050000E+02  0.88948E-03
 0.11100000E+02  0.20815E-02
 0.11150001E+02  0.26521E-02
 0.11200000E+02  0.23031E-02
 0.11250000E+02  0.24789E-02
 0.11300000E+02  0.31933E-02
 0.11350000E+02  0.18543E-02
 0.11400001E+02  0.49830E-03
 0.11450000E+02  0.89931E-03
 0.11500000E+02  0.29864E-03
 0.11550000E+02  0.23025E-03
 0.11600000E+02 -0.11281E-03
 0.11650001E+02  0.69313E-03
 0.11700000E+02 -0.47230E-04
 0.11750000E+02 -0.60521E-03
 0.11800000E+02 -0.50490E-03
 0.11850000E+02 -0.94686E-03
 0.11900001E+02 -0.80530E-03
 0.11950000E+02 -0.56838E-03
 0.12000000E+02 -0.33569E-03
 0.12050000E+02 -0.98621E-03
 0.12100000E+02 -0.20254E-03
 0.12150001E+02 -0.16576E-02
 0.12200000E+02 -0.19580E-02
 0.12250000E+02 -0.13855E-02
 0.12300000E+02 -0.11806E-02
 0.12350000E+02 -0.14829E-02
 0.12400001E+02 -0.15664E-02
 0.12450000E+02 -0.10555E-02
 0.12500000E+02 -0.29096E-02
 0.12550000E+02 -0.17988E-02
 0.12600000E+02 -0.18700E-02
 0.12650001E+02 -0.27414E-02
 0.12700000E+02 -0.27790E-02
 0.12750000E+02 -0.28369E-02
 0.12800000E+02 -0.30684E-02
 0.12850000E+02 -0.35157E-02
 0.12900001E+02 -0.24045E-02
 0.12950000E+02 -0.33727E-02
 0.13000000E+02 -0.40199E-02
 0.13050000E+02 -0.30056E-02
 0.13100000E+02 -0.36999E-02
 0.13150001E+02 -0.32988E-02
 0.13200000E+02 -0.25477E-02
 0.13250000E+02 -0.22588E-02
 0.13300000E+02 -0.19003E-02
 0.13350000E+02 -0.73449E-03
 0.13400001E+02 -0.55810E-03
 0.13450000E+02 -0.10618E-02
 0.13500000E+02  0.45472E-03
 0.13550000E+02  0.24720E-03
 0.13600000E+02  0.48210E-03
 0.13650001E+02  0.12473E-02
 0.13700000E+02  0.11927E-02
 0.13750000E+02  0.50663E-03
 0.13800000E+02  0.13401E-02
 0.13850000E+02  0.23364E-02
 0.13900001E+02  0.19806E-02
 0.13950000E+02  0.31688E-02
 0.14000000E+02  0.33295E-02
 0.14050000E+02  0.28475E-02
 0.14100000E+02  0.36546E-02
 0.14150001E+02  0.42207E-02
 0.14200000E+02  0.34101E-02
 0.14250000E+02  0.36943E-02
 0.14300000E+02  0.46377E-02
 0.14350000E+02  0.39228E-02
 0.14400001E+02  0.32920E-02
 0.14450000E+02  0.34537E-02
 0.14500000E+02  0.29887E-02
 0.14550000E+02  0.22219E-02
 0.14600000E+02  0.28373E-02
 0.14650001E+02  0.30977E-02
 0.14700000E+02  0.25990E-02
 0.14750000E+02  0.20001E-02
 0.14800000E+02  0.15676E-02
 0.14850000E+02  0.12273E-02
 0.14900001E+02  0.11530E-02
 0.14950000E+02  0.14487E-02
 0.15000000E+02  0.22598E-03
 0.15050000E+02 -0.55639E-03
 0.15100000E+02 -0.43991E-03
 0.15150001E+02 -0.10745E-02
 0.15200000E+02 -0.14255E-02
 0.15250000E+02 -0.12427E-02
 0.15300000E+02 -0.12292E-02
 0.15350000E+02 -0.12248E-02
 0.15400001E+02 -0.11741E-02
 0.15450000E+02 -0.13663E-02
 0.15500000E+02 -0.92443E-03
 0.15550000E+02 -0.60879E-03
 0.15600000E+02 -0.63462E-03
 0.15650001E+02 -0.59547E-03
 0.15700000E+02 -0.52018E-03
 0.15750000E+02 -0.14861E-02
 0.15800000E+02 -0.15449E-02
 0.15850000E+02 -0.66078E-03
 0.15900001E+02 -0.20373E-02
 0.15950000E+02 -0.20641E-02
 0.16000000E+02 -0.18253E-02
 0.16050001E+02 -0.24333E-02
 0.16100000E+02 -0.27091E-02
 0.16150000E+02 -0.22632E-02
 0.16200001E+02 -0.17172E-02
 0.16250000E+02 -0.30890E-02
 0.16300001E+02 -0.29174E-02
 0.16350000E+02 -0.27808E-02
 0.16400000E+02 -0.40691E-02
 0.16450001E+02 -0.40455E-02
 0.16500000E+02 -0.39145E-02
 0.16550001E+02 -0.44774E-02
 0.16600000E+02 -0.36121E-02
 0.16650000E+02 -0.24889E-02
 0.16700001E+02 -0.31280E-02
 0.16750000E+02 -0.28773E-02
 0.16800001E+02 -0.12458E-02
 0.16850000E+02 -0.82036E-03
 0.16900000E+02 -0.14684E-02
 0.16950001E+02  0.35074E-03
 0.17000000E+02  0.99718E-03
 0.17050001E+02  0.39845E-03
 0.17100000E+02  0.13281E-02
 0.17150000E+02  0.16912E-02
 0.17200001E+02  0.19145E-02
 0.17250000E+02  0.21319E-02
 0.17300001E+02  0.22117E-02
 0.17350000E+02  0.17997E-02
 0.17400000E+02  0.27248E-02
 0.17450001E+02  0.31438E-02
 0.17500000E+02  0.16272E-02
 0.17550001E+02  0.21389E-02
 0.17600000E+02  0.29552E-02
 0.17650000E+02  0.21215E-02
 0.17700001E+02  0.17631E-02
 0.17750000E+02  0.20366E-02
 0.17800001E+02  0.22197E-02
 0.17850000E+02  0.23786E-02
 0.17900000E+02  0.19386E-02
 0.17950001E+02  0.12821E-02
 0.18000000E+02  0.67478E-03
 0.18050001E+02  0.11711E-02
 0.18100000E+02  0.98586E-03
 0.18150000E+02  0.15616E-03
 0.18200001E+02  0.60825E-03
 0.18250000E+02  0.61417E-03
 0.18300001E+02 -0.56439E-04
 0.18350000E+02 -0.11196E-02
 0.18400000E+02 -0.81974E-03
 0.18450001E+02 -0.35197E-03
 0.18500000E+02 -0.15236E-03
 0.18550001E+02 -0.75650E-03
 0.18600000E+02 -0.71696E-03
 0.18650000E+02  0.52153E-03
 0.18700001E+02  0.54129E-03
 0.18750000E+02 -0.49147E-03
 0.18800001E+02 -0.52006E-03
 0.18850000E+02  0.76392E-03
 0.18900000E+02  0.98945E-03
 0.18950001E+02  0.74715E-04
 0.19000000E+02 -0.27513E-03
 0.19050001E+02  0.36749E-04
 0.19100000E+02  0.66173E-03
 0.19150000E+02  0.34122E-03
 0.19200001E+02 -0.61465E-03
 0.19250000E+02 -0.17366E-03
 0.19300001E+02  0.27595E-04
 0.19350000E+02 -0.54935E-03
 0.19400000E+02 -0.11435E-02
 0.19450001E+02 -0.53329E-03
 0.19500000E+02 -0.21255E-03
 0.19550001E+02 -0.49882E-03
 0.19600000E+02 -0.10441E-02
 0.19650000E+02 -0.88719E-03
 0.19700001E+02 -0.44585E-04
 0.19750000E+02 -0.59061E-03
 0.19800001E+02 -0.10672E-02
 0.19850000E+02 -0.93175E-03
 0.19900000E+02 -0.30896E-03
 0.19950001E+02 -0.89102E-03
 0.20000000E+02 -0.10469E-02
 0.20050001E+02 -0.32474E-03
 0.20100000E+02  0.20480E-03
 0.20150000E+02  0.11027E-02
 0.20200001E+02  0.95289E-03
 0.20250000E+02  0.12309E-02
 0.20300001E+02  0.18547E-02
 0.20350000E+02  0.19684E-02
 0.20400000E+02  0.85931E-03
 0.20450001E+02  0.34556E-03
 0.20500000E+02  0.44691E-03
 0.20550001E+02 -0.68473E-03
 0.20600000E+02 -0.14242E-02
 0.20650000E+02 -0.95009E-03
 0.20700001E+02 -0.11276E-02
 0.20750000E+02 -0.17835E-02
 0.20800001E+02 -0.17261E-02
 0.20850000E+02 -0.21519E-02
 0.20900000E+02 -0.21917E-02
 0.20950001E+02 -0.16197E-02
 0.21000000E+02 -0.11974E-02
 0.21050001E+02 -0.16057E-02
 0.21100000E+02 -0.13135E-02
 0.21150000E+02  0.17849E-03
 0.21200001E+02 -0.69262E-03
 0.21250000E+02 -0.13324E-02
 0.21300001E+02 -0.67677E-03
 0.21350000E+02 -0.35289E-03
 0.21400000E+02 -0.60933E-03
 0.21450001E+02 -0.10253E-02
 0.21500000E+02 -0.11105E-02
 0.21550001E+02 -0.17073E-02
 0.21600000E+02 -0.10367E-02
 0.21650000E+02 -0.13589E-02
 0.21700001E+02 -0.21571E-02
 0.21750000E+02 -0.10705E-02
 0.21800001E+02  0.35893E-03
 0.21850000E+02 -0.28113E-03
 0.21900000E+02 -0.50695E-03
 0.21950001E+02  0.30051E-03
 0.22000000E+02  0.79210E-03
 0.22050001E+02  0.34109E-03
 0.22100000E+02  0.13378E-02
 0.22150000E+02  0.26181E-02
 0.22200001E+02  0.16313E-02
 0.22250000E+02  0.17330E-02
 0.22300001E+02  0.13093E-02
 0.22350000E+02  0.45516E-03
 0.22400000E+02  0.16160E-02
 0.22450001E+02  0.31720E-02
 0.22500000E+02  0.19330E-02
 0.22550001E+02  0.10152E-02
 0.22600000E+02  0.11393E-02
 0.22650000E+02  0.15817E-02
 0.22700001E+02  0.16075E-02
 0.22750000E+02  0.13656E-02
 0.22800001E+02  0.10801E-02
 0.22850000E+02  0.95796E-03
 0.22900000E+02 -0.14834E-03
 0.22950001E+02 -0.14069E-02
 0.23000000E+02 -0.37808E-03
 0.23050001E+02 -0.26038E-03
 0.23100000E+02 -0.71242E-03
 0.23150000E+02 -0.91403E-03
 0.23200001E+02 -0.19112E-02
 0.23250000E+02 -0.21468E-02
 0.23300001E+02 -0.18402E-02
 0.23350000E+02 -0.15718E-02
 0.23400000E+02 -0.77572E-03
 0.23450001E+02 -0.79385E-03
 0.23500000E+02 -0.91519E-03
 0.23550001E+02 -0.10973E-02
 0.23600000E+02 -0.10661E-02
 0.23650000E+02 -0.12955E-02
 0.23700001E+02 -0.11882E-02
 0.23750000E+02 -0.32083E-03
 0.23800001E+02 -0.81908E-03
 0.23850000E+02 -0.12830E-02
 0.23900000E+02 -0.10102E-02
 0.23950001E+02 -0.11039E-02
 0.24000000E+02 -0.84787E-03
 0.24050001E+02 -0.30464E-03
 0.24100000E+02 -0.61405E-05
 0.24150000E+02  0.51016E-03
 0.24200001E+02  0.59706E-03
 0.24250000E+02  0.12124E-03
 0.24300001E+02 -0.55206E-03
 0.24350000E+02 -0.13168E-03
 0.24400000E+02  0.70622E-03
 0.24450001E+02  0.84247E-04
 0.24500000E+02  0.80489E-03
 0.24550001E+02  0.17181E-02
 0.24600000E+02  0.14809E-02
 0.24650000E+02  0.70771E-03
 0.24700001E+02  0.98809E-03
 0.24750000E+02  0.19906E-02
 0.24800001E+02  0.81331E-03
 0.24850000E+02  0.13269E-02
 0.24900000E+02  0.12927E-02
 0.24950001E+02  0.34618E-03
 0.25000000E+02  0.15806E-03
 0.25050001E+02  0.34193E-04
 0.25100000E+02 -0.20735E-03
 0.25150000E+02 -0.40679E-03
 0.25200001E+02  0.70644E-03
 0.25250000E+02  0.25629E-04
 0.25300001E+02 -0.75434E-03
 0.25350000E+02 -0.39268E-03
 0.25400000E+02 -0.42415E-03
 0.25450001E+02 -0.15567E-02
 0.25500000E+02 -0.14498E-02
 0.25550001E+02 -0.93434E-03
 0.25600000E+02 -0.19728E-02
 0.25650000E+02 -0.17295E-02
 0.25700001E+02 -0.17867E-02
 0.25750000E+02 -0.23106E-02
 0.25800001E+02 -0.21441E-02
 0.25850000E+02 -0.12161E-02
 0.25900000E+02 -0.10375E-02
 0.25950001E+02 -0.14877E-02
 0.26000000E+02 -0.83040E-03
 0.26050001E+02 -0.55731E-03
 0.26100000E+02 -0.74187E-03
 0.26150000E+02 -0.21968E-03
 0.26200001E+02  0.13476E-02
 0.26250000E+02  0.13183E-02
 0.26300001E+02  0.17832E-02
 0.26350000E+02  0.25228E-02
 0.26400000E+02  0.21881E-02
 0.26450001E+02  0.19327E-02
 0.26500000E+02  0.23175E-02
 0.26550001E+02  0.26369E-02
 0.26600000E+02  0.20937E-02
 0.26650000E+02  0.31201E-02
 0.26700001E+02  0.25638E-02
 0.26750000E+02  0.18294E-02
 0.26800001E+02  0.21516E-02
 0.26850000E+02  0.23173E-02
 0.26900000E+02  0.17685E-02
 0.26950001E+02  0.14394E-02
 0.27000000E+02  0.21651E-02
 0.27050001E+02  0.13779E-02
 0.27100000E+02  0.11634E-03
 0.27150000E+02  0.45549E-03
 0.27200001E+02  0.83446E-03
 0.27250000E+02 -0.29204E-03
 0.27300001E+02  0.24653E-03
 0.27350000E+02 -0.58751E-03
 0.27400000E+02 -0.14666E-02
 0.27450001E+02 -0.22069E-02
 0.27500000E+02 -0.33933E-02
 0.27550001E+02 -0.42301E-02
 0.27600000E+02 -0.51901E-02
 0.27650000E+02 -0.37621E-02
 0.27700001E+02 -0.44100E-02
 0.27750000E+02 -0.44964E-02
 0.27800001E+02 -0.36694E-02
 0.27850000E+02 -0.36797E-02
 0.27900000E+02 -0.33564E-02
 0.27950001E+02 -0.26915E-02
 0.28000000E+02 -0.15291E-02
 0.28050001E+02 -0.24249E-02
 0.28100000E+02 -0.19656E-02
 0.28150000E+02 -0.13823E-02
 0.28200001E+02 -0.20026E-02
 0.28250000E+02 -0.16350E-02
 0.28300001E+02 -0.94654E-03
 0.28350000E+02 -0.10103E-02
 0.28400000E+02 -0.10322E-02
 0.28450001E+02 -0.49294E-03
 0.28500000E+02 -0.12297E-02
 0.28550001E+02 -0.12069E-02
 0.28600000E+02 -0.10076E-02
 0.28650000E+02 -0.93165E-03
 0.28700001E+02 -0.10154E-02
 0.28750000E+02  0.29070E-04
 0.28800001E+02  0.13052E-03
 0.28850000E+02 -0.44555E-03
 0.28900000E+02  0.26533E-03
 0.28950001E+02  0.56959E-03
 0.29000000E+02  0.76704E-03
 0.29050001E+02  0.10018E-02
 0.29100000E+02  0.13129E-02
 0.29150000E+02  0.64352E-03
 0.29200001E+02  0.91966E-03
 0.29250000E+02  0.11130E-02
 0.29300001E+02  0.99923E-03
 0.29350000E+02  0.91290E-03
 0.29400000E+02  0.10860E-02
 0.29450001E+02  0.12812E-02
 0.29500000E+02  0.14615E-02
 0.29550001E+02  0.19121E-02
 0.29600000E+02  0.18148E-02
 0.29650000E+02  0.24266E-02
 0.29700001E+02  0.32252E-02
 0.29750000E+02  0.28047E-02
 0.29800001E+02  0.18329E-02
 0.29850000E+02  0.27248E-02
 0.29900000E+02  0.34871E-02
 0.29950001E+02  0.27985E-02
 0.30000000E+02  0.29028E-02
 0.30050001E+02  0.30322E-02
 0.30100000E+02  0.17930E-02
 0.30150000E+02  0.79470E-03
 0.30200001E+02  0.73261E-03
 0.30250000E+02  0.51494E-03
 0.30300001E+02  0.36296E-03
 0.30350000E+02  0.38045E-03
 0.30400000E+02 -0.40482E-03
 0.30450001E+02 -0.10508E-02
 0.30500000E+02 -0.10722E-02
 0.30550001E+02 -0.11848E-02
 0.30600000E+02 -0.14720E-02
 0.30650000E+02 -0.14964E-02
 0.30700001E+02 -0.17188E-02
 0.30750000E+02 -0.20669E-02
 0.30800001E+02 -0.17298E-02
 0.30850000E+02 -0.21775E-02
 0.30900000E+02 -0.21955E-02
 0.30950001E+02 -0.25739E-02
 0.31000000E+02 -0.28279E-02
 0.31050001E+02 -0.22279E-02
 0.31100000E+02 -0.24331E-02
 0.31150000E+02 -0.25758E-02
 0.31200001E+02 -0.23512E-02
 0.31250000E+02 -0.17061E-02
 0.31300001E+02 -0.22427E-02
 0.31350000E+02 -0.24062E-02
 0.31400000E+02 -0.16452E-02
 0.31450001E+02 -0.13910E-02
 0.31500000E+02 -0.98760E-03
 0.31550001E+02  0.16117E-03
 0.31600000E+02  0.34095E-03
 0.31650000E+02 -0.47944E-04
 0.31700001E+02  0.37877E-03
 0.31750000E+02  0.16532E-03
 0.31800001E+02  0.20034E-03
 0.31850000E+02  0.24851E-03
 0.31900000E+02  0.13690E-02
 0.31950001E+02  0.16751E-02
 0.32000000E+02  0.82284E-03
 0.32049999E+02  0.92250E-03
 0.32100002E+02  0.78006E-03
 0.32150002E+02  0.12301E-02
 0.32200001E+02  0.11212E-02
 0.32250000E+02  0.17440E-02
 0.32299999E+02  0.20432E-02
 0.32350002E+02  0.18699E-02
 0.32400002E+02  0.25619E-02
 0.32450001E+02  0.17904E-02
 0.32500000E+02  0.30825E-02
 0.32549999E+02  0.49819E-02
 0.32600002E+02  0.40026E-02
 0.32650002E+02  0.26327E-02
 0.32700001E+02  0.26542E-02
 0.32750000E+02  0.21955E-02
 0.32799999E+02  0.10061E-02
 0.32850002E+02 -0.28777E-04
 0.32900002E+02 -0.11611E-02
 0.32950001E+02 -0.23180E-02
 0.33000000E+02 -0.17800E-02
 0.33049999E+02 -0.16184E-02
 0.33100002E+02 -0.26675E-02
 0.33150002E+02 -0.16684E-02
 0.33200001E+02  0.75434E-03
 0.33250000E+02  0.23379E-02
 0.33299999E+02  0.33717E-02
 0.33350002E+02  0.56766E-02
 0.33400002E+02  0.52847E-02
 0.33450001E+02  0.43428E-02
 0.33500000E+02  0.64073E-02
 0.33549999E+02  0.85671E-02
 0.33600002E+02  0.98241E-02
 0.33650002E+02  0.13498E-01
 0.33700001E+02  0.15296E-01
 0.33750000E+02  0.14931E-01
 0.33799999E+02  0.14740E-01
 0.33850002E+02  0.11295E-01
 0.33900002E+02  0.95305E-02
 0.33950001E+02  0.93071E-02
 0.34000000E+02  0.99251E-02
 0.34049999E+02  0.88917E-02
 0.34100002E+02  0.70565E-02
 0.34150002E+02  0.90148E-02
 0.34200001E+02  0.10009E-01
 0.34250000E+02  0.11048E-01
 0.34299999E+02  0.72479E-02
 0.34350002E+02  0.10572E-02
 0.34400002E+02 -0.29762E-02
 0.34450001E+02 -0.28937E-02
 0.34500000E+02 -0.15071E-03
 0.34549999E+02 -0.64751E-02
 0.34600002E+02 -0.14595E-02
 0.34650002E+02 -0.12165E-03
 0.34700001E+02 -0.10491E-01
 0.34750000E+02 -0.21610E-02
 0.34799999E+02  0.10401E-01
 0.34850002E+02  0.86252E-02
 0.34900002E+02  0.96106E-02
 0.34950001E+02  0.11422E-01
 0.35000000E+02  0.84935E-02
 0.35049999E+02  0.18709E-01
 0.35100002E+02  0.22677E-01
 0.35150002E+02  0.53916E-02
 0.35200001E+02 -0.15466E-01
 0.35250000E+02 -0.25809E-01
 0.35299999E+02 -0.28542E-01
 0.35350002E+02 -0.32553E-01
 0.35400002E+02 -0.43414E-01
 0.35450001E+02 -0.54302E-01
 0.35500000E+02 -0.68812E-01
 0.35549999E+02 -0.51064E-01
 0.35600002E+02 -0.19865E-01
 0.35650002E+02 -0.31994E-01
 0.35700001E+02 -0.38878E-01
 0.35750000E+02 -0.19973E-01
 0.35799999E+02  0.22627E-01
 0.35850002E+02  0.31955E-01
 0.35900002E+02  0.35114E-02
 0.35950001E+02  0.12734E-01
 0.36000000E+02  0.36709E-01
 0.36049999E+02  0.33624E-01
 0.36100002E+02 -0.21217E-03
 0.36150002E+02 -0.37331E-01
 0.36200001E+02 -0.56019E-01
 0.36250000E+02 -0.34499E-01
 0.36299999E+02 -0.13452E-01
 0.36350002E+02 -0.16168E-01
 0.36400002E+02 -0.21573E-01
 0.36450001E+02 -0.20059E-01
 0.36500000E+02  0.81338E-02
 0.36549999E+02  0.17338E-01
 0.36600002E+02  0.15306E-01
 0.36650002E+02  0.30886E-01
 0.36700001E+02  0.38393E-01
 0.36750000E+02  0.51443E-01
 0.36799999E+02  0.47733E-01
 0.36850002E+02  0.25613E-01
 0.36900002E+02  0.83774E-02
 0.36950001E+02 -0.37521E-02
 0.37000000E+02 -0.27526E-02
 0.37049999E+02 -0.23486E-01
 0.37100002E+02 -0.53552E-01
 0.37150002E+02 -0.22791E-01
 0.37200001E+02  0.27291E-01
 0.37250000E+02  0.25846E-01
 0.37299999E+02  0.23706E-01
 0.37350002E+02  0.39523E-01
 0.37400002E+02  0.35455E-01
 0.37450001E+02  0.18138E-01
 0.37500000E+02 -0.13965E-02
 0.37549999E+02  0.39344E-02
 0.37600002E+02  0.23470E-01
 0.37650002E+02  0.30782E-01
 0.37700001E+02  0.31358E-01
 0.37750000E+02  0.10608E-01
 0.37799999E+02  0.13735E-01
 0.37850002E+02  0.29411E-01
 0.37900002E+02  0.31012E-01
 0.37950001E+02  0.49955E-01
 0.38000000E+02  0.60276E-01
 0.38049999E+02  0.44297E-01
 0.38100002E+02  0.52527E-02
 0.38150002E+02 -0.60763E-02
 0.38200001E+02  0.11811E-01
 0.38250000E+02 -0.27933E-02
 0.38299999E+02 -0.27719E-01
 0.38350002E+02 -0.46303E-01
 0.38400002E+02 -0.50440E-01
 0.38450001E+02 -0.51976E-01
 0.38500000E+02 -0.65217E-01
 0.38549999E+02 -0.72177E-01
 0.38600002E+02 -0.72923E-01
 0.38650002E+02 -0.64675E-01
 0.38700001E+02 -0.72479E-02
 0.38750000E+02  0.75998E-01
 0.38799999E+02  0.90093E-01
 0.38850002E+02  0.90825E-01
 0.38900002E+02  0.12140E+00
 0.38950001E+02  0.11191E+00
 0.39000000E+02  0.76090E-01
 0.39049999E+02  0.16154E-01
 0.39100002E+02 -0.38873E-01
 0.39150002E+02 -0.34180E-01
 0.39200001E+02 -0.40595E-01
 0.39250000E+02 -0.77316E-01
 0.39299999E+02 -0.10432E+00
 0.39350002E+02 -0.11297E+00
 0.39400002E+02 -0.10815E+00
 0.39450001E+02 -0.11346E+00
 0.39500000E+02 -0.11477E+00
 0.39549999E+02 -0.73080E-01
 0.39600002E+02 -0.29050E-01
 0.39650002E+02 -0.22098E-01
 0.39700001E+02  0.16391E-01
 0.39750000E+02  0.72338E-01
 0.39799999E+02  0.10392E+00
 0.39850002E+02  0.10520E+00
 0.39900002E+02  0.57305E-01
 0.39950001E+02  0.39648E-01
 0.40000000E+02  0.78041E-01
 0.40049999E+02  0.94667E-01
 0.40100002E+02  0.53780E-01
 0.40150002E+02  0.71824E-02
 0.40200001E+02 -0.11423E-01
 0.40250000E+02 -0.28108E-01
 0.40299999E+02 -0.64040E-01
 0.40350002E+02 -0.90596E-01
 0.40400002E+02 -0.60285E-01
 0.40450001E+02 -0.66871E-02
 0.40500000E+02  0.10560E-01
 0.40549999E+02  0.10574E-01
 0.40600002E+02  0.68952E-02
 0.40650002E+02 -0.22321E-01
 0.40700001E+02 -0.55835E-01
 0.40750000E+02 -0.62838E-01
 0.40799999E+02 -0.24508E-01
 0.40850002E+02  0.31105E-01
 0.40900002E+02  0.80042E-01
 0.40950001E+02  0.12662E+00
 0.41000000E+02  0.15483E+00
 0.41049999E+02  0.11457E+00
 0.41100002E+02  0.24143E-01
 0.41150002E+02 -0.27295E-01
 0.41200001E+02 -0.31618E-01
 0.41250000E+02 -0.46427E-01
 0.41299999E+02 -0.45143E-01
 0.41350002E+02 -0.22055E-01
 0.41400002E+02 -0.74470E-02
 0.41450001E+02  0.21146E-01
 0.41500000E+02  0.30014E-01
 0.41549999E+02 -0.21626E-02
 0.41600002E+02 -0.46651E-01
 0.41650002E+02 -0.71654E-01
 0.41700001E+02 -0.10311E+00
 0.41750000E+02 -0.17362E+00
 0.41799999E+02 -0.23298E+00
 0.41850002E+02 -0.23847E+00
 0.41900002E+02 -0.20090E+00
 0.41950001E+02 -0.13864E+00
 0.42000000E+02 -0.74524E-01
 0.42049999E+02 -0.26832E-01
 0.42100002E+02  0.13643E-01
 0.42150002E+02  0.96737E-01
 0.42200001E+02  0.19182E+00
 0.42250000E+02  0.22220E+00
 0.42299999E+02  0.18296E+00
 0.42350002E+02  0.11730E+00
 0.42400002E+02  0.63115E-01
 0.42450001E+02 -0.23453E-02
 0.42500000E+02 -0.71468E-01
 0.42549999E+02 -0.99043E-01
 0.42600002E+02 -0.62919E-01
 0.42650002E+02  0.69266E-02
 0.42700001E+02  0.34750E-01
 0.42750000E+02 -0.66849E-02
 0.42799999E+02 -0.88557E-01
 0.42850002E+02 -0.13818E+00
 0.42900002E+02 -0.10592E+00
 0.42950001E+02 -0.24241E-01
 0.43000000E+02  0.77659E-01
 0.43049999E+02  0.15949E+00
 0.43100002E+02  0.20915E+00
 0.43150002E+02  0.21227E+00
 0.43200001E+02  0.17885E+00
 0.43250000E+02  0.98992E-01
 0.43299999E+02 -0.48247E-01
 0.43350002E+02 -0.15923E+00
 0.43400002E+02 -0.17849E+00
 0.43450001E+02 -0.12403E+00
 0.43500000E+02 -0.42290E-01
 0.43549999E+02  0.40532E-01
 0.43600002E+02  0.10429E+00
 0.43650002E+02  0.12396E+00
 0.43700001E+02  0.79132E-01
 0.43750000E+02 -0.25802E-01
 0.43799999E+02 -0.99127E-01
 0.43850002E+02 -0.11263E+00
 0.43900002E+02 -0.97356E-01
 0.43950001E+02 -0.56003E-01
 0.44000000E+02 -0.17428E-01
 0.44049999E+02 -0.71682E-02
 0.44100002E+02 -0.15294E-01
 0.44150002E+02 -0.18311E-01
 0.44200001E+02  0.82596E-02
 0.44250000E+02  0.40161E-01
 0.44299999E+02  0.69362E-01
 0.44350002E+02  0.76971E-01
 0.44400002E+02  0.55945E-01
 0.44450001E+02  0.30424E-01
 0.44500000E+02 -0.12716E-01
 0.44549999E+02 -0.52787E-01
 0.44600002E+02 -0.89718E-01
 0.44650002E+02 -0.97508E-01
 0.44700001E+02 -0.61823E-01
 0.44750000E+02  0.21895E-02
 0.44799999E+02  0.60303E-01
 0.44850002E+02  0.75487E-01
 0.44900002E+02  0.54777E-01
 0.44950001E+02  0.12560E-01
 0.45000000E+02 -0.29841E-01
 0.45049999E+02 -0.79113E-01
 0.45100002E+02 -0.12687E+00
 0.45150002E+02 -0.14896E+00
 0.45200001E+02 -0.12335E+00
 0.45250000E+02 -0.65462E-01
 0.45299999E+02  0.10382E-01
 0.45350002E+02  0.86969E-01
 0.45400002E+02  0.14773E+00
 0.45450001E+02  0.18184E+00
 0.45500000E+02  0.17186E+00
 0.45549999E+02  0.12625E+00
 0.45600002E+02  0.39493E-01
 0.45650002E+02 -0.52373E-01
 0.45700001E+02 -0.10140E+00
 0.45750000E+02 -0.11280E+00
 0.45799999E+02 -0.11263E+00
 0.45850002E+02 -0.10082E+00
 0.45900002E+02 -0.71586E-01
 0.45950001E+02 -0.15486E-01
 0.46000000E+02  0.44020E-01
 0.46049999E+02  0.63973E-01
 0.46100002E+02  0.72168E-01
 0.46150002E+02  0.69925E-01
 0.46200001E+02  0.66076E-01
 0.46250000E+02  0.97033E-01
 0.46299999E+02  0.13497E+00
 0.46350002E+02  0.13439E+00
 0.46400002E+02  0.10061E+00
 0.46450001E+02  0.33543E-01
 0.46500000E+02 -0.52750E-01
 0.46549999E+02 -0.11248E+00
 0.46600002E+02 -0.14455E+00
 0.46650002E+02 -0.12836E+00
 0.46700001E+02 -0.68147E-01
 0.46750000E+02  0.15666E-01
 0.46799999E+02  0.12242E+00
 0.46850002E+02  0.16316E+00
 0.46900002E+02  0.14757E+00
 0.46950001E+02  0.12024E+00
 0.47000000E+02  0.48143E-01
 0.47049999E+02 -0.31894E-01
 0.47100002E+02 -0.13105E+00
 0.47150002E+02 -0.20601E+00
 0.47200001E+02 -0.20226E+00
 0.47250000E+02 -0.17465E+00
 0.47299999E+02 -0.11096E+00
 0.47350002E+02  0.76054E-02
 0.47400002E+02  0.12529E+00
 0.47450001E+02  0.15878E+00
 0.47500000E+02  0.10626E+00
 0.47549999E+02  0.38523E-01
 0.47600002E+02 -0.18171E-01
 0.47650002E+02 -0.42668E-01
 0.47700001E+02 -0.51072E-01
 0.47750000E+02 -0.57326E-01
 0.47799999E+02 -0.48370E-01
 0.47850002E+02 -0.41400E-01
 0.47900002E+02 -0.19503E-01
 0.47950001E+02  0.17262E-01
 0.48000000E+02  0.25056E-01
 0.48049999E+02  0.17616E-01
 0.48100002E+02  0.27827E-01
 0.48150002E+02  0.64116E-01
 0.48200001E+02  0.10529E+00
 0.48250000E+02  0.13399E+00
 0.48299999E+02  0.13915E+00
 0.48350002E+02  0.94275E-01
 0.48400002E+02  0.12160E-01
 0.48450001E+02 -0.64510E-01
 0.48500000E+02 -0.10449E+00
 0.48549999E+02 -0.11156E+00
 0.48600002E+02 -0.81960E-01
 0.48650002E+02 -0.42840E-02
 0.48700001E+02  0.98275E-01
 0.48750000E+02  0.14525E+00
 0.48799999E+02  0.90241E-01
 0.48850002E+02  0.79937E-02
 0.48900002E+02 -0.50244E-01
 0.48950001E+02 -0.10642E+00
 0.49000000E+02 -0.13657E+00
 0.49049999E+02 -0.94064E-01
 0.49100002E+02 -0.14052E-01
 0.49150002E+02  0.43491E-01
 0.49200001E+02  0.89057E-01
 0.49250000E+02  0.12850E+00
 0.49299999E+02  0.13968E+00
 0.49350002E+02  0.89698E-01
 0.49400002E+02 -0.41589E-03
 0.49450001E+02 -0.63479E-01
 0.49500000E+02 -0.99623E-01
 0.49549999E+02 -0.12946E+00
 0.49600002E+02 -0.15288E+00
 0.49650002E+02 -0.17031E+00
 0.49700001E+02 -0.17138E+00
 0.49750000E+02 -0.15173E+00
 0.49799999E+02 -0.10346E+00
 0.49850002E+02 -0.23555E-01
 0.49900002E+02  0.44061E-01
 0.49950001E+02  0.88777E-01
 0.50000000E+02  0.13721E+00
 0.50049999E+02  0.17211E+00
 0.50100002E+02  0.17468E+00
 0.50150002E+02  0.14332E+00
 0.50200001E+02  0.82761E-01
 0.50250000E+02  0.18111E-01
 0.50299999E+02 -0.50528E-01
 0.50350002E+02 -0.13308E+00
 0.50400002E+02 -0.21630E+00
 0.50450001E+02 -0.25034E+00
 0.50500000E+02 -0.21711E+00
 0.50549999E+02 -0.14862E+00
 0.50600002E+02 -0.52171E-01
 0.50650002E+02  0.55715E-01
 0.50700001E+02  0.16092E+00
 0.50750000E+02  0.24395E+00
 0.50799999E+02  0.28047E+00
 0.50850002E+02  0.24476E+00
 0.50900002E+02  0.15052E+00
 0.50950001E+02  0.68902E-01
 0.51000000E+02  0.16777E-01
 0.51049999E+02 -0.19065E-01
 0.51100002E+02 -0.45688E-01
 0.51150002E+02 -0.73384E-01
 0.51200001E+02 -0.11476E+00
 0.51250000E+02 -0.13683E+00
 0.51299999E+02 -0.11617E+00
 0.51350002E+02 -0.76716E-01
 0.51400002E+02 -0.22419E-01
 0.51450001E+02  0.19833E-01
 0.51500000E+02  0.52680E-01
 0.51549999E+02  0.65270E-01
 0.51600002E+02  0.34865E-01
 0.51650002E+02 -0.27711E-02
 0.51700001E+02 -0.46579E-01
 0.51750000E+02 -0.79291E-01
 0.51799999E+02 -0.78472E-01
 0.51850002E+02 -0.57185E-01
 0.51900002E+02 -0.65103E-02
 0.51950001E+02  0.46243E-01
 0.52000000E+02  0.10085E+00
 0.52049999E+02  0.13103E+00
 0.52100002E+02  0.90740E-01
 0.52150002E+02  0.13636E-01
 0.52200001E+02 -0.72572E-01
 0.52250000E+02 -0.11636E+00
 0.52299999E+02 -0.12942E+00
 0.52350002E+02 -0.12779E+00
 0.52400002E+02 -0.87076E-01
 0.52450001E+02 -0.29411E-01
 0.52500000E+02  0.29010E-01
 0.52549999E+02  0.45489E-01
 0.52600002E+02  0.21160E-01
 0.52650002E+02  0.10744E-01
 0.52700001E+02  0.10062E-01
 0.52750000E+02  0.19114E-01
 0.52799999E+02  0.49121E-01
 0.52850002E+02  0.86395E-01
 0.52900002E+02  0.11644E+00
 0.52950001E+02  0.11811E+00
 0.53000000E+02  0.81960E-01
 0.53049999E+02  0.38201E-01
 0.53100002E+02  0.22165E-02
 0.53150002E+02 -0.22584E-01
 0.53200001E+02 -0.21489E-01
 0.53250000E+02 -0.22149E-02
 0.53299999E+02  0.34603E-01
 0.53350002E+02  0.72995E-01
 0.53400002E+02  0.80383E-01
 0.53450001E+02  0.56962E-01
 0.53500000E+02  0.25251E-01
 0.53549999E+02  0.64864E-03
 0.53600002E+02  0.82935E-03
 0.53650002E+02 -0.15013E-01
 0.53700001E+02 -0.72097E-01
 0.53750000E+02 -0.13709E+00
 0.53799999E+02 -0.16315E+00
 0.53850002E+02 -0.12441E+00
 0.53900002E+02 -0.67328E-01
 0.53950001E+02 -0.12513E-01
 0.54000000E+02  0.31925E-01
 0.54049999E+02  0.50857E-01
 0.54100002E+02  0.25447E-01
 0.54150002E+02 -0.40667E-01
 0.54200001E+02 -0.10312E+00
 0.54250000E+02 -0.12892E+00
 0.54299999E+02 -0.94118E-01
 0.54350002E+02 -0.33076E-01
 0.54400002E+02  0.16704E-01
 0.54450001E+02  0.53072E-01
 0.54500000E+02  0.76492E-01
 0.54549999E+02  0.93248E-01
 0.54600002E+02  0.10767E+00
 0.54650002E+02  0.96554E-01
 0.54700001E+02  0.40495E-01
 0.54750000E+02 -0.24382E-01
 0.54799999E+02 -0.70035E-01
 0.54850002E+02 -0.10116E+00
 0.54900002E+02 -0.11441E+00
 0.54950001E+02 -0.98366E-01
 0.55000000E+02 -0.74140E-01
 0.55049999E+02 -0.48151E-01
 0.55100002E+02 -0.40938E-01
 0.55150002E+02 -0.50349E-01
 0.55200001E+02 -0.44355E-01
 0.55250000E+02 -0.46216E-01
 0.55299999E+02 -0.53276E-01
 0.55350002E+02 -0.33609E-01
 0.55400002E+02 -0.29736E-01
 0.55450001E+02 -0.50798E-01
 0.55500000E+02 -0.63336E-01
 0.55549999E+02 -0.42873E-01
 0.55600002E+02 -0.20906E-02
 0.55650002E+02  0.23820E-01
 0.55700001E+02  0.66733E-01
 0.55750000E+02  0.11081E+00
 0.55799999E+02  0.13703E+00
 0.55850002E+02  0.14814E+00
 0.55900002E+02  0.15839E+00
 0.55950001E+02  0.13719E+00
 0.56000000E+02  0.64354E-01
 0.56049999E+02 -0.16563E-01
 0.56100002E+02 -0.73899E-01
 0.56150002E+02 -0.79292E-01
 0.56200001E+02 -0.61789E-01
 0.56250000E+02 -0.46568E-01
 0.56299999E+02 -0.34998E-01
 0.56350002E+02 -0.14321E-01
 0.56400002E+02  0.32748E-01
 0.56450001E+02  0.74913E-01
 0.56500000E+02  0.80246E-01
 0.56549999E+02  0.67757E-01
 0.56600002E+02  0.70888E-01
 0.56650002E+02  0.73567E-01
 0.56700001E+02  0.57270E-01
 0.56750000E+02  0.32896E-01
 0.56799999E+02  0.90696E-02
 0.56850002E+02 -0.63328E-02
 0.56900002E+02 -0.41199E-01
 0.56950001E+02 -0.84578E-01
 0.57000000E+02 -0.94176E-01
 0.57049999E+02 -0.83530E-01
 0.57100002E+02 -0.64909E-01
 0.57150002E+02 -0.29965E-01
 0.57200001E+02  0.16240E-01
 0.57250000E+02  0.45115E-01
 0.57299999E+02  0.40814E-01
 0.57350002E+02  0.16631E-01
 0.57400002E+02 -0.63697E-02
 0.57450001E+02 -0.26930E-01
 0.57500000E+02 -0.12709E-01
 0.57549999E+02 -0.22423E-02
 0.57600002E+02 -0.42137E-01
 0.57650002E+02 -0.70061E-01
 0.57700001E+02 -0.53412E-01
 0.57750000E+02  0.14077E-01
 0.57799999E+02  0.77578E-01
 0.57850002E+02  0.84809E-01
 0.57900002E+02  0.39839E-01
 0.57950001E+02 -0.34617E-01
 0.58000000E+02 -0.11066E+00
 0.58049999E+02 -0.17272E+00
 0.58100002E+02 -0.20052E+00
 0.58150002E+02 -0.17001E+00
 0.58200001E+02 -0.10050E+00
 0.58250000E+02 -0.37098E-02
 0.58299999E+02  0.12966E+00
 0.58350002E+02  0.27033E+00
 0.58400002E+02  0.35937E+00
 0.58450001E+02  0.37144E+00
 0.58500000E+02  0.33197E+00
 0.58549999E+02  0.22556E+00
 0.58600002E+02  0.83122E-01
 0.58650002E+02 -0.69481E-01
 0.58700001E+02 -0.22522E+00
 0.58750000E+02 -0.26056E+00
 0.58799999E+02 -0.16991E+00
 0.58850002E+02 -0.17935E-01
 0.58900002E+02  0.19693E+00
 0.58950001E+02  0.33396E+00
 0.59000000E+02  0.31515E+00
 0.59049999E+02  0.12532E+00
 0.59100002E+02 -0.15048E+00
 0.59150002E+02 -0.43169E+00
 0.59200001E+02 -0.69776E+00
 0.59250000E+02 -0.77176E+00
 0.59299999E+02 -0.61997E+00
 0.59350002E+02 -0.30059E+00
 0.59400002E+02  0.87191E-01
 0.59450001E+02  0.46280E+00
 0.59500000E+02  0.76526E+00
 0.59549999E+02  0.90872E+00
 0.59600002E+02  0.86440E+00
 0.59650002E+02  0.56328E+00
 0.59700001E+02  0.80964E-01
 0.59750000E+02 -0.33670E+00
 0.59799999E+02 -0.56054E+00
 0.59850002E+02 -0.59143E+00
 0.59900002E+02 -0.46675E+00
 0.59950001E+02 -0.28142E+00
 0.60000000E+02 -0.13078E+00
 0.60049999E+02  0.27608E-01
 0.60100002E+02  0.20615E+00
 0.60150002E+02  0.25779E+00
 0.60200001E+02  0.17495E+00
 0.60250000E+02  0.55864E-01
 0.60299999E+02 -0.15654E-01
 0.60350002E+02 -0.60276E-01
 0.60400002E+02 -0.18921E+00
 0.60450001E+02 -0.31937E+00
 0.60500000E+02 -0.36869E+00
 0.60549999E+02 -0.36286E+00
 0.60600002E+02 -0.29512E+00
 0.60650002E+02 -0.10734E+00
 0.60700001E+02  0.15427E+00
 0.60750000E+02  0.30660E+00
 0.60799999E+02  0.30716E+00
 0.60850002E+02  0.22526E+00
 0.60900002E+02  0.10363E+00
 0.60950001E+02 -0.64843E-01
 0.61000000E+02 -0.26464E+00
 0.61049999E+02 -0.39384E+00
 0.61100002E+02 -0.37878E+00
 0.61150002E+02 -0.20570E+00
 0.61200001E+02  0.32962E-01
 0.61250000E+02  0.27587E+00
 0.61299999E+02  0.52283E+00
 0.61350002E+02  0.64022E+00
 0.61400002E+02  0.55102E+00
 0.61450001E+02  0.33031E+00
 0.61500000E+02  0.12212E+00
 0.61549999E+02 -0.54898E-01
 0.61600002E+02 -0.28916E+00
 0.61650002E+02 -0.55325E+00
 0.61700001E+02 -0.73707E+00
 0.61750000E+02 -0.72876E+00
 0.61799999E+02 -0.48900E+00
 0.61850002E+02 -0.15401E+00
 0.61900002E+02  0.15501E+00
 0.61950001E+02  0.42357E+00
 0.62000000E+02  0.61351E+00
 0.62049999E+02  0.71289E+00
 0.62100002E+02  0.71039E+00
 0.62150002E+02  0.59913E+00
 0.62200001E+02  0.35156E+00
 0.62250000E+02  0.21858E-02
 0.62299999E+02 -0.36183E+00
 0.62350002E+02 -0.56310E+00
 0.62400002E+02 -0.49888E+00
 0.62450001E+02 -0.24547E+00
 0.62500000E+02  0.98458E-01
 0.62549999E+02  0.38578E+00
 0.62600002E+02  0.52932E+00
 0.62650002E+02  0.48327E+00
 0.62700001E+02  0.29457E+00
 0.62750000E+02 -0.36324E-01
 0.62799999E+02 -0.47844E+00
 0.62850002E+02 -0.82549E+00
 0.62900002E+02 -0.92209E+00
 0.62950001E+02 -0.73099E+00
 0.63000000E+02 -0.37302E+00
 0.63049999E+02  0.24140E-01
 0.63100002E+02  0.46229E+00
 0.63150002E+02  0.84606E+00
 0.63200001E+02  0.10000E+01
 0.63250000E+02  0.87062E+00
 0.63299999E+02  0.53051E+00
 0.63350002E+02  0.88677E-01
 0.63400002E+02 -0.39015E+00
 0.63450001E+02 -0.78027E+00
 0.63500000E+02 -0.98468E+00
 0.63549999E+02 -0.96185E+00
 0.63600002E+02 -0.69763E+00
 0.63650002E+02 -0.26431E+00
 0.63700001E+02  0.25100E+00
 0.63750000E+02  0.69501E+00
 0.63799999E+02  0.89767E+00
 0.63850002E+02  0.76210E+00
 0.63900002E+02  0.35075E+00
 0.63950001E+02 -0.10851E+00
 0.64000000E+02 -0.44295E+00
 0.64050003E+02 -0.60002E+00
 0.64099998E+02 -0.59487E+00
 0.64150002E+02 -0.43232E+00
 0.64200005E+02 -0.11623E+00
 0.64250000E+02  0.26777E+00
 0.64300003E+02  0.62342E+00
 0.64349998E+02  0.81266E+00
 0.64400002E+02  0.76327E+00
 0.64450005E+02  0.55386E+00
 0.64500000E+02  0.27306E+00
 0.64550003E+02 -0.35179E-01
 0.64599998E+02 -0.36400E+00
 0.64650002E+02 -0.57461E+00
 0.64700005E+02 -0.54318E+00
 0.64750000E+02 -0.34402E+00
 0.64800003E+02 -0.78554E-01
 0.64849998E+02  0.20270E+00
 0.64900002E+02  0.49011E+00
 0.64950005E+02  0.69371E+00
 0.65000000E+02  0.71767E+00
 0.65050003E+02  0.57177E+00
 0.65099998E+02  0.30101E+00
 0.65150002E+02  0.12483E-02
 0.65200005E+02 -0.25271E+00
 0.65250000E+02 -0.47039E+00
 0.65300003E+02 -0.62363E+00
 0.65349998E+02 -0.66652E+00
 0.65400002E+02 -0.57935E+00
 0.65450005E+02 -0.38421E+00
 0.65500000E+02 -0.15500E+00
 0.65550003E+02  0.85259E-01
 0.65599998E+02  0.28455E+00
 0.65650002E+02  0.41321E+00
 0.65700005E+02  0.45116E+00
 0.65750000E+02  0.39797E+00
 0.65800003E+02  0.28017E+00
 0.65849998E+02  0.10467E+00
 0.65900002E+02 -0.81163E-01
 0.65950005E+02 -0.22934E+00
 0.66000000E+02 -0.30045E+00
 0.66050003E+02 -0.31299E+00
 0.66099998E+02 -0.30243E+00
 0.66150002E+02 -0.28342E+00
 0.66200005E+02 -0.25488E+00
 0.66250000E+02 -0.24052E+00
 0.66300003E+02 -0.25910E+00
 0.66349998E+02 -0.26611E+00
 0.66400002E+02 -0.24208E+00
 0.66450005E+02 -0.22481E+00
 0.66500000E+02 -0.21671E+00
 0.66550003E+02 -0.18135E+00
 0.66599998E+02 -0.87155E-01
 0.66650002E+02  0.34919E-01
 0.66700005E+02  0.14945E+00
 0.66750000E+02  0.28372E+00
 0.66800003E+02  0.44686E+00
 0.66849998E+02  0.58730E+00
 0.66900002E+02  0.65251E+00
 0.66950005E+02  0.62559E+00
 0.67000000E+02  0.52652E+00
 0.67050003E+02  0.39638E+00
 0.67099998E+02  0.17945E+00
 0.67150002E+02 -0.12558E+00
 0.67200005E+02 -0.40910E+00
 0.67250000E+02 -0.56060E+00
 0.67300003E+02 -0.50212E+00
 0.67349998E+02 -0.29449E+00
 0.67400002E+02 -0.54064E-01
 0.67450005E+02  0.15182E+00
 0.67500000E+02  0.27723E+00
 0.67550003E+02  0.28276E+00
 0.67599998E+02  0.15339E+00
 0.67650002E+02 -0.74548E-01
 0.67700005E+02 -0.31399E+00
 0.67750000E+02 -0.46535E+00
 0.67800003E+02 -0.46590E+00
 0.67849998E+02 -0.33529E+00
 0.67900002E+02 -0.15372E+00
 0.67950005E+02  0.24146E-01
 0.68000000E+02  0.17602E+00
 0.68050003E+02  0.27405E+00
 0.68099998E+02  0.26228E+00
 0.68150002E+02  0.13714E+00
 0.68200005E+02 -0.30290E-01
 0.68250000E+02 -0.16019E+00
 0.68300003E+02 -0.21815E+00
 0.68349998E+02 -0.20608E+00
 0.68400002E+02 -0.11866E+00
 0.68450005E+02 -0.86970E-02
 0.68500000E+02  0.85955E-01
 0.68550003E+02  0.16768E+00
 0.68599998E+02  0.20282E+00
 0.68650002E+02  0.14143E+00
 0.68700005E+02 -0.19294E-01
 0.68750000E+02 -0.21823E+00
 0.68800003E+02 -0.36718E+00
 0.68849998E+02 -0.43902E+00
 0.68900002E+02 -0.46850E+00
 0.68950005E+02 -0.44335E+00
 0.69000000E+02 -0.35519E+00
 0.69050003E+02 -0.20953E+00
 0.69099998E+02  0.23166E-02
 0.69150002E+02  0.26626E+00
 0.69200005E+02  0.50239E+00
 0.69250000E+02  0.62098E+00
 0.69300003E+02  0.60922E+00
 0.69349998E+02  0.51468E+00
 0.69400002E+02  0.38767E+00
 0.69450005E+02  0.23417E+00
 0.69500000E+02  0.45607E-01
 0.69550003E+02 -0.16616E+00
 0.69599998E+02 -0.33037E+00
 0.69650002E+02 -0.38437E+00
 0.69700005E+02 -0.32315E+00
 0.69750000E+02 -0.17679E+00
 0.69800003E+02 -0.89799E-02
 0.69849998E+02  0.14683E+00
 0.69900002E+02  0.24807E+00
 0.69950005E+02  0.27137E+00
 0.70000000E+02  0.22546E+00
 0.70050003E+02  0.10752E+00
 0.70099998E+02 -0.53979E-01
 0.70150002E+02 -0.20508E+00
 0.70200005E+02 -0.31346E+00
 0.70250000E+02 -0.35331E+00
 0.70300003E+02 -0.31395E+00
 0.70349998E+02 -0.21701E+00
 0.70400002E+02 -0.57534E-01
 0.70450005E+02  0.13321E+00
 0.70500000E+02  0.32691E+00
 0.70550003E+02  0.47593E+00
 0.70599998E+02  0.52599E+00
 0.70650002E+02  0.49777E+00
 0.70700005E+02  0.39560E+00
 0.70750000E+02  0.22838E+00
 0.70800003E+02  0.40606E-01
 0.70849998E+02 -0.11681E+00
 0.70900002E+02 -0.20532E+00
 0.70950005E+02 -0.21697E+00
 0.71000000E+02 -0.16035E+00
 0.71050003E+02 -0.72585E-01
 0.71099998E+02  0.13799E-01
 0.71150002E+02  0.90103E-01
 0.71200005E+02  0.12373E+00
 0.71250000E+02  0.91988E-01
 0.71300003E+02 -0.55362E-02
 0.71349998E+02 -0.13067E+00
 0.71400002E+02 -0.21610E+00
 0.71450005E+02 -0.20588E+00
 0.71500000E+02 -0.90479E-01
 0.71550003E+02  0.94926E-01
 0.71599998E+02  0.31043E+00
 0.71650002E+02  0.47353E+00
 0.71700005E+02  0.51599E+00
 0.71750000E+02  0.43024E+00
 0.71800003E+02  0.22124E+00
 0.71849998E+02 -0.54594E-01
 0.71900002E+02 -0.31350E+00
 0.71950005E+02 -0.48755E+00
 0.72000000E+02 -0.53631E+00
 0.72050003E+02 -0.45546E+00
 0.72099998E+02 -0.26716E+00
 0.72150002E+02 -0.19482E-01
 0.72200005E+02  0.21253E+00
 0.72250000E+02  0.35235E+00
 0.72300003E+02  0.38058E+00
 0.72349998E+02  0.31312E+00
 0.72400002E+02  0.17715E+00
 0.72450005E+02 -0.47159E-02
 0.72500000E+02 -0.20669E+00
 0.72550003E+02 -0.39062E+00
 0.72599998E+02 -0.51058E+00
 0.72650002E+02 -0.53124E+00
 0.72700005E+02 -0.45063E+00
 0.72750000E+02 -0.28805E+00
 0.72800003E+02 -0.71221E-01
 0.72849998E+02  0.15438E+00
 0.72900002E+02  0.32676E+00
 0.72950005E+02  0.39595E+00
 0.73000000E+02  0.33307E+00
 0.73050003E+02  0.15342E+00
 0.73099998E+02 -0.83839E-01
 0.73150002E+02 -0.30704E+00
 0.73200005E+02 -0.45871E+00
 0.73250000E+02 -0.50711E+00
 0.73300003E+02 -0.45134E+00
 0.73349998E+02 -0.30754E+00
 0.73400002E+02 -0.10410E+00
 0.73450005E+02  0.10706E+00
 0.73500000E+02  0.26941E+00
 0.73550003E+02  0.35932E+00
 0.73599998E+02  0.36489E+00
 0.73650002E+02  0.30947E+00
 0.73700005E+02  0.24894E+00
 0.73750000E+02  0.22410E+00
 0.73800003E+02  0.22595E+00
 0.73849998E+02  0.22171E+00
 0.73900002E+02  0.21911E+00
 0.73950005E+02  0.22286E+00
 0.74000000E+02  0.22448E+00
 0.74050003E+02  0.19591E+00
 0.74099998E+02  0.11787E+00
 0.74150002E+02 -0.23606E-02
 0.74200005E+02 -0.12804E+00
 0.74250000E+02 -0.21619E+00
 0.74300003E+02 -0.26882E+00
 0.74349998E+02 -0.31005E+00
 0.74400002E+02 -0.33205E+00
 0.74450005E+02 -0.29787E+00
 0.74500000E+02 -0.20256E+00
 0.74550003E+02 -0.75424E-01
 0.74599998E+02  0.43974E-01
 0.74650002E+02  0.14156E+00
 0.74700005E+02  0.22566E+00
 0.74750000E+02  0.29414E+00
 0.74800003E+02  0.32850E+00
 0.74849998E+02  0.30888E+00
 0.74900002E+02  0.23898E+00
 0.74950005E+02  0.14943E+00
 0.75000000E+02  0.76369E-01
 0.75050003E+02  0.35366E-01
 0.75099998E+02  0.30329E-01
 0.75150002E+02  0.47599E-01
 0.75200005E+02  0.43079E-01
 0.75250000E+02 -0.20953E-01
 0.75300003E+02 -0.13680E+00
 0.75349998E+02 -0.26227E+00
 0.75400002E+02 -0.35052E+00
 0.75450005E+02 -0.39114E+00
 0.75500000E+02 -0.39132E+00
 0.75550003E+02 -0.32718E+00
 0.75599998E+02 -0.17637E+00
 0.75650002E+02  0.37059E-01
 0.75700005E+02  0.24712E+00
 0.75750000E+02  0.39449E+00
 0.75800003E+02  0.44437E+00
 0.75849998E+02  0.38215E+00
 0.75900002E+02  0.22681E+00
 0.75950005E+02  0.25515E-01
 0.76000000E+02 -0.16239E+00
 0.76050003E+02 -0.28356E+00
 0.76099998E+02 -0.31837E+00
 0.76150002E+02 -0.27204E+00
 0.76200005E+02 -0.17555E+00
 0.76250000E+02 -0.80931E-01
 0.76300003E+02 -0.18017E-01
 0.76349998E+02  0.25350E-01
 0.76400002E+02  0.51571E-01
 0.76450005E+02  0.48879E-01
 0.76500000E+02  0.20211E-01
 0.76550003E+02 -0.32825E-01
 0.76599998E+02 -0.10677E+00
 0.76650002E+02 -0.19569E+00
 0.76700005E+02 -0.27820E+00
 0.76750000E+02 -0.32496E+00
 0.76800003E+02 -0.30538E+00
 0.76849998E+02 -0.21387E+00
 0.76900002E+02 -0.64945E-01
 0.76950005E+02  0.11937E+00
 0.77000000E+02  0.29060E+00
 0.77050003E+02  0.39611E+00
 0.77099998E+02  0.40460E+00
 0.77150002E+02  0.32296E+00
 0.77200005E+02  0.17882E+00
 0.77250000E+02  0.25296E-01
 0.77300003E+02 -0.96945E-01
 0.77349998E+02 -0.18042E+00
 0.77400002E+02 -0.21043E+00
 0.77450005E+02 -0.18624E+00
 0.77500000E+02 -0.12319E+00
 0.77550003E+02 -0.51447E-01
 0.77599998E+02  0.31999E-02
 0.77650002E+02  0.44315E-01
 0.77700005E+02  0.86054E-01
 0.77750000E+02  0.12918E+00
 0.77800003E+02  0.15006E+00
 0.77849998E+02  0.13901E+00
 0.77900002E+02  0.96679E-01
 0.77950005E+02  0.16764E-01
 0.78000000E+02 -0.87846E-01
 0.78050003E+02 -0.19312E+00
 0.78099998E+02 -0.27007E+00
 0.78150002E+02 -0.29789E+00
 0.78200005E+02 -0.27617E+00
 0.78250000E+02 -0.22263E+00
 0.78300003E+02 -0.15154E+00
 0.78349998E+02 -0.74740E-01
 0.78400002E+02 -0.23506E-02
 0.78450005E+02  0.65668E-01
 0.78500000E+02  0.11933E+00
 0.78550003E+02  0.15531E+00
 0.78599998E+02  0.18552E+00
 0.78650002E+02  0.22937E+00
 0.78700005E+02  0.28573E+00
 0.78750000E+02  0.33017E+00
 0.78800003E+02  0.33685E+00
 0.78849998E+02  0.29322E+00
 0.78900002E+02  0.20322E+00
 0.78950005E+02  0.74234E-01
 0.79000000E+02 -0.80650E-01
 0.79050003E+02 -0.23493E+00
 0.79099998E+02 -0.35003E+00
 0.79150002E+02 -0.39900E+00
 0.79200005E+02 -0.37297E+00
 0.79250000E+02 -0.28217E+00
 0.79300003E+02 -0.15231E+00
 0.79349998E+02 -0.12514E-01
 0.79400002E+02  0.10829E+00
 0.79450005E+02  0.18551E+00
 0.79500000E+02  0.21355E+00
 0.79550003E+02  0.21499E+00
 0.79599998E+02  0.21035E+00
 0.79650002E+02  0.19036E+00
 0.79700005E+02  0.13258E+00
 0.79750000E+02  0.38378E-01
 0.79800003E+02 -0.66380E-01
 0.79849998E+02 -0.15443E+00
 0.79900002E+02 -0.20928E+00
 0.79950005E+02 -0.22865E+00
 0.80000000E+02 -0.21032E+00
 0.80050003E+02 -0.15607E+00
 0.80099998E+02 -0.94438E-01
 0.80150002E+02 -0.44554E-01
 0.80200005E+02 -0.36046E-02
 0.80250000E+02  0.31923E-01
 0.80300003E+02  0.70793E-01
 0.80349998E+02  0.11974E+00
 0.80400002E+02  0.17971E+00
 0.80450005E+02  0.24011E+00
 0.80500000E+02  0.28120E+00
 0.80550003E+02  0.28922E+00
 0.80599998E+02  0.26019E+00
 0.80650002E+02  0.18840E+00
 0.80700005E+02  0.76931E-01
 0.80750000E+02 -0.60592E-01
 0.80800003E+02 -0.20170E+00
 0.80849998E+02 -0.32014E+00
 0.80900002E+02 -0.38452E+00
 0.80950005E+02 -0.36459E+00
 0.81000000E+02 -0.24821E+00
 0.81050003E+02 -0.57655E-01
 0.81099998E+02  0.15983E+00
 0.81150002E+02  0.35646E+00
 0.81200005E+02  0.48570E+00
 0.81250000E+02  0.52794E+00
 0.81300003E+02  0.47501E+00
 0.81349998E+02  0.31809E+00
 0.81400002E+02  0.75400E-01
 0.81450005E+02 -0.19553E+00
 0.81500000E+02 -0.42939E+00
 0.81550003E+02 -0.57037E+00
 0.81599998E+02 -0.58835E+00
 0.81650002E+02 -0.48564E+00
 0.81700005E+02 -0.28528E+00
 0.81750000E+02 -0.42339E-01
 0.81800003E+02  0.18062E+00
 0.81849998E+02  0.34245E+00
 0.81900002E+02  0.42953E+00
 0.81950005E+02  0.42895E+00
 0.82000000E+02  0.33579E+00
 0.82050003E+02  0.18219E+00
 0.82099998E+02  0.17097E-01
 0.82150002E+02 -0.11776E+00
 0.82200005E+02 -0.19769E+00
 0.82250000E+02 -0.21883E+00
 0.82300003E+02 -0.18803E+00
 0.82349998E+02 -0.12303E+00
 0.82400002E+02 -0.47203E-01
 0.82450005E+02  0.16375E-01
 0.82500000E+02  0.42766E-01
 0.82550003E+02  0.25083E-01
 0.82599998E+02 -0.18353E-01
 0.82650002E+02 -0.57571E-01
 0.82700005E+02 -0.74126E-01
 0.82750000E+02 -0.66313E-01
 0.82800003E+02 -0.53960E-01
 0.82849998E+02 -0.44870E-01
 0.82900002E+02 -0.31057E-01
 0.82950005E+02 -0.16389E-01
 0.83000000E+02 -0.10179E-02
 0.83050003E+02  0.20352E-01
 0.83099998E+02  0.49674E-01
 0.83150002E+02  0.77363E-01
 0.83200005E+02  0.98111E-01
 0.83250000E+02  0.11278E+00
 0.83300003E+02  0.12134E+00
 0.83349998E+02  0.12036E+00
 0.83400002E+02  0.97485E-01
 0.83450005E+02  0.51101E-01
 0.83500000E+02 -0.81791E-02
 0.83550003E+02 -0.65976E-01
 0.83599998E+02 -0.10789E+00
 0.83650002E+02 -0.11303E+00
 0.83700005E+02 -0.66132E-01
 0.83750000E+02  0.13765E-01
 0.83800003E+02  0.96309E-01
 0.83849998E+02  0.15855E+00
 0.83900002E+02  0.18492E+00
 0.83950005E+02  0.16172E+00
 0.84000000E+02  0.82669E-01
 0.84050003E+02 -0.36117E-01
 0.84099998E+02 -0.15287E+00
 0.84150002E+02 -0.22308E+00
 0.84200005E+02 -0.23240E+00
 0.84250000E+02 -0.18283E+00
 0.84300003E+02 -0.93533E-01
 0.84349998E+02  0.13132E-02
 0.84400002E+02  0.80914E-01
 0.84450005E+02  0.14245E+00
 0.84500000E+02  0.19508E+00
 0.84550003E+02  0.23211E+00
 0.84599998E+02  0.24234E+00
 0.84650002E+02  0.22798E+00
 0.84700005E+02  0.19160E+00
 0.84750000E+02  0.13615E+00
 0.84800003E+02  0.60489E-01
 0.84849998E+02 -0.29621E-01
 0.84900002E+02 -0.11569E+00
 0.84950005E+02 -0.16908E+00
 0.85000000E+02 -0.17950E+00
 0.85050003E+02 -0.16302E+00
 0.85099998E+02 -0.13361E+00
 0.85150002E+02 -0.98578E-01
 0.85200005E+02 -0.63614E-01
 0.85250000E+02 -0.33139E-01
 0.85300003E+02 -0.49456E-02
 0.85349998E+02  0.12806E-01
 0.85400002E+02  0.50377E-02
 0.85450005E+02 -0.33372E-01
 0.85500000E+02 -0.88056E-01
 0.85550003E+02 -0.12852E+00
 0.85599998E+02 -0.13823E+00
 0.85650002E+02 -0.11712E+00
 0.85700005E+02 -0.71967E-01
 0.85750000E+02 -0.16112E-01
 0.85800003E+02  0.29600E-01
 0.85849998E+02  0.55344E-01
 0.85900002E+02  0.63590E-01
 0.85950005E+02  0.58035E-01
 0.86000000E+02  0.39664E-01
 0.86050003E+02  0.17149E-01
 0.86099998E+02  0.10604E-01
 0.86150002E+02  0.31063E-01
 0.86200005E+02  0.75239E-01
 0.86250000E+02  0.12065E+00
 0.86300003E+02  0.13830E+00
 0.86349998E+02  0.11985E+00
 0.86400002E+02  0.72729E-01
 0.86450005E+02  0.10607E-01
 0.86500000E+02 -0.49480E-01
 0.86550003E+02 -0.90908E-01
 0.86599998E+02 -0.96193E-01
 0.86650002E+02 -0.64196E-01
 0.86700005E+02 -0.66019E-02
 0.86750000E+02  0.60406E-01
 0.86800003E+02  0.11850E+00
 0.86849998E+02  0.14564E+00
 0.86900002E+02  0.13509E+00
 0.86950005E+02  0.10472E+00
 0.87000000E+02  0.76824E-01
 0.87050003E+02  0.58543E-01
 0.87099998E+02  0.42761E-01
 0.87150002E+02  0.25866E-01
 0.87200005E+02  0.14974E-01
 0.87250000E+02  0.16102E-01
 0.87300003E+02  0.17282E-01
 0.87349998E+02  0.62249E-02
 0.87400002E+02 -0.22352E-01
 0.87450005E+02 -0.63101E-01
 0.87500000E+02 -0.10740E+00
 0.87550003E+02 -0.14541E+00
 0.87599998E+02 -0.17318E+00
 0.87650002E+02 -0.18741E+00
 0.87700005E+02 -0.17521E+00
 0.87750000E+02 -0.14168E+00
 0.87800003E+02 -0.10106E+00
 0.87849998E+02 -0.63893E-01
 0.87900002E+02 -0.29894E-01
 0.87950005E+02  0.95247E-02
 0.88000000E+02  0.56247E-01
 0.88050003E+02  0.97306E-01
 0.88099998E+02  0.11806E+00
 0.88150002E+02  0.12724E+00
 0.88200005E+02  0.12719E+00
 0.88250000E+02  0.10590E+00
 0.88300003E+02  0.60163E-01
 0.88349998E+02  0.19584E-02
 0.88400002E+02 -0.56773E-01
 0.88450005E+02 -0.10874E+00
 0.88500000E+02 -0.13530E+00
 0.88550003E+02 -0.12407E+00
 0.88599998E+02 -0.82776E-01
 0.88650002E+02 -0.31337E-01
 0.88700005E+02  0.86158E-02
 0.88750000E+02  0.21675E-01
 0.88800003E+02  0.15563E-01
 0.88849998E+02  0.35947E-02
 0.88900002E+02 -0.66991E-02
 0.88950005E+02 -0.10126E-01
 0.89000000E+02 -0.90731E-02
 0.89050003E+02 -0.13852E-02
 0.89099998E+02  0.18811E-01
 0.89150002E+02  0.54001E-01
 0.89200005E+02  0.93787E-01
 0.89250000E+02  0.12232E+00
 0.89300003E+02  0.12545E+00
 0.89349998E+02  0.10024E+00
 0.89400002E+02  0.56748E-01
 0.89450005E+02  0.51734E-02
 0.89500000E+02 -0.44832E-01
 0.89550003E+02 -0.79215E-01
 0.89599998E+02 -0.85368E-01
 0.89650002E+02 -0.63556E-01
 0.89700005E+02 -0.15298E-01
 0.89750000E+02  0.52256E-01
 0.89800003E+02  0.11713E+00
 0.89849998E+02  0.15715E+00
 0.89900002E+02  0.16175E+00
 0.89950005E+02  0.13516E+00
 0.90000000E+02  0.85097E-01
 0.90050003E+02  0.19668E-01
 0.90099998E+02 -0.47339E-01
 0.90150002E+02 -0.10250E+00
 0.90200005E+02 -0.13779E+00
 0.90250000E+02 -0.15478E+00
 0.90300003E+02 -0.15828E+00
 0.90349998E+02 -0.14306E+00
 0.90400002E+02 -0.10373E+00
 0.90450005E+02 -0.50108E-01
 0.90500000E+02  0.11423E-02
 0.90550003E+02  0.39845E-01
 0.90599998E+02  0.62359E-01
 0.90650002E+02  0.71659E-01
 0.90700005E+02  0.73325E-01
 0.90750000E+02  0.64648E-01
 0.90800003E+02  0.42780E-01
 0.90849998E+02  0.13812E-01
 0.90900002E+02 -0.13327E-01
 0.90950005E+02 -0.29566E-01
 0.91000000E+02 -0.33171E-01
 0.91050003E+02 -0.27693E-01
 0.91099998E+02 -0.18253E-01
 0.91150002E+02 -0.72395E-02
 0.91200005E+02 -0.36706E-02
 0.91250000E+02 -0.20432E-01
 0.91300003E+02 -0.56421E-01
 0.91349998E+02 -0.10505E+00
 0.91400002E+02 -0.15053E+00
 0.91450005E+02 -0.17360E+00
 0.91500000E+02 -0.16753E+00
 0.91550003E+02 -0.13498E+00
 0.91599998E+02 -0.83113E-01
 0.91650002E+02 -0.16203E-01
 0.91700005E+02  0.57116E-01
 0.91750000E+02  0.12091E+00
 0.91800003E+02  0.16640E+00
 0.91849998E+02  0.19855E+00
 0.91900002E+02  0.22186E+00
 0.91950005E+02  0.22638E+00
 0.92000000E+02  0.20580E+00
 0.92050003E+02  0.16242E+00
 0.92099998E+02  0.10321E+00
 0.92150002E+02  0.34912E-01
 0.92200005E+02 -0.38343E-01
 0.92250000E+02 -0.10945E+00
 0.92300003E+02 -0.16610E+00
 0.92349998E+02 -0.19596E+00
 0.92400002E+02 -0.20046E+00
 0.92450005E+02 -0.19050E+00
 0.92500000E+02 -0.16625E+00
 0.92550003E+02 -0.12983E+00
 0.92599998E+02 -0.88490E-01
 0.92650002E+02 -0.46153E-01
 0.92700005E+02 -0.64089E-02
 0.92750000E+02  0.29179E-01
 0.92800003E+02  0.59113E-01
 0.92849998E+02  0.80895E-01
 0.92900002E+02  0.89729E-01
 0.92950005E+02  0.85033E-01
 0.93000000E+02  0.73259E-01
 0.93050003E+02  0.65523E-01
 0.93099998E+02  0.67225E-01
 0.93150002E+02  0.79694E-01
 0.93200005E+02  0.96759E-01
 0.93250000E+02  0.10732E+00
 0.93300003E+02  0.10581E+00
 0.93349998E+02  0.89349E-01
 0.93400002E+02  0.53361E-01
 0.93450005E+02 -0.34713E-03
 0.93500000E+02 -0.59553E-01
 0.93550003E+02 -0.11318E+00
 0.93599998E+02 -0.15417E+00
 0.93650002E+02 -0.17876E+00
 0.93700005E+02 -0.18206E+00
 0.93750000E+02 -0.15647E+00
 0.93800003E+02 -0.10014E+00
 0.93849998E+02 -0.25373E-01
 0.93900002E+02  0.49405E-01
 0.93950005E+02  0.11155E+00
 0.94000000E+02  0.15034E+00
 0.94050003E+02  0.15579E+00
 0.94099998E+02  0.12844E+00
 0.94150002E+02  0.85275E-01
 0.94200005E+02  0.41666E-01
 0.94250000E+02 -0.53902E-03
 0.94300003E+02 -0.37639E-01
 0.94349998E+02 -0.62438E-01
 0.94400002E+02 -0.73440E-01
 0.94450005E+02 -0.70253E-01
 0.94500000E+02 -0.56268E-01
 0.94550003E+02 -0.32961E-01
 0.94599998E+02  0.22178E-02
 0.94650002E+02  0.44108E-01
 0.94700005E+02  0.80946E-01
 0.94750000E+02  0.10250E+00
 0.94800003E+02  0.10956E+00
 0.94849998E+02  0.10257E+00
 0.94900002E+02  0.83465E-01
 0.94950005E+02  0.52495E-01
 0.95000000E+02  0.11849E-01
 0.95050003E+02 -0.25909E-01
 0.95099998E+02 -0.51778E-01
 0.95150002E+02 -0.65229E-01
 0.95200005E+02 -0.66107E-01
 0.95250000E+02 -0.54280E-01
 0.95300003E+02 -0.35511E-01
 0.95349998E+02 -0.16252E-01
 0.95400002E+02 -0.18659E-02
 0.95450005E+02  0.36018E-02
 0.95500000E+02 -0.71336E-03
 0.95550003E+02 -0.52520E-02
 0.95599998E+02 -0.82761E-03
 0.95650002E+02  0.14270E-01
 0.95700005E+02  0.30537E-01
 0.95750000E+02  0.37506E-01
 0.95800003E+02  0.33852E-01
 0.95849998E+02  0.21417E-01
 0.95900002E+02  0.18329E-03
 0.95950005E+02 -0.30337E-01
 0.96000000E+02 -0.64091E-01
 0.96050003E+02 -0.95540E-01
 0.96099998E+02 -0.11986E+00
 0.96150002E+02 -0.12781E+00
 0.96200005E+02 -0.10461E+00
 0.96250000E+02 -0.51819E-01
 0.96300003E+02  0.11655E-01
 0.96349998E+02  0.65861E-01
 0.96400002E+02  0.91960E-01
 0.96450005E+02  0.87875E-01
 0.96500000E+02  0.64701E-01
 0.96550003E+02  0.35264E-01
 0.96599998E+02  0.11873E-01
 0.96650002E+02  0.27140E-02
 0.96700005E+02  0.63477E-02
 0.96750000E+02  0.11388E-01
 0.96800003E+02  0.12182E-01
 0.96849998E+02  0.10191E-01
 0.96900002E+02  0.55027E-02
 0.96950005E+02 -0.23769E-02
 0.97000000E+02 -0.11896E-01
 0.97050003E+02 -0.19399E-01
 0.97099998E+02 -0.16600E-01
 0.97150002E+02 -0.41487E-02
 0.97200005E+02  0.11019E-01
 0.97250000E+02  0.25696E-01
 0.97300003E+02  0.37702E-01
 0.97349998E+02  0.44896E-01
 0.97400002E+02  0.45531E-01
 0.97450005E+02  0.40641E-01
 0.97500000E+02  0.31269E-01
 0.97550003E+02  0.22882E-01
 0.97599998E+02  0.14853E-01
 0.97650002E+02  0.20183E-03
 0.97700005E+02 -0.20849E-01
 0.97750000E+02 -0.41294E-01
 0.97800003E+02 -0.54172E-01
 0.97849998E+02 -0.55431E-01
 0.97900002E+02 -0.42035E-01
 0.97950005E+02 -0.14610E-01
 0.98000000E+02  0.17721E-01
 0.98050003E+02  0.43208E-01
 0.98099998E+02  0.53402E-01
 0.98150002E+02  0.43272E-01
 0.98200005E+02  0.18032E-01
 0.98250000E+02 -0.17102E-01
 0.98300003E+02 -0.55252E-01
 0.98349998E+02 -0.82435E-01
 0.98400002E+02 -0.88486E-01
 0.98450005E+02 -0.74095E-01
 0.98500000E+02 -0.43976E-01
 0.98550003E+02 -0.88277E-03
 0.98599998E+02  0.42651E-01
 0.98650002E+02  0.77045E-01
 0.98700005E+02  0.93459E-01
 0.98750000E+02  0.88402E-01
 0.98800003E+02  0.65893E-01
 0.98849998E+02  0.34560E-01
 0.98900002E+02  0.27834E-02
 0.98950005E+02 -0.31654E-01
 0.99000000E+02 -0.66966E-01
 0.99050003E+02 -0.97774E-01
 0.99099998E+02 -0.12028E+00
 0.99150002E+02 -0.13020E+00
 0.99200005E+02 -0.12712E+00
 0.99250000E+02 -0.11241E+00
 0.99300003E+02 -0.83445E-01
 0.99349998E+02 -0.49502E-01
 0.99400002E+02 -0.18467E-01
 0.99450005E+02  0.72159E-02
 0.99500000E+02  0.21525E-01
 0.99550003E+02  0.26318E-01
 0.99599998E+02  0.28955E-01
 0.99650002E+02  0.35412E-01
 0.99700005E+02  0.50017E-01
 0.99750000E+02  0.74637E-01
 0.99800003E+02  0.10226E+00
 0.99849998E+02  0.12709E+00
 0.99900002E+02  0.14643E+00
 0.99950005E+02  0.15648E+00
 0.10000000E+03  0.15790E+00
 0.10005000E+03  0.15045E+00
 0.10010000E+03  0.13307E+00
 0.10015000E+03  0.10466E+00
 0.10020000E+03  0.68509E-01
 0.10025000E+03  0.28594E-01
 0.10030000E+03 -0.15242E-01
 0.10035000E+03 -0.56922E-01
 0.10040000E+03 -0.93075E-01
 0.10045000E+03 -0.12306E+00
 0.10050000E+03 -0.14567E+00
 0.10055000E+03 -0.15832E+00
 0.10060000E+03 -0.15842E+00
 0.10065000E+03 -0.14249E+00
 0.10070000E+03 -0.11063E+00
 0.10075000E+03 -0.68788E-01
 0.10080000E+03 -0.18201E-01
 0.10085000E+03  0.33771E-01
 0.10090000E+03  0.75602E-01
 0.10095000E+03  0.10465E+00
 0.10100000E+03  0.12167E+00
 0.10105000E+03  0.12288E+00
 0.10110000E+03  0.10945E+00
 0.10115000E+03  0.81799E-01
 0.10120000E+03  0.44909E-01
 0.10125000E+03  0.86977E-02
 0.10130000E+03 -0.20342E-01
 0.10135000E+03 -0.36113E-01
 0.10140000E+03 -0.35968E-01
 0.10145000E+03 -0.21963E-01
 0.10150000E+03 -0.28485E-02
 0.10155000E+03  0.17524E-01
 0.10160000E+03  0.31762E-01
 0.10165000E+03  0.33466E-01
 0.10170000E+03  0.22545E-01
 0.10175000E+03 -0.66997E-03
 0.10180000E+03 -0.31106E-01
 0.10185000E+03 -0.61515E-01
 0.10190000E+03 -0.85820E-01
 0.10195000E+03 -0.10102E+00
 0.10200000E+03 -0.99705E-01
 0.10205000E+03 -0.79866E-01
 0.10210000E+03 -0.45407E-01
 0.10215000E+03 -0.36438E-02
 0.10220000E+03  0.38361E-01
 0.10225000E+03  0.75064E-01
 0.10230000E+03  0.95864E-01
 0.10235000E+03  0.93159E-01
 0.10240000E+03  0.64397E-01
 0.10245000E+03  0.12845E-01
 0.10250000E+03 -0.46077E-01
 0.10255000E+03 -0.95796E-01
 0.10260000E+03 -0.12777E+00
 0.10265000E+03 -0.13565E+00
 0.10270000E+03 -0.11945E+00
 0.10275000E+03 -0.85621E-01
 0.10280000E+03 -0.48239E-01
 0.10285000E+03 -0.21558E-01
 0.10290000E+03 -0.95331E-02
 0.10295000E+03 -0.10264E-01
 0.10300000E+03 -0.22152E-01
 0.10305000E+03 -0.38211E-01
 0.10310000E+03 -0.46613E-01
 0.10315000E+03 -0.45062E-01
 0.10320000E+03 -0.37387E-01
 0.10325000E+03 -0.22156E-01
 0.10330000E+03 -0.33312E-02
 0.10335000E+03  0.13251E-01
 0.10340000E+03  0.26722E-01
 0.10345000E+03  0.37082E-01
 0.10350000E+03  0.44450E-01
 0.10355000E+03  0.47678E-01
 0.10360000E+03  0.50184E-01
 0.10365000E+03  0.54372E-01
 0.10370000E+03  0.59425E-01
 0.10375000E+03  0.64485E-01
 0.10380000E+03  0.67076E-01
 0.10385000E+03  0.65820E-01
 0.10390000E+03  0.58519E-01
 0.10395000E+03  0.43738E-01
 0.10400000E+03  0.25410E-01
 0.10405000E+03  0.99714E-02
 0.10410000E+03  0.16741E-02
 0.10415000E+03 -0.22261E-03
 0.10420000E+03  0.31507E-02
 0.10425000E+03  0.11645E-01
 0.10430000E+03  0.19756E-01
 0.10435000E+03  0.23228E-01
 0.10440000E+03  0.19319E-01
 0.10445000E+03  0.52170E-02
 0.10450000E+03 -0.14171E-01
 0.10455000E+03 -0.31078E-01
 0.10460000E+03 -0.41632E-01
 0.10465000E+03 -0.47027E-01
 0.10470000E+03 -0.47185E-01
 0.10475000E+03 -0.39757E-01
 0.10480000E+03 -0.25807E-01
 0.10485000E+03 -0.10511E-01
 0.10490000E+03  0.99319E-03
 0.10495000E+03  0.41630E-02
 0.10500000E+03 -0.45448E-02
 0.10505000E+03 -0.22553E-01
 0.10510000E+03 -0.43054E-01
 0.10515000E+03 -0.56772E-01
 0.10520000E+03 -0.58402E-01
 0.10525000E+03 -0.51952E-01
 0.10530000E+03 -0.42294E-01
 0.10535000E+03 -0.26982E-01
 0.10540000E+03 -0.52592E-02
 0.10545000E+03  0.17573E-01
 0.10550000E+03  0.36303E-01
 0.10555000E+03  0.47843E-01
 0.10560000E+03  0.53080E-01
 0.10565000E+03  0.55648E-01
 0.10570000E+03  0.54017E-01
 0.10575000E+03  0.44701E-01
 0.10580000E+03  0.34313E-01
 0.10585000E+03  0.26424E-01
 0.10590000E+03  0.21209E-01
 0.10595000E+03  0.19608E-01
 0.10600000E+03  0.22326E-01
 0.10605000E+03  0.31510E-01
 0.10610000E+03  0.48362E-01
 0.10615000E+03  0.70818E-01
 0.10620000E+03  0.89774E-01
 0.10625000E+03  0.10089E+00
 0.10630000E+03  0.10048E+00
 0.10635000E+03  0.84858E-01
 0.10640000E+03  0.56595E-01
 0.10645000E+03  0.18718E-01
 0.10650000E+03 -0.22750E-01
 0.10655000E+03 -0.62123E-01
 0.10660000E+03 -0.92944E-01
 0.10665000E+03 -0.11260E+00
 0.10670000E+03 -0.12108E+00
 0.10675000E+03 -0.11860E+00
 0.10680000E+03 -0.10484E+00
 0.10685000E+03 -0.77704E-01
 0.10690000E+03 -0.42800E-01
 0.10695000E+03 -0.50455E-02
 0.10700000E+03  0.28723E-01
 0.10705000E+03  0.49201E-01
 0.10710000E+03  0.50400E-01
 0.10715000E+03  0.32245E-01
 0.10720000E+03  0.17188E-02
 0.10725000E+03 -0.31502E-01
 0.10730000E+03 -0.58751E-01
 0.10735000E+03 -0.77722E-01
 0.10740000E+03 -0.87349E-01
 0.10745000E+03 -0.85362E-01
 0.10750000E+03 -0.72037E-01
 0.10755000E+03 -0.52524E-01
 0.10760000E+03 -0.31954E-01
 0.10765000E+03 -0.16137E-01
 0.10770000E+03 -0.76695E-02
 0.10775000E+03 -0.16261E-02
 0.10780000E+03  0.35081E-02
 0.10785000E+03  0.99572E-02
 0.10790000E+03  0.20658E-01
 0.10795000E+03  0.35772E-01
 0.10800000E+03  0.50354E-01
 0.10805000E+03  0.63045E-01
 0.10810000E+03  0.73386E-01
 0.10815000E+03  0.78172E-01
 0.10820000E+03  0.78710E-01
 0.10825000E+03  0.69429E-01
 0.10830000E+03  0.48018E-01
 0.10835000E+03  0.16391E-01
 0.10840000E+03 -0.19154E-01
 0.10845000E+03 -0.49310E-01
 0.10850000E+03 -0.66613E-01
 0.10855000E+03 -0.66068E-01
 0.10860000E+03 -0.49591E-01
 0.10865000E+03 -0.24650E-01
 0.10870000E+03 -0.17179E-03
 0.10875000E+03  0.16824E-01
 0.10880000E+03  0.25190E-01
 0.10885000E+03  0.29809E-01
 0.10890000E+03  0.35862E-01
 0.10895000E+03  0.43221E-01
 0.10900000E+03  0.47892E-01
 0.10905000E+03  0.53723E-01
 0.10910000E+03  0.60183E-01
 0.10915000E+03  0.63639E-01
 0.10920000E+03  0.59298E-01
 0.10925000E+03  0.43828E-01
 0.10930000E+03  0.21933E-01
 0.10935000E+03  0.99197E-03
 0.10940000E+03 -0.14161E-01
 0.10945000E+03 -0.27695E-01
 0.10950000E+03 -0.38111E-01
 0.10955000E+03 -0.43005E-01
 0.10960000E+03 -0.45805E-01
 0.10965000E+03 -0.48482E-01
 0.10970000E+03 -0.53818E-01
 0.10975000E+03 -0.61268E-01
 0.10980000E+03 -0.66991E-01
 0.10985000E+03 -0.65988E-01
 0.10990000E+03 -0.55769E-01
 0.10995000E+03 -0.39488E-01
 0.11000000E+03 -0.21334E-01
 0.11005000E+03 -0.46089E-02
 0.11010000E+03  0.82386E-02
 0.11015000E+03  0.16191E-01
 0.11020000E+03  0.18972E-01
 0.11025000E+03  0.19807E-01
 0.11030000E+03  0.21888E-01
 0.11035000E+03  0.26952E-01
 0.11040000E+03  0.33455E-01
 0.11045000E+03  0.37705E-01
 0.11050000E+03  0.39988E-01
 0.11055000E+03  0.35478E-01
 0.11060000E+03  0.27365E-01
 0.11065000E+03  0.20003E-01
 0.11070000E+03  0.12589E-01
 0.11075000E+03  0.60434E-02
 0.11080000E+03 -0.13799E-02
 0.11085000E+03 -0.80234E-02
 0.11090000E+03 -0.11466E-01
 0.11095000E+03 -0.66842E-02
 0.11100000E+03  0.16534E-02
 0.11105000E+03  0.71764E-02
 0.11110000E+03  0.93700E-02
 0.11115000E+03  0.88756E-02
 0.11120000E+03  0.31398E-02
 0.11125000E+03 -0.75911E-02
 0.11130000E+03 -0.17243E-01
 0.11135000E+03 -0.24686E-01
 0.11140000E+03 -0.27269E-01
 0.11145000E+03 -0.25820E-01
 0.11150000E+03 -0.23436E-01
 0.11155000E+03 -0.22334E-01
 0.11160000E+03 -0.22789E-01
 0.11165000E+03 -0.27659E-01
 0.11170000E+03 -0.38226E-01
 0.11175000E+03 -0.47593E-01
 0.11180000E+03 -0.48394E-01
 0.11185000E+03 -0.38433E-01
 0.11190000E+03 -0.19932E-01
 0.11195000E+03  0.15713E-02
 0.11200000E+03  0.16862E-01
 0.11205000E+03  0.20859E-01
 0.11210000E+03  0.11685E-01
 0.11215000E+03 -0.73114E-02
 0.11220000E+03 -0.27970E-01
 0.11225000E+03 -0.41219E-01
 0.11230000E+03 -0.42524E-01
 0.11235000E+03 -0.31792E-01
 0.11240000E+03 -0.12367E-01
 0.11245000E+03  0.81039E-02
 0.11250000E+03  0.23798E-01
 0.11255000E+03  0.31744E-01
 0.11260000E+03  0.31832E-01
 0.11265000E+03  0.27260E-01
 0.11270000E+03  0.21045E-01
 0.11275000E+03  0.10702E-01
 0.11280000E+03 -0.11427E-02
 0.11285000E+03 -0.78504E-02
 0.11290000E+03 -0.85751E-02
 0.11295000E+03 -0.43163E-02
 0.11300000E+03  0.39378E-02
 0.11305000E+03  0.13945E-01
 0.11310000E+03  0.23100E-01
 0.11315000E+03  0.31892E-01
 0.11320000E+03  0.38618E-01
 0.11325000E+03  0.40539E-01
 0.11330000E+03  0.37893E-01
 0.11335000E+03  0.29902E-01
 0.11340000E+03  0.20851E-01
 0.11345000E+03  0.16355E-01
 0.11350000E+03  0.18697E-01
 0.11355000E+03  0.24572E-01
 0.11360000E+03  0.29634E-01
 0.11365000E+03  0.31857E-01
 0.11370000E+03  0.28718E-01
 0.11375000E+03  0.18627E-01
 0.11380000E+03  0.41746E-02
 0.11385000E+03 -0.92096E-02
 0.11390000E+03 -0.18235E-01
 0.11395000E+03 -0.20923E-01
 0.11400000E+03 -0.16745E-01
 0.11405000E+03 -0.84816E-02
 0.11410000E+03 -0.79417E-03
 0.11415000E+03  0.54538E-02
 0.11420000E+03  0.64135E-02
 0.11425000E+03  0.10676E-02
 0.11430000E+03 -0.65553E-02
 0.11435000E+03 -0.15068E-01
 0.11440000E+03 -0.20850E-01
 0.11445000E+03 -0.15912E-01
 0.11450000E+03  0.29187E-02
 0.11455000E+03  0.29944E-01
 0.11460000E+03  0.53212E-01
 0.11465000E+03  0.62703E-01
 0.11470000E+03  0.53445E-01
 0.11475000E+03  0.27943E-01
 0.11480000E+03 -0.51389E-02
 0.11485000E+03 -0.38396E-01
 0.11490000E+03 -0.63540E-01
 0.11495000E+03 -0.72632E-01
 0.11500000E+03 -0.59880E-01
 0.11505000E+03 -0.31272E-01
 0.11510000E+03  0.43009E-02
 0.11515000E+03  0.39739E-01
 0.11520000E+03  0.62015E-01
 0.11525000E+03  0.63096E-01
 0.11530000E+03  0.45582E-01
 0.11535000E+03  0.14961E-01
 0.11540000E+03 -0.21054E-01
 0.11545000E+03 -0.51329E-01
 0.11550000E+03 -0.67177E-01
 0.11555000E+03 -0.66914E-01
 0.11560000E+03 -0.52893E-01
 0.11565000E+03 -0.30891E-01
 0.11570000E+03 -0.95591E-02
 0.11575000E+03  0.57744E-02
 0.11580000E+03  0.15175E-01
 0.11585000E+03  0.18094E-01
 0.11590000E+03  0.17646E-01
 0.11595000E+03  0.16559E-01
 0.11600000E+03  0.12177E-01
 0.11605000E+03  0.75646E-02
 0.11610000E+03  0.50633E-02
 0.11615000E+03  0.58874E-02
 0.11620000E+03  0.10531E-01
 0.11625000E+03  0.18505E-01
 0.11630000E+03  0.26360E-01
 0.11635000E+03  0.30499E-01
 0.11640000E+03  0.31383E-01
 0.11645000E+03  0.30015E-01
 0.11650000E+03  0.23682E-01
 0.11655000E+03  0.12144E-01
 0.11660000E+03 -0.37757E-04
 0.11665000E+03 -0.11881E-01
 0.11670000E+03 -0.21648E-01
 0.11675000E+03 -0.29706E-01
 0.11680000E+03 -0.35916E-01
 0.11685000E+03 -0.38748E-01
 0.11690000E+03 -0.37730E-01
 0.11695000E+03 -0.34714E-01
 0.11700000E+03 -0.32976E-01
 0.11705000E+03 -0.32429E-01
 0.11710000E+03 -0.36012E-01
 0.11715000E+03 -0.41053E-01
 0.11720000E+03 -0.41740E-01
 0.11725000E+03 -0.36828E-01
 0.11730000E+03 -0.27697E-01
 0.11735000E+03 -0.19051E-01
 0.11740000E+03 -0.15258E-01
 0.11745000E+03 -0.15184E-01
 0.11750000E+03 -0.15567E-01
 0.11755000E+03 -0.15336E-01
 0.11760000E+03 -0.13065E-01
 0.11765000E+03 -0.95883E-02
 0.11770000E+03 -0.38597E-02
 0.11775000E+03  0.24224E-02
 0.11780000E+03  0.74313E-02
 0.11785000E+03  0.52261E-02
 0.11790000E+03 -0.43891E-02
 0.11795000E+03 -0.12536E-01
 0.11800000E+03 -0.17453E-01
 0.11805000E+03 -0.17803E-01
 0.11810000E+03 -0.13159E-01
 0.11815000E+03 -0.70559E-02
 0.11820000E+03 -0.55306E-02
 0.11825000E+03 -0.81748E-02
 0.11830000E+03 -0.13758E-01
 0.11835000E+03 -0.21225E-01
 0.11840000E+03 -0.25721E-01
 0.11845000E+03 -0.23681E-01
 0.11850000E+03 -0.14061E-01
 0.11855000E+03  0.21328E-02
 0.11860000E+03  0.21792E-01
 0.11865000E+03  0.38888E-01
 0.11870000E+03  0.51671E-01
 0.11875000E+03  0.57275E-01
 0.11880000E+03  0.52067E-01
 0.11885000E+03  0.40411E-01
 0.11890000E+03  0.29239E-01
 0.11895000E+03  0.22228E-01
 0.11900000E+03  0.18991E-01
 0.11905000E+03  0.19214E-01
 0.11910000E+03  0.22802E-01
 0.11915000E+03  0.26994E-01
 0.11920000E+03  0.31104E-01
 0.11925000E+03  0.28160E-01
 0.11930000E+03  0.21582E-01
 0.11935000E+03  0.16059E-01
 0.11940000E+03  0.90026E-02
 0.11945000E+03 -0.32433E-02
 0.11950000E+03 -0.17352E-01
 0.11955000E+03 -0.29113E-01
 0.11960000E+03 -0.38944E-01
 0.11965000E+03 -0.42538E-01
 0.11970000E+03 -0.42534E-01
 0.11975000E+03 -0.34485E-01
 0.11980000E+03 -0.22405E-01
 0.11985000E+03 -0.47723E-02
 0.11990000E+03  0.62825E-02
 0.11995000E+03  0.24075E-01
 0.12000000E+03  0.17931E-01
