 0.00000000E+00  0.16501E-03
 0.50000001E-01  0.25213E-03
 0.10000000E+00  0.22036E-03
 0.15000001E+00  0.21942E-03
 0.20000000E+00  0.19083E-03
 0.25000000E+00  0.16177E-03
 0.30000001E+00  0.14286E-03
 0.34999999E+00  0.13156E-03
 0.40000001E+00  0.12244E-03
 0.45000002E+00  0.10672E-03
 0.50000000E+00  0.69350E-04
 0.55000001E+00  0.38815E-04
 0.60000002E+00  0.11951E-04
 0.65000004E+00 -0.80942E-05
 0.69999999E+00 -0.32377E-04
 0.75000000E+00 -0.59034E-04
 0.80000001E+00 -0.81914E-04
 0.85000002E+00 -0.11610E-03
 0.90000004E+00 -0.16025E-03
 0.94999999E+00 -0.18420E-03
 0.10000000E+01 -0.20816E-03
 0.10500001E+01 -0.22408E-03
 0.11000000E+01 -0.23900E-03
 0.11500000E+01 -0.26942E-03
 0.12000000E+01 -0.26418E-03
 0.12500000E+01 -0.26484E-03
 0.13000001E+01 -0.25257E-03
 0.13500000E+01 -0.24005E-03
 0.14000000E+01 -0.22725E-03
 0.14500000E+01 -0.19522E-03
 0.15000000E+01 -0.17244E-03
 0.15500001E+01 -0.12591E-03
 0.16000000E+01 -0.91976E-04
 0.16500000E+01 -0.59508E-04
 0.17000000E+01 -0.35178E-04
 0.17500000E+01 -0.22366E-04
 0.18000001E+01  0.30985E-06
 0.18500000E+01  0.23962E-04
 0.19000000E+01  0.40600E-04
 0.19500000E+01  0.52428E-04
 0.20000000E+01  0.71767E-04
 0.20500000E+01  0.97875E-04
 0.21000001E+01  0.12494E-03
 0.21500001E+01  0.15514E-03
 0.22000000E+01  0.17780E-03
 0.22500000E+01  0.19213E-03
 0.23000000E+01  0.21271E-03
 0.23500001E+01  0.21765E-03
 0.24000001E+01  0.22642E-03
 0.24500000E+01  0.24073E-03
 0.25000000E+01  0.25919E-03
 0.25500000E+01  0.28017E-03
 0.26000001E+01  0.27559E-03
 0.26500001E+01  0.27033E-03
 0.27000000E+01  0.26833E-03
 0.27500000E+01  0.25846E-03
 0.28000000E+01  0.24985E-03
 0.28500001E+01  0.24119E-03
 0.29000001E+01  0.25134E-03
 0.29500000E+01  0.24638E-03
 0.30000000E+01  0.23835E-03
 0.30500000E+01  0.22771E-03
 0.31000001E+01  0.20963E-03
 0.31500001E+01  0.19195E-03
 0.32000000E+01  0.17671E-03
 0.32500000E+01  0.15996E-03
 0.33000000E+01  0.13263E-03
 0.33500001E+01  0.10410E-03
 0.34000001E+01  0.58374E-04
 0.34500000E+01  0.20607E-04
 0.35000000E+01 -0.74914E-05
 0.35500000E+01 -0.36521E-04
 0.36000001E+01 -0.79033E-04
 0.36500001E+01 -0.11393E-03
 0.37000000E+01 -0.14527E-03
 0.37500000E+01 -0.17254E-03
 0.38000000E+01 -0.18989E-03
 0.38500001E+01 -0.19149E-03
 0.39000001E+01 -0.19683E-03
 0.39500000E+01 -0.20015E-03
 0.40000000E+01 -0.18647E-03
 0.40500002E+01 -0.18826E-03
 0.40999999E+01 -0.18024E-03
 0.41500001E+01 -0.18621E-03
 0.42000003E+01 -0.18210E-03
 0.42500000E+01 -0.17331E-03
 0.43000002E+01 -0.16430E-03
 0.43499999E+01 -0.13995E-03
 0.44000001E+01 -0.12417E-03
 0.44500003E+01 -0.10304E-03
 0.45000000E+01 -0.91429E-04
 0.45500002E+01 -0.80192E-04
 0.45999999E+01 -0.69109E-04
 0.46500001E+01 -0.53106E-04
 0.47000003E+01 -0.33542E-04
 0.47500000E+01 -0.19120E-04
 0.48000002E+01 -0.13402E-04
 0.48499999E+01 -0.11099E-04
 0.49000001E+01 -0.53498E-05
 0.49500003E+01 -0.13903E-04
 0.50000000E+01 -0.23263E-04
 0.50500002E+01 -0.35734E-04
 0.50999999E+01 -0.50734E-04
 0.51500001E+01 -0.69218E-04
 0.52000003E+01 -0.77477E-04
 0.52500000E+01 -0.62251E-04
 0.53000002E+01 -0.53290E-04
 0.53499999E+01 -0.44127E-04
 0.54000001E+01 -0.40158E-04
 0.54500003E+01 -0.23765E-04
 0.55000000E+01 -0.18181E-04
 0.55500002E+01 -0.13303E-04
 0.55999999E+01  0.76256E-08
 0.56500001E+01  0.62465E-05
 0.57000003E+01  0.56964E-05
 0.57500000E+01  0.39615E-05
 0.58000002E+01  0.12991E-04
 0.58499999E+01  0.18223E-04
 0.59000001E+01  0.20222E-04
 0.59500003E+01  0.10963E-04
 0.60000000E+01  0.87863E-05
 0.60500002E+01 -0.33672E-05
 0.60999999E+01 -0.92486E-05
 0.61500001E+01 -0.13069E-04
 0.62000003E+01 -0.87598E-05
 0.62500000E+01  0.94025E-06
 0.63000002E+01 -0.50876E-06
 0.63499999E+01  0.13891E-04
 0.64000001E+01  0.41283E-04
 0.64500003E+01  0.70654E-04
 0.65000000E+01  0.10663E-03
 0.65500002E+01  0.14750E-03
 0.65999999E+01  0.17651E-03
 0.66500001E+01  0.20216E-03
 0.67000003E+01  0.22968E-03
 0.67500000E+01  0.24050E-03
 0.68000002E+01  0.24805E-03
 0.68499999E+01  0.25686E-03
 0.69000001E+01  0.26758E-03
 0.69500003E+01  0.27811E-03
 0.70000000E+01  0.29173E-03
 0.70500002E+01  0.30423E-03
 0.70999999E+01  0.30259E-03
 0.71500001E+01  0.31370E-03
 0.72000003E+01  0.31475E-03
 0.72500000E+01  0.31439E-03
 0.73000002E+01  0.30514E-03
 0.73499999E+01  0.29065E-03
 0.74000001E+01  0.27377E-03
 0.74500003E+01  0.23956E-03
 0.75000000E+01  0.21061E-03
 0.75500002E+01  0.18090E-03
 0.75999999E+01  0.15336E-03
 0.76500001E+01  0.10863E-03
 0.77000003E+01  0.72498E-04
 0.77500000E+01  0.30039E-04
 0.78000002E+01 -0.34632E-05
 0.78499999E+01 -0.20640E-04
 0.79000001E+01 -0.52861E-04
 0.79500003E+01 -0.63728E-04
 0.80000000E+01 -0.78225E-04
 0.80500002E+01 -0.10107E-03
 0.81000004E+01 -0.12034E-03
 0.81500006E+01 -0.13845E-03
 0.81999998E+01 -0.14780E-03
 0.82500000E+01 -0.14988E-03
 0.83000002E+01 -0.15725E-03
 0.83500004E+01 -0.16844E-03
 0.84000006E+01 -0.17517E-03
 0.84499998E+01 -0.16098E-03
 0.85000000E+01 -0.16763E-03
 0.85500002E+01 -0.16471E-03
 0.86000004E+01 -0.16211E-03
 0.86500006E+01 -0.16669E-03
 0.86999998E+01 -0.14529E-03
 0.87500000E+01 -0.13755E-03
 0.88000002E+01 -0.12210E-03
 0.88500004E+01 -0.11429E-03
 0.89000006E+01 -0.10211E-03
 0.89499998E+01 -0.89560E-04
 0.90000000E+01 -0.77397E-04
 0.90500002E+01 -0.64032E-04
 0.91000004E+01 -0.62299E-04
 0.91500006E+01 -0.52274E-04
 0.91999998E+01 -0.59042E-04
 0.92500000E+01 -0.67548E-04
 0.93000002E+01 -0.68644E-04
 0.93500004E+01 -0.74821E-04
 0.94000006E+01 -0.52445E-04
 0.94499998E+01 -0.35606E-04
 0.95000000E+01 -0.25908E-04
 0.95500002E+01 -0.15600E-04
 0.96000004E+01 -0.22306E-04
 0.96500006E+01 -0.24664E-04
 0.96999998E+01 -0.33279E-04
 0.97500000E+01 -0.44130E-04
 0.98000002E+01 -0.59234E-04
 0.98500004E+01 -0.73055E-04
 0.99000006E+01 -0.79233E-04
 0.99499998E+01 -0.56490E-04
 0.10000000E+02 -0.31681E-04
 0.10050000E+02 -0.10694E-04
 0.10100000E+02  0.94760E-05
 0.10150001E+02  0.23425E-04
 0.10200000E+02  0.36762E-04
 0.10250000E+02  0.39156E-04
 0.10300000E+02  0.56272E-04
 0.10350000E+02  0.78866E-04
 0.10400001E+02  0.90022E-04
 0.10450000E+02  0.87016E-04
 0.10500000E+02  0.83237E-04
 0.10550000E+02  0.77200E-04
 0.10600000E+02  0.96455E-04
 0.10650001E+02  0.11744E-03
 0.10700000E+02  0.13888E-03
 0.10750000E+02  0.13984E-03
 0.10800000E+02  0.14151E-03
 0.10850000E+02  0.16846E-03
 0.10900001E+02  0.17994E-03
 0.10950000E+02  0.19713E-03
 0.11000000E+02  0.20037E-03
 0.11050000E+02  0.21818E-03
 0.11100000E+02  0.24042E-03
 0.11150001E+02  0.26005E-03
 0.11200000E+02  0.27475E-03
 0.11250000E+02  0.27905E-03
 0.11300000E+02  0.29954E-03
 0.11350000E+02  0.30102E-03
 0.11400001E+02  0.29265E-03
 0.11450000E+02  0.27699E-03
 0.11500000E+02  0.26286E-03
 0.11550000E+02  0.24866E-03
 0.11600000E+02  0.22064E-03
 0.11650001E+02  0.20747E-03
 0.11700000E+02  0.19591E-03
 0.11750000E+02  0.17940E-03
 0.11800000E+02  0.18253E-03
 0.11850000E+02  0.16846E-03
 0.11900001E+02  0.14717E-03
 0.11950000E+02  0.12533E-03
 0.12000000E+02  0.10023E-03
 0.12050000E+02  0.81669E-04
 0.12100000E+02  0.42837E-04
 0.12150001E+02  0.15051E-04
 0.12200000E+02 -0.21049E-04
 0.12250000E+02 -0.40483E-04
 0.12300000E+02 -0.58528E-04
 0.12350000E+02 -0.82420E-04
 0.12400001E+02 -0.96992E-04
 0.12450000E+02 -0.10334E-03
 0.12500000E+02 -0.95987E-04
 0.12550000E+02 -0.12416E-03
 0.12600000E+02 -0.14232E-03
 0.12650001E+02 -0.15901E-03
 0.12700000E+02 -0.17033E-03
 0.12750000E+02 -0.16498E-03
 0.12800000E+02 -0.15020E-03
 0.12850000E+02 -0.13786E-03
 0.12900001E+02 -0.13135E-03
 0.12950000E+02 -0.12502E-03
 0.13000000E+02 -0.11607E-03
 0.13050000E+02 -0.11874E-03
 0.13100000E+02 -0.12785E-03
 0.13150001E+02 -0.12599E-03
 0.13200000E+02 -0.14424E-03
 0.13250000E+02 -0.14354E-03
 0.13300000E+02 -0.15001E-03
 0.13350000E+02 -0.16203E-03
 0.13400001E+02 -0.15911E-03
 0.13450000E+02 -0.15316E-03
 0.13500000E+02 -0.14149E-03
 0.13550000E+02 -0.15967E-03
 0.13600000E+02 -0.15552E-03
 0.13650001E+02 -0.16185E-03
 0.13700000E+02 -0.17178E-03
 0.13750000E+02 -0.16008E-03
 0.13800000E+02 -0.17579E-03
 0.13850000E+02 -0.16569E-03
 0.13900001E+02 -0.15692E-03
 0.13950000E+02 -0.14681E-03
 0.14000000E+02 -0.12877E-03
 0.14050000E+02 -0.11402E-03
 0.14100000E+02 -0.10756E-03
 0.14150001E+02 -0.11117E-03
 0.14200000E+02 -0.11680E-03
 0.14250000E+02 -0.11896E-03
 0.14300000E+02 -0.10241E-03
 0.14350000E+02 -0.10881E-03
 0.14400001E+02 -0.10281E-03
 0.14450000E+02 -0.87130E-04
 0.14500000E+02 -0.56518E-04
 0.14550000E+02 -0.26169E-04
 0.14600000E+02  0.70717E-05
 0.14650001E+02  0.58675E-04
 0.14700000E+02  0.79265E-04
 0.14750000E+02  0.11476E-03
 0.14800000E+02  0.12828E-03
 0.14850000E+02  0.14113E-03
 0.14900001E+02  0.17003E-03
 0.14950000E+02  0.16806E-03
 0.15000000E+02  0.16840E-03
 0.15050000E+02  0.16989E-03
 0.15100000E+02  0.18284E-03
 0.15150001E+02  0.19100E-03
 0.15200000E+02  0.19737E-03
 0.15250000E+02  0.21105E-03
 0.15300000E+02  0.21276E-03
 0.15350000E+02  0.20142E-03
 0.15400001E+02  0.19149E-03
 0.15450000E+02  0.20854E-03
 0.15500000E+02  0.21760E-03
 0.15550000E+02  0.21226E-03
 0.15600000E+02  0.20618E-03
 0.15650001E+02  0.23169E-03
 0.15700000E+02  0.24200E-03
 0.15750000E+02  0.26598E-03
 0.15800000E+02  0.26984E-03
 0.15850000E+02  0.32244E-03
 0.15900001E+02  0.32174E-03
 0.15950000E+02  0.28250E-03
 0.16000000E+02  0.34501E-03
 0.16050001E+02  0.27042E-03
 0.16100000E+02  0.21486E-03
 0.16150000E+02  0.22590E-03
 0.16200001E+02  0.26065E-03
 0.16250000E+02  0.22336E-03
 0.16300001E+02  0.29954E-03
 0.16350000E+02  0.20770E-03
 0.16400000E+02  0.14977E-03
 0.16450001E+02  0.95191E-04
 0.16500000E+02  0.14544E-03
 0.16550001E+02  0.63391E-04
 0.16600000E+02  0.15402E-05
 0.16650000E+02 -0.37137E-03
 0.16700001E+02 -0.16536E-02
 0.16750000E+02 -0.22702E-02
 0.16800001E+02 -0.18654E-02
 0.16850000E+02 -0.11179E-02
 0.16900000E+02 -0.40057E-02
 0.16950001E+02  0.26407E-02
 0.17000000E+02  0.35216E-02
 0.17050001E+02  0.15442E-02
 0.17100000E+02  0.17238E-01
 0.17150000E+02  0.12755E-01
 0.17200001E+02 -0.15586E-02
 0.17250000E+02  0.39731E-03
 0.17300001E+02  0.24794E-03
 0.17350000E+02  0.31851E-03
 0.17400000E+02  0.13240E-01
 0.17450001E+02  0.76818E-02
 0.17500000E+02 -0.92888E-02
 0.17550001E+02 -0.16077E-01
 0.17600000E+02 -0.63925E-02
 0.17650000E+02  0.59134E-02
 0.17700001E+02  0.96326E-02
 0.17750000E+02 -0.87426E-02
 0.17800001E+02 -0.11755E-01
 0.17850000E+02  0.35212E-01
 0.17900000E+02  0.32883E-01
 0.17950001E+02  0.59737E-02
 0.18000000E+02 -0.21594E-01
 0.18050001E+02 -0.30030E-01
 0.18100000E+02 -0.17807E-01
 0.18150000E+02 -0.28336E-01
 0.18200001E+02 -0.19776E-01
 0.18250000E+02  0.20247E-01
 0.18300001E+02  0.60950E-01
 0.18350000E+02  0.57226E-01
 0.18400000E+02  0.15493E-01
 0.18450001E+02 -0.35719E-01
 0.18500000E+02 -0.26878E-01
 0.18550001E+02  0.40390E-01
 0.18600000E+02  0.57817E-01
 0.18650000E+02 -0.32234E-02
 0.18700001E+02 -0.44862E-01
 0.18750000E+02 -0.35492E-01
 0.18800001E+02 -0.18985E-01
 0.18850000E+02  0.11414E-01
 0.18900000E+02  0.36542E-01
 0.18950001E+02  0.30216E-01
 0.19000000E+02  0.36340E-01
 0.19050001E+02  0.23580E-01
 0.19100000E+02 -0.92748E-02
 0.19150000E+02 -0.25549E-01
 0.19200001E+02 -0.80052E-01
 0.19250000E+02 -0.87529E-01
 0.19300001E+02 -0.76770E-02
 0.19350000E+02  0.71035E-01
 0.19400000E+02  0.80779E-01
 0.19450001E+02  0.29005E-01
 0.19500000E+02 -0.28574E-01
 0.19550001E+02 -0.43033E-01
 0.19600000E+02  0.40230E-02
 0.19650000E+02  0.48333E-01
 0.19700001E+02  0.40769E-01
 0.19750000E+02  0.36230E-01
 0.19800001E+02  0.35349E-03
 0.19850000E+02 -0.56707E-01
 0.19900000E+02 -0.26141E-01
 0.19950001E+02 -0.64634E-02
 0.20000000E+02  0.69574E-02
 0.20050001E+02  0.59744E-01
 0.20100000E+02  0.45731E-01
 0.20150000E+02 -0.15906E-01
 0.20200001E+02 -0.18161E-01
 0.20250000E+02 -0.38049E-01
 0.20300001E+02 -0.64972E-01
 0.20350000E+02 -0.30559E-01
 0.20400000E+02 -0.13686E-01
 0.20450001E+02  0.27224E-01
 0.20500000E+02  0.46785E-01
 0.20550001E+02  0.40330E-01
 0.20600000E+02  0.22654E-01
 0.20650000E+02 -0.33832E-01
 0.20700001E+02 -0.45295E-01
 0.20750000E+02 -0.44661E-01
 0.20800001E+02  0.39751E-01
 0.20850000E+02  0.70228E-01
 0.20900000E+02 -0.13370E-01
 0.20950001E+02 -0.92619E-02
 0.21000000E+02 -0.23750E-01
 0.21050001E+02 -0.10555E-01
 0.21100000E+02  0.30523E-01
 0.21150000E+02  0.12396E-01
 0.21200001E+02  0.37265E-02
 0.21250000E+02 -0.57538E-02
 0.21300001E+02 -0.38581E-01
 0.21350000E+02 -0.28695E-01
 0.21400000E+02  0.29786E-01
 0.21450001E+02 -0.79763E-02
 0.21500000E+02 -0.30423E-01
 0.21550001E+02 -0.15868E-01
 0.21600000E+02 -0.43816E-01
 0.21650000E+02  0.14376E-02
 0.21700001E+02  0.31935E-01
 0.21750000E+02  0.81972E-02
 0.21800001E+02  0.23023E-01
 0.21850000E+02  0.50904E-01
 0.21900000E+02  0.40266E-01
 0.21950001E+02  0.21327E-01
 0.22000000E+02 -0.57965E-01
 0.22050001E+02 -0.77733E-01
 0.22100000E+02 -0.30396E-01
 0.22150000E+02 -0.82049E-02
 0.22200001E+02  0.53803E-01
 0.22250000E+02  0.94479E-01
 0.22300001E+02  0.10578E+00
 0.22350000E+02  0.44344E-01
 0.22400000E+02 -0.52408E-01
 0.22450001E+02 -0.12341E+00
 0.22500000E+02 -0.10981E+00
 0.22550001E+02 -0.61857E-01
 0.22600000E+02 -0.21588E-01
 0.22650000E+02  0.75043E-03
 0.22700001E+02  0.24959E-01
 0.22750000E+02  0.46639E-01
 0.22800001E+02  0.58661E-01
 0.22850000E+02  0.38273E-01
 0.22900000E+02 -0.66582E-02
 0.22950001E+02 -0.77119E-02
 0.23000000E+02 -0.36116E-01
 0.23050001E+02 -0.24031E-02
 0.23100000E+02  0.49601E-01
 0.23150000E+02  0.66745E-01
 0.23200001E+02  0.27098E-01
 0.23250000E+02  0.11365E-01
 0.23300001E+02 -0.11668E-01
 0.23350000E+02 -0.42052E-01
 0.23400000E+02 -0.32399E-02
 0.23450001E+02 -0.12763E-01
 0.23500000E+02 -0.26213E-01
 0.23550001E+02 -0.38602E-01
 0.23600000E+02 -0.50726E-01
 0.23650000E+02  0.14680E-01
 0.23700001E+02  0.47783E-01
 0.23750000E+02  0.15450E-01
 0.23800001E+02 -0.14314E-01
 0.23850000E+02 -0.41831E-01
 0.23900000E+02  0.28869E-02
 0.23950001E+02  0.30307E-01
 0.24000000E+02  0.20145E-01
 0.24050001E+02 -0.31966E-02
 0.24100000E+02 -0.19900E-01
 0.24150000E+02  0.43447E-02
 0.24200001E+02  0.42728E-01
 0.24250000E+02  0.61683E-01
 0.24300001E+02  0.62074E-01
 0.24350000E+02  0.30547E-01
 0.24400000E+02 -0.10627E-01
 0.24450001E+02 -0.17160E-01
 0.24500000E+02 -0.20770E-01
 0.24550001E+02  0.27729E-02
 0.24600000E+02  0.13595E-01
 0.24650000E+02 -0.61439E-02
 0.24700001E+02 -0.14993E-01
 0.24750000E+02  0.85034E-02
 0.24800001E+02  0.16012E-01
 0.24850000E+02 -0.65995E-02
 0.24900000E+02 -0.19498E-01
 0.24950001E+02 -0.23514E-01
 0.25000000E+02 -0.18404E-01
 0.25050001E+02 -0.19430E-02
 0.25100000E+02  0.44857E-01
 0.25150000E+02  0.78429E-01
 0.25200001E+02  0.57147E-01
 0.25250000E+02 -0.78083E-02
 0.25300001E+02 -0.48996E-01
 0.25350000E+02 -0.44895E-01
 0.25400000E+02 -0.86913E-02
 0.25450001E+02  0.31396E-01
 0.25500000E+02  0.15991E-01
 0.25550001E+02  0.30091E-01
 0.25600000E+02  0.33081E-01
 0.25650000E+02 -0.89243E-02
 0.25700001E+02 -0.17775E-01
 0.25750000E+02 -0.11465E-01
 0.25800001E+02  0.16067E-01
 0.25850000E+02  0.58684E-02
 0.25900000E+02 -0.13726E-01
 0.25950001E+02 -0.26730E-01
 0.26000000E+02 -0.46808E-01
 0.26050001E+02 -0.54287E-01
 0.26100000E+02 -0.15174E-01
 0.26150000E+02  0.38440E-01
 0.26200001E+02  0.66723E-01
 0.26250000E+02  0.46861E-01
 0.26300001E+02 -0.47297E-02
 0.26350000E+02 -0.34827E-02
 0.26400000E+02 -0.24875E-01
 0.26450001E+02 -0.29064E-01
 0.26500000E+02 -0.19947E-01
 0.26550001E+02 -0.11702E-01
 0.26600000E+02 -0.53942E-02
 0.26650000E+02 -0.11387E-01
 0.26700001E+02 -0.95282E-02
 0.26750000E+02  0.42019E-02
 0.26800001E+02  0.30544E-02
 0.26850000E+02 -0.17507E-01
 0.26900000E+02  0.73928E-03
 0.26950001E+02  0.19136E-01
 0.27000000E+02  0.65619E-01
 0.27050001E+02  0.10415E+00
 0.27100000E+02  0.64483E-01
 0.27150000E+02  0.20023E-01
 0.27200001E+02 -0.17941E-01
 0.27250000E+02 -0.76371E-01
 0.27300001E+02 -0.74040E-01
 0.27350000E+02 -0.42091E-01
 0.27400000E+02 -0.44152E-01
 0.27450001E+02  0.11723E-02
 0.27500000E+02  0.29708E-01
 0.27550001E+02  0.88265E-02
 0.27600000E+02  0.17594E-01
 0.27650000E+02  0.61215E-01
 0.27700001E+02  0.82158E-01
 0.27750000E+02  0.64060E-01
 0.27800001E+02  0.42971E-01
 0.27850000E+02  0.32339E-01
 0.27900000E+02  0.15815E-01
 0.27950001E+02 -0.20124E-01
 0.28000000E+02 -0.15147E-01
 0.28050001E+02  0.17411E-01
 0.28100000E+02  0.27611E-01
 0.28150000E+02  0.39213E-01
 0.28200001E+02 -0.10757E-02
 0.28250000E+02 -0.40305E-01
 0.28300001E+02 -0.10629E+00
 0.28350000E+02 -0.26209E+00
 0.28400000E+02 -0.37575E+00
 0.28450001E+02 -0.40804E+00
 0.28500000E+02 -0.33504E+00
 0.28550001E+02 -0.16676E+00
 0.28600000E+02  0.34990E-01
 0.28650000E+02  0.16382E+00
 0.28700001E+02  0.21737E+00
 0.28750000E+02  0.10730E+00
 0.28800001E+02 -0.15823E+00
 0.28850000E+02 -0.39189E+00
 0.28900000E+02 -0.48673E+00
 0.28950001E+02 -0.35297E+00
 0.29000000E+02 -0.17479E+00
 0.29050001E+02  0.59282E-01
 0.29100000E+02  0.38788E+00
 0.29150000E+02  0.53640E+00
 0.29200001E+02  0.24468E+00
 0.29250000E+02 -0.24640E+00
 0.29300001E+02 -0.42018E+00
 0.29350000E+02 -0.29230E+00
 0.29400000E+02  0.10047E-01
 0.29450001E+02  0.26081E+00
 0.29500000E+02  0.35033E+00
 0.29550001E+02  0.40113E+00
 0.29600000E+02  0.22145E+00
 0.29650000E+02 -0.19659E+00
 0.29700001E+02 -0.46938E+00
 0.29750000E+02 -0.38469E+00
 0.29800001E+02 -0.79573E-01
 0.29850000E+02  0.11857E+00
 0.29900000E+02  0.14310E+00
 0.29950001E+02  0.91094E-01
 0.30000000E+02  0.33723E-01
 0.30050001E+02  0.44787E-01
 0.30100000E+02  0.89706E-01
 0.30150000E+02 -0.26982E-01
 0.30200001E+02 -0.22046E+00
 0.30250000E+02 -0.30828E+00
 0.30300001E+02 -0.26281E+00
 0.30350000E+02 -0.83716E-01
 0.30400000E+02  0.68204E-01
 0.30450001E+02  0.31318E+00
 0.30500000E+02  0.71983E+00
 0.30550001E+02  0.77519E+00
 0.30600000E+02  0.41986E+00
 0.30650000E+02 -0.19860E+00
 0.30700001E+02 -0.75677E+00
 0.30750000E+02 -0.81692E+00
 0.30800001E+02 -0.55529E+00
 0.30850000E+02 -0.11478E+00
 0.30900000E+02  0.28843E+00
 0.30950001E+02  0.60520E+00
 0.31000000E+02  0.75207E+00
 0.31050001E+02  0.58904E+00
 0.31100000E+02 -0.14597E-01
 0.31150000E+02 -0.64095E+00
 0.31200001E+02 -0.95302E+00
 0.31250000E+02 -0.10000E+01
 0.31300001E+02 -0.64129E+00
 0.31350000E+02  0.66915E-01
 0.31400000E+02  0.73711E+00
 0.31450001E+02  0.84845E+00
 0.31500000E+02  0.48167E+00
 0.31550001E+02 -0.82659E-01
 0.31600000E+02 -0.29408E+00
 0.31650000E+02 -0.15230E+00
 0.31700001E+02 -0.55842E-01
 0.31750000E+02  0.10469E+00
 0.31800001E+02  0.43005E+00
 0.31850000E+02  0.69660E+00
 0.31900000E+02  0.53512E+00
 0.31950001E+02  0.11253E+00
 0.32000000E+02 -0.24893E+00
 0.32049999E+02 -0.52959E+00
 0.32100002E+02 -0.82779E+00
 0.32150002E+02 -0.78415E+00
 0.32200001E+02 -0.33857E+00
 0.32250000E+02  0.15942E+00
 0.32299999E+02  0.53983E+00
 0.32350002E+02  0.55225E+00
 0.32400002E+02  0.32559E+00
 0.32450001E+02  0.13222E+00
 0.32500000E+02  0.11331E+00
 0.32549999E+02  0.18068E+00
 0.32600002E+02  0.20007E+00
 0.32650002E+02  0.55518E-01
 0.32700001E+02 -0.17158E+00
 0.32750000E+02 -0.21069E+00
 0.32799999E+02 -0.14095E+00
 0.32850002E+02 -0.36250E-01
 0.32900002E+02  0.66461E-01
 0.32950001E+02  0.13627E+00
 0.33000000E+02  0.18517E+00
 0.33049999E+02  0.20360E+00
 0.33100002E+02  0.15697E+00
 0.33150002E+02  0.94600E-01
 0.33200001E+02  0.12120E+00
 0.33250000E+02  0.12803E+00
 0.33299999E+02 -0.37594E-02
 0.33350002E+02 -0.12836E+00
 0.33400002E+02 -0.84953E-01
 0.33450001E+02  0.20611E+00
 0.33500000E+02  0.36290E+00
 0.33549999E+02  0.10389E+00
 0.33600002E+02 -0.12215E+00
 0.33650002E+02 -0.20186E+00
 0.33700001E+02 -0.18889E+00
 0.33750000E+02  0.30915E-02
 0.33799999E+02  0.18434E+00
 0.33850002E+02  0.16159E+00
 0.33900002E+02 -0.39453E-01
 0.33950001E+02 -0.26144E+00
 0.34000000E+02 -0.14820E+00
 0.34049999E+02  0.72275E-01
 0.34100002E+02  0.95956E-01
 0.34150002E+02  0.30343E-01
 0.34200001E+02 -0.71840E-01
 0.34250000E+02 -0.70254E-01
 0.34299999E+02 -0.11558E+00
 0.34350002E+02 -0.20959E+00
 0.34400002E+02 -0.12854E+00
 0.34450001E+02  0.34233E-01
 0.34500000E+02  0.11484E+00
 0.34549999E+02  0.23746E+00
 0.34600002E+02  0.36345E+00
 0.34650002E+02  0.32369E+00
 0.34700001E+02  0.10085E+00
 0.34750000E+02 -0.18261E+00
 0.34799999E+02 -0.42193E+00
 0.34850002E+02 -0.44848E+00
 0.34900002E+02 -0.20550E+00
 0.34950001E+02  0.59440E-01
 0.35000000E+02  0.23609E+00
 0.35049999E+02  0.25411E+00
 0.35100002E+02  0.18767E+00
 0.35150002E+02  0.88525E-01
 0.35200001E+02  0.45610E-02
 0.35250000E+02  0.11573E-01
 0.35299999E+02  0.76970E-01
 0.35350002E+02  0.93870E-01
 0.35400002E+02 -0.62484E-01
 0.35450001E+02 -0.24237E+00
 0.35500000E+02 -0.25821E+00
 0.35549999E+02 -0.16872E+00
 0.35600002E+02 -0.12084E+00
 0.35650002E+02 -0.14608E+00
 0.35700001E+02 -0.51212E-01
 0.35750000E+02  0.21133E+00
 0.35799999E+02  0.42034E+00
 0.35850002E+02  0.46981E+00
 0.35900002E+02  0.47048E+00
 0.35950001E+02  0.31919E+00
 0.36000000E+02 -0.38109E-02
 0.36049999E+02 -0.29113E+00
 0.36100002E+02 -0.43298E+00
 0.36150002E+02 -0.43851E+00
 0.36200001E+02 -0.37338E+00
 0.36250000E+02 -0.16134E+00
 0.36299999E+02  0.47456E-01
 0.36350002E+02  0.24289E+00
 0.36400002E+02  0.42621E+00
 0.36450001E+02  0.47452E+00
 0.36500000E+02  0.38688E+00
 0.36549999E+02  0.14606E+00
 0.36600002E+02 -0.15485E+00
 0.36650002E+02 -0.33323E+00
 0.36700001E+02 -0.32438E+00
 0.36750000E+02 -0.23706E+00
 0.36799999E+02 -0.10027E+00
 0.36850002E+02  0.11844E-01
 0.36900002E+02  0.11903E+00
 0.36950001E+02  0.20022E+00
 0.37000000E+02  0.16445E+00
 0.37049999E+02  0.81275E-01
 0.37100002E+02  0.61736E-02
 0.37150002E+02 -0.32227E-01
 0.37200001E+02 -0.41887E-01
 0.37250000E+02 -0.48700E-01
 0.37299999E+02 -0.11284E+00
 0.37350002E+02 -0.22383E+00
 0.37400002E+02 -0.24122E+00
 0.37450001E+02 -0.14128E+00
 0.37500000E+02 -0.16892E-01
 0.37549999E+02  0.30381E-01
 0.37600002E+02 -0.52002E-01
 0.37650002E+02 -0.14180E+00
 0.37700001E+02 -0.14361E+00
 0.37750000E+02 -0.54725E-01
 0.37799999E+02  0.10794E+00
 0.37850002E+02  0.24064E+00
 0.37900002E+02  0.29079E+00
 0.37950001E+02  0.21561E+00
 0.38000000E+02  0.43051E-01
 0.38049999E+02 -0.10919E+00
 0.38100002E+02 -0.15719E+00
 0.38150002E+02 -0.68752E-01
 0.38200001E+02  0.34237E-01
 0.38250000E+02  0.11820E+00
 0.38299999E+02  0.17309E+00
 0.38350002E+02  0.19053E+00
 0.38400002E+02  0.19455E+00
 0.38450001E+02  0.15585E+00
 0.38500000E+02  0.32490E-01
 0.38549999E+02 -0.16795E+00
 0.38600002E+02 -0.29244E+00
 0.38650002E+02 -0.28127E+00
 0.38700001E+02 -0.18150E+00
 0.38750000E+02 -0.58294E-01
 0.38799999E+02  0.38085E-01
 0.38850002E+02  0.88768E-01
 0.38900002E+02  0.14108E+00
 0.38950001E+02  0.21435E+00
 0.39000000E+02  0.22700E+00
 0.39049999E+02  0.16021E+00
 0.39100002E+02  0.20865E-01
 0.39150002E+02 -0.10643E+00
 0.39200001E+02 -0.18411E+00
 0.39250000E+02 -0.22215E+00
 0.39299999E+02 -0.20662E+00
 0.39350002E+02 -0.16661E+00
 0.39400002E+02 -0.10473E+00
 0.39450001E+02 -0.60827E-01
 0.39500000E+02 -0.42613E-01
 0.39549999E+02 -0.73326E-01
 0.39600002E+02 -0.10205E+00
 0.39650002E+02 -0.65864E-01
 0.39700001E+02  0.26894E-02
 0.39750000E+02  0.11826E+00
 0.39799999E+02  0.23201E+00
 0.39850002E+02  0.25303E+00
 0.39900002E+02  0.17295E+00
 0.39950001E+02  0.43583E-01
 0.40000000E+02 -0.66046E-01
 0.40049999E+02 -0.10688E+00
 0.40100002E+02 -0.58827E-01
 0.40150002E+02  0.14569E-01
 0.40200001E+02  0.29739E-01
 0.40250000E+02 -0.11219E-01
 0.40299999E+02 -0.81702E-01
 0.40350002E+02 -0.14169E+00
 0.40400002E+02 -0.15930E+00
 0.40450001E+02 -0.90611E-01
 0.40500000E+02  0.14411E-01
 0.40549999E+02  0.49476E-01
 0.40600002E+02 -0.23521E-03
 0.40650002E+02 -0.45293E-01
 0.40700001E+02 -0.47395E-01
 0.40750000E+02 -0.54556E-01
 0.40799999E+02 -0.81646E-01
 0.40850002E+02 -0.11988E+00
 0.40900002E+02 -0.96232E-01
 0.40950001E+02 -0.24459E-01
 0.41000000E+02  0.27112E-01
 0.41049999E+02  0.65243E-01
 0.41100002E+02  0.71471E-01
 0.41150002E+02  0.50433E-01
 0.41200001E+02  0.46817E-01
 0.41250000E+02  0.55762E-01
 0.41299999E+02  0.53192E-01
 0.41350002E+02  0.55610E-01
 0.41400002E+02  0.61867E-01
 0.41450001E+02  0.35759E-01
 0.41500000E+02  0.47403E-02
 0.41549999E+02 -0.14186E-01
 0.41600002E+02 -0.26437E-01
 0.41650002E+02 -0.13704E-01
 0.41700001E+02  0.21801E-01
 0.41750000E+02  0.20519E-01
 0.41799999E+02 -0.21401E-01
 0.41850002E+02 -0.16525E-01
 0.41900002E+02  0.25911E-01
 0.41950001E+02  0.40996E-01
 0.42000000E+02 -0.12240E-01
 0.42049999E+02 -0.82737E-01
 0.42100002E+02 -0.11216E+00
 0.42150002E+02 -0.90233E-01
 0.42200001E+02 -0.19294E-02
 0.42250000E+02  0.93560E-01
 0.42299999E+02  0.14517E+00
 0.42350002E+02  0.14916E+00
 0.42400002E+02  0.10580E+00
 0.42450001E+02  0.52969E-01
 0.42500000E+02  0.33207E-01
 0.42549999E+02  0.27759E-01
 0.42600002E+02 -0.12792E-01
 0.42650002E+02 -0.86375E-01
 0.42700001E+02 -0.14102E+00
 0.42750000E+02 -0.11659E+00
 0.42799999E+02 -0.47922E-01
 0.42850002E+02 -0.23783E-01
 0.42900002E+02 -0.39079E-01
 0.42950001E+02 -0.80869E-01
 0.43000000E+02 -0.11619E+00
 0.43049999E+02 -0.10516E+00
 0.43100002E+02 -0.52500E-01
 0.43150002E+02 -0.86186E-02
 0.43200001E+02  0.15172E-01
 0.43250000E+02  0.63558E-01
 0.43299999E+02  0.13326E+00
 0.43350002E+02  0.22518E+00
 0.43400002E+02  0.24645E+00
 0.43450001E+02  0.17249E+00
 0.43500000E+02  0.71650E-01
 0.43549999E+02 -0.19443E-01
 0.43600002E+02 -0.69689E-01
 0.43650002E+02 -0.85994E-01
 0.43700001E+02 -0.66239E-01
 0.43750000E+02 -0.44165E-01
 0.43799999E+02 -0.21574E-01
 0.43850002E+02  0.43190E-03
 0.43900002E+02  0.13487E-01
 0.43950001E+02  0.23429E-01
 0.44000000E+02  0.37950E-01
 0.44049999E+02  0.59013E-01
 0.44100002E+02  0.60786E-01
 0.44150002E+02  0.16853E-01
 0.44200001E+02 -0.51627E-01
 0.44250000E+02 -0.87049E-01
 0.44299999E+02 -0.76755E-01
 0.44350002E+02 -0.28343E-01
 0.44400002E+02  0.13115E-01
 0.44450001E+02  0.17162E-01
 0.44500000E+02  0.11083E-01
 0.44549999E+02  0.18235E-01
 0.44600002E+02  0.18450E-01
 0.44650002E+02  0.48157E-02
 0.44700001E+02 -0.82864E-02
 0.44750000E+02  0.44216E-02
 0.44799999E+02  0.64490E-02
 0.44850002E+02 -0.72703E-02
 0.44900002E+02 -0.24864E-01
 0.44950001E+02 -0.43688E-01
 0.45000000E+02 -0.43395E-01
 0.45049999E+02 -0.33156E-01
 0.45100002E+02 -0.10213E-01
 0.45150002E+02 -0.11734E-01
 0.45200001E+02 -0.17336E-01
 0.45250000E+02 -0.16492E-01
 0.45299999E+02 -0.34644E-02
 0.45350002E+02  0.27394E-01
 0.45400002E+02  0.56328E-01
 0.45450001E+02  0.45081E-01
 0.45500000E+02 -0.60711E-02
 0.45549999E+02 -0.52173E-01
 0.45600002E+02 -0.72537E-01
 0.45650002E+02 -0.52120E-01
 0.45700001E+02 -0.14730E-01
 0.45750000E+02  0.12440E-01
 0.45799999E+02  0.27556E-01
 0.45850002E+02  0.39775E-01
 0.45900002E+02  0.31270E-01
 0.45950001E+02  0.29562E-02
 0.46000000E+02 -0.25653E-01
 0.46049999E+02 -0.57448E-01
 0.46100002E+02 -0.84728E-01
 0.46150002E+02 -0.98655E-01
 0.46200001E+02 -0.10281E+00
 0.46250000E+02 -0.79701E-01
 0.46299999E+02 -0.24397E-01
 0.46350002E+02  0.26311E-01
 0.46400002E+02  0.58614E-01
 0.46450001E+02  0.79826E-01
 0.46500000E+02  0.76549E-01
 0.46549999E+02  0.61507E-01
 0.46600002E+02  0.54217E-01
 0.46650002E+02  0.54991E-01
 0.46700001E+02  0.51043E-01
 0.46750000E+02  0.24521E-01
 0.46799999E+02 -0.15882E-01
 0.46850002E+02 -0.29317E-01
 0.46900002E+02 -0.62663E-02
 0.46950001E+02  0.23107E-01
 0.47000000E+02  0.53017E-01
 0.47049999E+02  0.60264E-01
 0.47100002E+02  0.29150E-01
 0.47150002E+02  0.54796E-02
 0.47200001E+02 -0.47434E-03
 0.47250000E+02 -0.78306E-03
 0.47299999E+02 -0.69400E-03
 0.47350002E+02 -0.16051E-01
 0.47400002E+02 -0.42219E-01
 0.47450001E+02 -0.63196E-01
 0.47500000E+02 -0.81169E-01
 0.47549999E+02 -0.94572E-01
 0.47600002E+02 -0.81492E-01
 0.47650002E+02 -0.48683E-01
 0.47700001E+02  0.67488E-02
 0.47750000E+02  0.57997E-01
 0.47799999E+02  0.75747E-01
 0.47850002E+02  0.84786E-01
 0.47900002E+02  0.11026E+00
 0.47950001E+02  0.13796E+00
 0.48000000E+02  0.14038E+00
 0.48049999E+02  0.91037E-01
 0.48100002E+02  0.13409E-01
 0.48150002E+02 -0.56646E-01
 0.48200001E+02 -0.10078E+00
 0.48250000E+02 -0.11516E+00
 0.48299999E+02 -0.10617E+00
 0.48350002E+02 -0.66003E-01
 0.48400002E+02 -0.53426E-02
 0.48450001E+02  0.46133E-01
 0.48500000E+02  0.64662E-01
 0.48549999E+02  0.50346E-01
 0.48600002E+02  0.99519E-02
 0.48650002E+02 -0.18364E-01
 0.48700001E+02 -0.17106E-01
 0.48750000E+02  0.11408E-01
 0.48799999E+02  0.24192E-01
 0.48850002E+02 -0.55090E-02
 0.48900002E+02 -0.33311E-01
 0.48950001E+02 -0.42550E-01
 0.49000000E+02 -0.58734E-01
 0.49049999E+02 -0.79004E-01
 0.49100002E+02 -0.72184E-01
 0.49150002E+02 -0.41605E-01
 0.49200001E+02  0.14459E-02
 0.49250000E+02  0.32569E-01
 0.49299999E+02  0.29595E-01
 0.49350002E+02  0.10331E-01
 0.49400002E+02  0.25926E-02
 0.49450001E+02  0.62660E-03
 0.49500000E+02 -0.35957E-02
 0.49549999E+02  0.34327E-03
 0.49600002E+02  0.15209E-01
 0.49650002E+02  0.27069E-01
 0.49700001E+02  0.32525E-01
 0.49750000E+02  0.31351E-01
 0.49799999E+02  0.20453E-01
 0.49850002E+02  0.15544E-01
 0.49900002E+02  0.91337E-02
 0.49950001E+02 -0.48935E-02
 0.50000000E+02 -0.30466E-01
 0.50049999E+02 -0.57852E-01
 0.50100002E+02 -0.76817E-01
 0.50150002E+02 -0.89637E-01
 0.50200001E+02 -0.97285E-01
 0.50250000E+02 -0.10017E+00
 0.50299999E+02 -0.87477E-01
 0.50350002E+02 -0.65063E-01
 0.50400002E+02 -0.20542E-01
 0.50450001E+02  0.27832E-01
 0.50500000E+02  0.54133E-01
 0.50549999E+02  0.80930E-01
 0.50600002E+02  0.10733E+00
 0.50650002E+02  0.13256E+00
 0.50700001E+02  0.13567E+00
 0.50750000E+02  0.10910E+00
 0.50799999E+02  0.68878E-01
 0.50850002E+02  0.24331E-01
 0.50900002E+02 -0.17577E-01
 0.50950001E+02 -0.57630E-01
 0.51000000E+02 -0.81827E-01
 0.51049999E+02 -0.76342E-01
 0.51100002E+02 -0.33652E-01
 0.51150002E+02  0.25544E-01
 0.51200001E+02  0.71147E-01
 0.51250000E+02  0.82331E-01
 0.51299999E+02  0.71963E-01
 0.51350002E+02  0.42439E-01
 0.51400002E+02 -0.41444E-02
 0.51450001E+02 -0.46392E-01
 0.51500000E+02 -0.79099E-01
 0.51549999E+02 -0.80467E-01
 0.51600002E+02 -0.40404E-01
 0.51650002E+02  0.86724E-02
 0.51700001E+02  0.42255E-01
 0.51750000E+02  0.65653E-01
 0.51799999E+02  0.67939E-01
 0.51850002E+02  0.51010E-01
 0.51900002E+02  0.40074E-01
 0.51950001E+02  0.33754E-01
 0.52000000E+02  0.26416E-01
 0.52049999E+02  0.12552E-01
 0.52100002E+02 -0.16282E-01
 0.52150002E+02 -0.39654E-01
 0.52200001E+02 -0.39186E-01
 0.52250000E+02 -0.20449E-01
 0.52299999E+02  0.54290E-02
 0.52350002E+02  0.22242E-01
 0.52400002E+02  0.14015E-01
 0.52450001E+02  0.26367E-03
 0.52500000E+02 -0.16842E-01
 0.52549999E+02 -0.42804E-01
 0.52600002E+02 -0.52435E-01
 0.52650002E+02 -0.35319E-01
 0.52700001E+02 -0.10163E-01
 0.52750000E+02 -0.92679E-03
 0.52799999E+02 -0.22563E-02
 0.52850002E+02 -0.45720E-02
 0.52900002E+02  0.15046E-02
 0.52950001E+02  0.26281E-01
 0.53000000E+02  0.53994E-01
 0.53049999E+02  0.58466E-01
 0.53100002E+02  0.40151E-01
 0.53150002E+02 -0.18033E-02
 0.53200001E+02 -0.40462E-01
 0.53250000E+02 -0.50521E-01
 0.53299999E+02 -0.47725E-01
 0.53350002E+02 -0.49712E-01
 0.53400002E+02 -0.56816E-01
 0.53450001E+02 -0.62067E-01
 0.53500000E+02 -0.50194E-01
 0.53549999E+02 -0.13873E-01
 0.53600002E+02  0.14868E-01
 0.53650002E+02  0.26929E-01
 0.53700001E+02  0.23017E-01
 0.53750000E+02  0.86618E-02
 0.53799999E+02 -0.24023E-02
 0.53850002E+02 -0.97463E-03
 0.53900002E+02  0.50090E-02
 0.53950001E+02  0.68913E-02
 0.54000000E+02  0.42253E-02
 0.54049999E+02  0.21013E-03
 0.54100002E+02 -0.15122E-01
 0.54150002E+02 -0.43095E-01
 0.54200001E+02 -0.66116E-01
 0.54250000E+02 -0.87556E-01
 0.54299999E+02 -0.94971E-01
 0.54350002E+02 -0.78464E-01
 0.54400002E+02 -0.40600E-01
 0.54450001E+02  0.90105E-02
 0.54500000E+02  0.60529E-01
 0.54549999E+02  0.99123E-01
 0.54600002E+02  0.11411E+00
 0.54650002E+02  0.11117E+00
 0.54700001E+02  0.10313E+00
 0.54750000E+02  0.94089E-01
 0.54799999E+02  0.80344E-01
 0.54850002E+02  0.60861E-01
 0.54900002E+02  0.40253E-01
 0.54950001E+02  0.20465E-01
 0.55000000E+02 -0.80946E-02
 0.55049999E+02 -0.32683E-01
 0.55100002E+02 -0.44949E-01
 0.55150002E+02 -0.29687E-01
 0.55200001E+02 -0.12753E-02
 0.55250000E+02  0.17350E-01
 0.55299999E+02  0.27161E-01
 0.55350002E+02  0.19499E-01
 0.55400002E+02 -0.32588E-02
 0.55450001E+02 -0.37756E-01
 0.55500000E+02 -0.59445E-01
 0.55549999E+02 -0.62099E-01
 0.55600002E+02 -0.48273E-01
 0.55650002E+02 -0.18392E-01
 0.55700001E+02  0.90989E-02
 0.55750000E+02  0.30176E-01
 0.55799999E+02  0.38315E-01
 0.55850002E+02  0.27461E-01
 0.55900002E+02  0.11940E-01
 0.55950001E+02  0.85972E-02
 0.56000000E+02  0.16277E-01
 0.56049999E+02  0.11627E-01
 0.56100002E+02 -0.12870E-01
 0.56150002E+02 -0.39690E-01
 0.56200001E+02 -0.52639E-01
 0.56250000E+02 -0.45754E-01
 0.56299999E+02 -0.33285E-01
 0.56350002E+02 -0.26720E-01
 0.56400002E+02 -0.21294E-01
 0.56450001E+02 -0.18266E-01
 0.56500000E+02 -0.19467E-01
 0.56549999E+02 -0.20541E-01
 0.56600002E+02 -0.17816E-01
 0.56650002E+02 -0.13476E-02
 0.56700001E+02  0.17775E-01
 0.56750000E+02  0.25765E-01
 0.56799999E+02  0.25585E-01
 0.56850002E+02  0.18146E-01
 0.56900002E+02  0.13657E-01
 0.56950001E+02  0.84717E-02
 0.57000000E+02 -0.16477E-03
 0.57049999E+02 -0.54196E-02
 0.57100002E+02 -0.72738E-02
 0.57150002E+02 -0.34627E-02
 0.57200001E+02 -0.73333E-02
 0.57250000E+02 -0.26957E-01
 0.57299999E+02 -0.38692E-01
 0.57350002E+02 -0.35840E-01
 0.57400002E+02 -0.31773E-01
 0.57450001E+02 -0.23413E-01
 0.57500000E+02 -0.44440E-02
 0.57549999E+02  0.23430E-01
 0.57600002E+02  0.49266E-01
 0.57650002E+02  0.61208E-01
 0.57700001E+02  0.53292E-01
 0.57750000E+02  0.26073E-01
 0.57799999E+02 -0.43379E-02
 0.57850002E+02 -0.24085E-01
 0.57900002E+02 -0.31113E-01
 0.57950001E+02 -0.29308E-01
 0.58000000E+02 -0.24100E-01
 0.58049999E+02 -0.17450E-01
 0.58100002E+02 -0.68214E-02
 0.58150002E+02  0.50660E-02
 0.58200001E+02  0.14071E-01
 0.58250000E+02  0.23768E-01
 0.58299999E+02  0.26961E-01
 0.58350002E+02  0.23231E-01
 0.58400002E+02  0.17658E-01
 0.58450001E+02  0.76169E-02
 0.58500000E+02 -0.98847E-02
 0.58549999E+02 -0.17258E-01
 0.58600002E+02 -0.71524E-02
 0.58650002E+02  0.92734E-02
 0.58700001E+02  0.25433E-01
 0.58750000E+02  0.32559E-01
 0.58799999E+02  0.30912E-01
 0.58850002E+02  0.15299E-01
 0.58900002E+02 -0.10161E-01
 0.58950001E+02 -0.35317E-01
 0.59000000E+02 -0.49673E-01
 0.59049999E+02 -0.48018E-01
 0.59100002E+02 -0.36889E-01
 0.59150002E+02 -0.15915E-01
 0.59200001E+02  0.81613E-02
 0.59250000E+02  0.27599E-01
 0.59299999E+02  0.37523E-01
 0.59350002E+02  0.34760E-01
 0.59400002E+02  0.30270E-01
 0.59450001E+02  0.25438E-01
 0.59500000E+02  0.12035E-01
 0.59549999E+02 -0.10719E-01
 0.59600002E+02 -0.32925E-01
 0.59650002E+02 -0.48511E-01
 0.59700001E+02 -0.54052E-01
 0.59750000E+02 -0.41157E-01
 0.59799999E+02 -0.17915E-01
 0.59850002E+02  0.74181E-02
 0.59900002E+02  0.31582E-01
 0.59950001E+02  0.44389E-01
 0.60000000E+02  0.41417E-01
 0.60049999E+02  0.24669E-01
 0.60100002E+02  0.78583E-02
 0.60150002E+02 -0.15640E-02
 0.60200001E+02 -0.82437E-02
 0.60250000E+02 -0.10164E-01
 0.60299999E+02 -0.96704E-02
 0.60350002E+02 -0.24090E-02
 0.60400002E+02  0.10240E-01
 0.60450001E+02  0.16924E-01
 0.60500000E+02  0.59537E-02
 0.60549999E+02 -0.19778E-01
 0.60600002E+02 -0.36718E-01
 0.60650002E+02 -0.35762E-01
 0.60700001E+02 -0.22946E-01
 0.60750000E+02 -0.83362E-02
 0.60799999E+02  0.47948E-02
 0.60850002E+02  0.17265E-01
 0.60900002E+02  0.29071E-01
 0.60950001E+02  0.34844E-01
 0.61000000E+02  0.24554E-01
 0.61049999E+02  0.90260E-03
 0.61100002E+02 -0.25119E-01
 0.61150002E+02 -0.43808E-01
 0.61200001E+02 -0.48769E-01
 0.61250000E+02 -0.37890E-01
 0.61299999E+02 -0.12921E-01
 0.61350002E+02  0.14940E-01
 0.61400002E+02  0.37917E-01
 0.61450001E+02  0.54485E-01
 0.61500000E+02  0.55534E-01
 0.61549999E+02  0.36906E-01
 0.61600002E+02  0.10471E-01
 0.61650002E+02 -0.37393E-02
 0.61700001E+02 -0.22264E-02
 0.61750000E+02  0.85168E-02
 0.61799999E+02  0.24802E-01
 0.61850002E+02  0.36664E-01
 0.61900002E+02  0.37281E-01
 0.61950001E+02  0.24257E-01
 0.62000000E+02  0.82534E-03
 0.62049999E+02 -0.30675E-01
 0.62100002E+02 -0.64041E-01
 0.62150002E+02 -0.85636E-01
 0.62200001E+02 -0.84914E-01
 0.62250000E+02 -0.63927E-01
 0.62299999E+02 -0.29453E-01
 0.62350002E+02  0.17645E-01
 0.62400002E+02  0.65126E-01
 0.62450001E+02  0.95452E-01
 0.62500000E+02  0.97089E-01
 0.62549999E+02  0.75830E-01
 0.62600002E+02  0.40665E-01
 0.62650002E+02  0.11719E-02
 0.62700001E+02 -0.27536E-01
 0.62750000E+02 -0.42324E-01
 0.62799999E+02 -0.47166E-01
 0.62850002E+02 -0.42764E-01
 0.62900002E+02 -0.33735E-01
 0.62950001E+02 -0.23191E-01
 0.63000000E+02 -0.12359E-01
 0.63049999E+02 -0.43927E-02
 0.63100002E+02  0.26833E-03
 0.63150002E+02 -0.11458E-02
 0.63200001E+02 -0.21223E-02
 0.63250000E+02 -0.71948E-03
 0.63299999E+02  0.10679E-02
 0.63350002E+02  0.58666E-02
 0.63400002E+02  0.96838E-02
 0.63450001E+02  0.76076E-02
 0.63500000E+02  0.32066E-02
 0.63549999E+02 -0.35492E-02
 0.63600002E+02 -0.15431E-01
 0.63650002E+02 -0.25603E-01
 0.63700001E+02 -0.34882E-01
 0.63750000E+02 -0.41269E-01
 0.63799999E+02 -0.28707E-01
 0.63850002E+02 -0.78372E-03
 0.63900002E+02  0.23726E-01
 0.63950001E+02  0.36684E-01
 0.64000000E+02  0.36654E-01
 0.64050003E+02  0.26425E-01
 0.64099998E+02  0.14443E-01
 0.64150002E+02  0.73627E-02
 0.64200005E+02  0.89680E-02
 0.64250000E+02  0.19775E-01
 0.64300003E+02  0.34860E-01
 0.64349998E+02  0.44948E-01
 0.64400002E+02  0.41557E-01
 0.64450005E+02  0.33748E-01
 0.64500000E+02  0.21726E-01
 0.64550003E+02  0.25034E-02
 0.64599998E+02 -0.20008E-01
 0.64650002E+02 -0.43683E-01
 0.64700005E+02 -0.62021E-01
 0.64750000E+02 -0.65997E-01
 0.64800003E+02 -0.54924E-01
 0.64849998E+02 -0.37307E-01
 0.64900002E+02 -0.88290E-02
 0.64950005E+02  0.23226E-01
 0.65000000E+02  0.47456E-01
 0.65050003E+02  0.60246E-01
 0.65099998E+02  0.63283E-01
 0.65150002E+02  0.58361E-01
 0.65200005E+02  0.38554E-01
 0.65250000E+02  0.41599E-02
 0.65300003E+02 -0.30229E-01
 0.65349998E+02 -0.49733E-01
 0.65400002E+02 -0.53396E-01
 0.65450005E+02 -0.44555E-01
 0.65500000E+02 -0.31982E-01
 0.65550003E+02 -0.15515E-01
 0.65599998E+02  0.55514E-02
 0.65650002E+02  0.23289E-01
 0.65700005E+02  0.32006E-01
 0.65750000E+02  0.31073E-01
 0.65800003E+02  0.26093E-01
 0.65849998E+02  0.18318E-01
 0.65900002E+02  0.73547E-02
 0.65950005E+02 -0.74044E-02
 0.66000000E+02 -0.21670E-01
 0.66050003E+02 -0.29515E-01
 0.66099998E+02 -0.31156E-01
 0.66150002E+02 -0.29972E-01
 0.66200005E+02 -0.26935E-01
 0.66250000E+02 -0.16345E-01
 0.66300003E+02  0.13811E-02
 0.66349998E+02  0.23045E-01
 0.66400002E+02  0.43183E-01
 0.66450005E+02  0.49423E-01
 0.66500000E+02  0.40348E-01
 0.66550003E+02  0.19405E-01
 0.66599998E+02 -0.50234E-02
 0.66650002E+02 -0.21644E-01
 0.66700005E+02 -0.27966E-01
 0.66750000E+02 -0.23382E-01
 0.66800003E+02 -0.13494E-01
 0.66849998E+02 -0.42267E-02
 0.66900002E+02  0.47149E-02
 0.66950005E+02  0.14197E-01
 0.67000000E+02  0.21043E-01
 0.67050003E+02  0.24046E-01
 0.67099998E+02  0.22821E-01
 0.67150002E+02  0.20772E-01
 0.67200005E+02  0.17484E-01
 0.67250000E+02  0.83371E-02
 0.67300003E+02  0.17269E-03
 0.67349998E+02 -0.71336E-02
 0.67400002E+02 -0.14208E-01
 0.67450005E+02 -0.20871E-01
 0.67500000E+02 -0.27019E-01
 0.67550003E+02 -0.27272E-01
 0.67599998E+02 -0.26450E-01
 0.67650002E+02 -0.27557E-01
 0.67700005E+02 -0.28805E-01
 0.67750000E+02 -0.27933E-01
 0.67800003E+02 -0.21741E-01
 0.67849998E+02 -0.12251E-01
 0.67900002E+02 -0.51566E-02
 0.67950005E+02 -0.21569E-02
 0.68000000E+02 -0.85255E-03
 0.68050003E+02  0.94129E-03
 0.68099998E+02  0.51530E-02
 0.68150002E+02  0.13437E-01
 0.68200005E+02  0.20640E-01
 0.68250000E+02  0.18469E-01
 0.68300003E+02  0.93474E-02
 0.68349998E+02 -0.47869E-02
 0.68400002E+02 -0.19171E-01
 0.68450005E+02 -0.30996E-01
 0.68500000E+02 -0.40081E-01
 0.68550003E+02 -0.43124E-01
 0.68599998E+02 -0.41458E-01
 0.68650002E+02 -0.35200E-01
 0.68700005E+02 -0.25593E-01
 0.68750000E+02 -0.11595E-01
 0.68800003E+02  0.24201E-02
 0.68849998E+02  0.96469E-02
 0.68900002E+02  0.13406E-01
 0.68950005E+02  0.14342E-01
 0.69000000E+02  0.12412E-01
 0.69050003E+02  0.11551E-01
 0.69099998E+02  0.11186E-01
 0.69150002E+02  0.93884E-02
 0.69200005E+02  0.12340E-01
 0.69250000E+02  0.18387E-01
 0.69300003E+02  0.19387E-01
 0.69349998E+02  0.17107E-01
 0.69400002E+02  0.19481E-01
 0.69450005E+02  0.24507E-01
 0.69500000E+02  0.27467E-01
 0.69550003E+02  0.26509E-01
 0.69599998E+02  0.21478E-01
 0.69650002E+02  0.16746E-01
 0.69700005E+02  0.13456E-01
 0.69750000E+02  0.88776E-02
 0.69800003E+02  0.93068E-03
 0.69849998E+02 -0.27390E-02
 0.69900002E+02 -0.16537E-02
 0.69950005E+02  0.28942E-02
 0.70000000E+02  0.88733E-02
 0.70050003E+02  0.11141E-01
 0.70099998E+02  0.10974E-01
 0.70150002E+02  0.78193E-02
 0.70200005E+02  0.78021E-03
 0.70250000E+02 -0.61584E-02
 0.70300003E+02 -0.77670E-02
 0.70349998E+02 -0.43590E-02
 0.70400002E+02  0.43719E-03
 0.70450005E+02  0.76031E-02
 0.70500000E+02  0.16460E-01
 0.70550003E+02  0.20678E-01
 0.70599998E+02  0.20260E-01
 0.70650002E+02  0.17808E-01
 0.70700005E+02  0.16142E-01
 0.70750000E+02  0.16058E-01
 0.70800003E+02  0.11924E-01
 0.70849998E+02  0.56352E-02
 0.70900002E+02 -0.23657E-02
 0.70950005E+02 -0.10278E-01
 0.71000000E+02 -0.15691E-01
 0.71050003E+02 -0.19973E-01
 0.71099998E+02 -0.19753E-01
 0.71150002E+02 -0.17420E-01
 0.71200005E+02 -0.15829E-01
 0.71250000E+02 -0.13844E-01
 0.71300003E+02 -0.83162E-02
 0.71349998E+02 -0.34372E-02
 0.71400002E+02 -0.40816E-03
 0.71450005E+02 -0.27022E-02
 0.71500000E+02 -0.15754E-01
 0.71550003E+02 -0.32411E-01
 0.71599998E+02 -0.47525E-01
 0.71650002E+02 -0.55762E-01
 0.71700005E+02 -0.55496E-01
 0.71750000E+02 -0.45929E-01
 0.71800003E+02 -0.27850E-01
 0.71849998E+02 -0.92129E-02
 0.71900002E+02  0.47210E-02
 0.71950005E+02  0.15300E-01
 0.72000000E+02  0.24630E-01
 0.72050003E+02  0.30695E-01
 0.72099998E+02  0.34521E-01
 0.72150002E+02  0.37832E-01
 0.72200005E+02  0.39605E-01
 0.72250000E+02  0.35469E-01
 0.72300003E+02  0.21809E-01
 0.72349998E+02  0.44900E-02
 0.72400002E+02 -0.83608E-02
 0.72450005E+02 -0.15369E-01
 0.72500000E+02 -0.16982E-01
 0.72550003E+02 -0.15996E-01
 0.72599998E+02 -0.16641E-01
 0.72650002E+02 -0.16129E-01
 0.72700005E+02 -0.13400E-01
 0.72750000E+02 -0.11357E-01
 0.72800003E+02 -0.10664E-01
 0.72849998E+02 -0.87954E-02
 0.72900002E+02 -0.37327E-02
 0.72950005E+02  0.43323E-02
 0.73000000E+02  0.13779E-01
 0.73050003E+02  0.20558E-01
 0.73099998E+02  0.22265E-01
 0.73150002E+02  0.17378E-01
 0.73200005E+02  0.72912E-02
 0.73250000E+02 -0.78329E-02
 0.73300003E+02 -0.23543E-01
 0.73349998E+02 -0.35114E-01
 0.73400002E+02 -0.36833E-01
 0.73450005E+02 -0.26065E-01
 0.73500000E+02 -0.76169E-02
 0.73550003E+02  0.15247E-01
 0.73599998E+02  0.37494E-01
 0.73650002E+02  0.51753E-01
 0.73700005E+02  0.54430E-01
 0.73750000E+02  0.51530E-01
 0.73800003E+02  0.48042E-01
 0.73849998E+02  0.43338E-01
 0.73900002E+02  0.34481E-01
 0.73950005E+02  0.22624E-01
 0.74000000E+02  0.94942E-02
 0.74050003E+02 -0.31840E-02
 0.74099998E+02 -0.16876E-01
 0.74150002E+02 -0.27245E-01
 0.74200005E+02 -0.29219E-01
 0.74250000E+02 -0.25645E-01
 0.74300003E+02 -0.19990E-01
 0.74349998E+02 -0.16048E-01
 0.74400002E+02 -0.11733E-01
 0.74450005E+02 -0.73311E-02
 0.74500000E+02 -0.13007E-02
 0.74550003E+02  0.57677E-02
 0.74599998E+02  0.13157E-01
 0.74650002E+02  0.22206E-01
 0.74700005E+02  0.28465E-01
 0.74750000E+02  0.30554E-01
 0.74800003E+02  0.28975E-01
 0.74849998E+02  0.25779E-01
 0.74900002E+02  0.22231E-01
 0.74950005E+02  0.19029E-01
 0.75000000E+02  0.12520E-01
 0.75050003E+02  0.26139E-02
 0.75099998E+02 -0.69074E-02
 0.75150002E+02 -0.14771E-01
 0.75200005E+02 -0.17457E-01
 0.75250000E+02 -0.19287E-01
 0.75300003E+02 -0.20221E-01
 0.75349998E+02 -0.18312E-01
 0.75400002E+02 -0.14410E-01
 0.75450005E+02 -0.95524E-02
 0.75500000E+02 -0.86498E-02
 0.75550003E+02 -0.12179E-01
 0.75599998E+02 -0.19749E-01
 0.75650002E+02 -0.26858E-01
 0.75700005E+02 -0.29941E-01
 0.75750000E+02 -0.29906E-01
 0.75800003E+02 -0.28577E-01
 0.75849998E+02 -0.27423E-01
 0.75900002E+02 -0.22829E-01
 0.75950005E+02 -0.13440E-01
 0.76000000E+02  0.80170E-03
 0.76050003E+02  0.16844E-01
 0.76099998E+02  0.29963E-01
 0.76150002E+02  0.37490E-01
 0.76200005E+02  0.37777E-01
 0.76250000E+02  0.30466E-01
 0.76300003E+02  0.18481E-01
 0.76349998E+02  0.73370E-02
 0.76400002E+02 -0.19150E-02
 0.76450005E+02 -0.72876E-02
 0.76500000E+02 -0.10555E-01
 0.76550003E+02 -0.12055E-01
 0.76599998E+02 -0.12910E-01
 0.76650002E+02 -0.13968E-01
 0.76700005E+02 -0.12818E-01
 0.76750000E+02 -0.13758E-01
 0.76800003E+02 -0.16634E-01
 0.76849998E+02 -0.16191E-01
 0.76900002E+02 -0.13080E-01
 0.76950005E+02 -0.12309E-01
 0.77000000E+02 -0.11924E-01
 0.77050003E+02 -0.85401E-02
 0.77099998E+02 -0.35324E-02
 0.77150002E+02  0.95715E-03
 0.77200005E+02  0.37918E-02
 0.77250000E+02  0.39243E-02
 0.77300003E+02  0.70017E-03
 0.77349998E+02 -0.21246E-02
 0.77400002E+02 -0.12528E-02
 0.77450005E+02  0.29142E-02
 0.77500000E+02  0.85763E-02
 0.77550003E+02  0.14996E-01
 0.77599998E+02  0.22301E-01
 0.77650002E+02  0.25252E-01
 0.77700005E+02  0.23451E-01
 0.77750000E+02  0.20225E-01
 0.77800003E+02  0.15497E-01
 0.77849998E+02  0.11857E-01
 0.77900002E+02  0.82861E-02
 0.77950005E+02  0.66822E-02
 0.78000000E+02  0.90800E-02
 0.78050003E+02  0.13217E-01
 0.78099998E+02  0.14902E-01
 0.78150002E+02  0.14021E-01
 0.78200005E+02  0.92558E-02
 0.78250000E+02 -0.21383E-03
 0.78300003E+02 -0.69349E-02
 0.78349998E+02 -0.99679E-02
 0.78400002E+02 -0.10969E-01
 0.78450005E+02 -0.10557E-01
 0.78500000E+02 -0.88991E-02
 0.78550003E+02 -0.59334E-02
 0.78599998E+02 -0.26315E-02
 0.78650002E+02 -0.92492E-03
 0.78700005E+02 -0.47125E-03
 0.78750000E+02 -0.17682E-02
 0.78800003E+02 -0.37407E-02
 0.78849998E+02 -0.64575E-02
 0.78900002E+02 -0.10410E-01
 0.78950005E+02 -0.14485E-01
 0.79000000E+02 -0.17670E-01
 0.79050003E+02 -0.18823E-01
 0.79099998E+02 -0.18095E-01
 0.79150002E+02 -0.14910E-01
 0.79200005E+02 -0.11024E-01
 0.79250000E+02 -0.81995E-02
 0.79300003E+02 -0.77171E-02
 0.79349998E+02 -0.10684E-01
 0.79400002E+02 -0.15106E-01
 0.79450005E+02 -0.18387E-01
 0.79500000E+02 -0.19575E-01
 0.79550003E+02 -0.18013E-01
 0.79599998E+02 -0.13612E-01
 0.79650002E+02 -0.80545E-02
 0.79700005E+02 -0.33410E-02
 0.79750000E+02  0.12606E-02
 0.79800003E+02  0.45143E-02
 0.79849998E+02  0.61082E-02
 0.79900002E+02  0.63113E-02
 0.79950005E+02  0.52352E-02
 0.80000000E+02  0.42560E-02
 0.80050003E+02  0.41088E-02
 0.80099998E+02  0.46366E-02
 0.80150002E+02  0.64099E-02
 0.80200005E+02  0.83069E-02
 0.80250000E+02  0.97287E-02
 0.80300003E+02  0.99776E-02
 0.80349998E+02  0.75165E-02
 0.80400002E+02  0.58757E-02
 0.80450005E+02  0.62735E-02
 0.80500000E+02  0.89425E-02
 0.80550003E+02  0.11725E-01
 0.80599998E+02  0.12353E-01
 0.80650002E+02  0.84806E-02
 0.80700005E+02  0.12075E-02
 0.80750000E+02 -0.62558E-02
 0.80800003E+02 -0.12399E-01
 0.80849998E+02 -0.14787E-01
 0.80900002E+02 -0.13590E-01
 0.80950005E+02 -0.82270E-02
 0.81000000E+02 -0.17042E-02
 0.81050003E+02  0.25818E-02
 0.81099998E+02  0.41036E-02
 0.81150002E+02  0.25931E-02
 0.81200005E+02 -0.40649E-02
 0.81250000E+02 -0.13380E-01
 0.81300003E+02 -0.18638E-01
 0.81349998E+02 -0.17267E-01
 0.81400002E+02 -0.94748E-02
 0.81450005E+02 -0.95043E-03
 0.81500000E+02  0.47597E-02
 0.81550003E+02  0.63553E-02
 0.81599998E+02  0.67245E-02
 0.81650002E+02  0.71479E-02
 0.81700005E+02  0.62501E-02
 0.81750000E+02  0.83233E-02
 0.81800003E+02  0.12466E-01
 0.81849998E+02  0.16918E-01
 0.81900002E+02  0.18555E-01
 0.81950005E+02  0.17385E-01
 0.82000000E+02  0.12579E-01
 0.82050003E+02  0.60388E-02
 0.82099998E+02  0.15542E-03
 0.82150002E+02 -0.51244E-02
 0.82200005E+02 -0.79550E-02
 0.82250000E+02 -0.72433E-02
 0.82300003E+02 -0.24223E-02
 0.82349998E+02  0.21016E-02
 0.82400002E+02  0.65434E-02
 0.82450005E+02  0.96781E-02
 0.82500000E+02  0.10627E-01
 0.82550003E+02  0.12891E-01
 0.82599998E+02  0.15169E-01
 0.82650002E+02  0.15153E-01
 0.82700005E+02  0.14338E-01
 0.82750000E+02  0.13008E-01
 0.82800003E+02  0.13083E-01
 0.82849998E+02  0.13075E-01
 0.82900002E+02  0.11684E-01
 0.82950005E+02  0.10772E-01
 0.83000000E+02  0.90934E-02
 0.83050003E+02  0.52991E-02
 0.83099998E+02 -0.10194E-03
 0.83150002E+02 -0.52251E-02
 0.83200005E+02 -0.11080E-01
 0.83250000E+02 -0.17206E-01
 0.83300003E+02 -0.23555E-01
 0.83349998E+02 -0.27675E-01
 0.83400002E+02 -0.26352E-01
 0.83450005E+02 -0.20787E-01
 0.83500000E+02 -0.14681E-01
 0.83550003E+02 -0.10281E-01
 0.83599998E+02 -0.70461E-02
 0.83650002E+02 -0.59451E-02
 0.83700005E+02 -0.50383E-02
 0.83750000E+02 -0.44969E-02
 0.83800003E+02 -0.39584E-02
 0.83849998E+02 -0.23668E-02
 0.83900002E+02 -0.45373E-03
 0.83950005E+02  0.66547E-03
 0.84000000E+02  0.53703E-03
 0.84050003E+02  0.46191E-03
 0.84099998E+02  0.91469E-03
 0.84150002E+02  0.23544E-02
 0.84200005E+02  0.23838E-02
 0.84250000E+02  0.10542E-02
 0.84300003E+02  0.23954E-02
 0.84349998E+02  0.56502E-02
 0.84400002E+02  0.56960E-02
 0.84450005E+02  0.26994E-02
 0.84500000E+02 -0.28348E-02
 0.84550003E+02 -0.86609E-02
 0.84599998E+02 -0.10994E-01
 0.84650002E+02 -0.96857E-02
 0.84700005E+02 -0.50208E-02
 0.84750000E+02 -0.22584E-02
 0.84800003E+02 -0.11400E-02
 0.84849998E+02  0.25298E-02
 0.84900002E+02  0.86208E-02
 0.84950005E+02  0.18320E-01
 0.85000000E+02  0.28420E-01
 0.85050003E+02  0.35623E-01
 0.85099998E+02  0.38238E-01
 0.85150002E+02  0.36881E-01
 0.85200005E+02  0.31179E-01
 0.85250000E+02  0.22239E-01
 0.85300003E+02  0.13556E-01
 0.85349998E+02  0.48996E-02
 0.85400002E+02 -0.16598E-02
 0.85450005E+02 -0.57738E-02
 0.85500000E+02 -0.73556E-02
 0.85550003E+02 -0.74814E-02
 0.85599998E+02 -0.77831E-02
 0.85650002E+02 -0.59616E-02
 0.85700005E+02 -0.13318E-02
 0.85750000E+02  0.30458E-02
 0.85800003E+02  0.54284E-02
 0.85849998E+02  0.63260E-02
 0.85900002E+02  0.62471E-02
 0.85950005E+02  0.55189E-02
 0.86000000E+02  0.32622E-02
 0.86050003E+02 -0.11285E-03
 0.86099998E+02 -0.37304E-02
 0.86150002E+02 -0.73103E-02
 0.86200005E+02 -0.11290E-01
 0.86250000E+02 -0.14026E-01
 0.86300003E+02 -0.14420E-01
 0.86349998E+02 -0.11853E-01
 0.86400002E+02 -0.63839E-02
 0.86450005E+02 -0.16541E-02
 0.86500000E+02  0.18551E-02
 0.86550003E+02  0.80296E-03
 0.86599998E+02 -0.57166E-02
 0.86650002E+02 -0.13074E-01
 0.86700005E+02 -0.17065E-01
 0.86750000E+02 -0.16708E-01
 0.86800003E+02 -0.12705E-01
 0.86849998E+02 -0.63422E-02
 0.86900002E+02  0.35129E-03
 0.86950005E+02  0.68317E-02
 0.87000000E+02  0.10895E-01
 0.87050003E+02  0.11673E-01
 0.87099998E+02  0.93045E-02
 0.87150002E+02  0.39506E-02
 0.87200005E+02 -0.20792E-02
 0.87250000E+02 -0.80955E-02
 0.87300003E+02 -0.13306E-01
 0.87349998E+02 -0.15178E-01
 0.87400002E+02 -0.14075E-01
 0.87450005E+02 -0.11175E-01
 0.87500000E+02 -0.90063E-02
 0.87550003E+02 -0.76610E-02
 0.87599998E+02 -0.66319E-02
 0.87650002E+02 -0.70951E-02
 0.87700005E+02 -0.76231E-02
 0.87750000E+02 -0.79422E-02
 0.87800003E+02 -0.75792E-02
 0.87849998E+02 -0.63848E-02
 0.87900002E+02 -0.55282E-02
 0.87950005E+02 -0.59504E-02
 0.88000000E+02 -0.73763E-02
 0.88050003E+02 -0.83421E-02
 0.88099998E+02 -0.10260E-01
 0.88150002E+02 -0.11912E-01
 0.88200005E+02 -0.12268E-01
 0.88250000E+02 -0.13043E-01
 0.88300003E+02 -0.12087E-01
 0.88349998E+02 -0.94488E-02
 0.88400002E+02 -0.64990E-02
 0.88450005E+02 -0.26040E-02
 0.88500000E+02  0.30415E-02
 0.88550003E+02  0.10419E-01
 0.88599998E+02  0.17505E-01
 0.88650002E+02  0.21998E-01
 0.88700005E+02  0.23333E-01
 0.88750000E+02  0.22076E-01
 0.88800003E+02  0.18040E-01
 0.88849998E+02  0.11390E-01
 0.88900002E+02  0.23078E-02
 0.88950005E+02 -0.67996E-02
 0.89000000E+02 -0.11920E-01
 0.89050003E+02 -0.12949E-01
 0.89099998E+02 -0.12083E-01
 0.89150002E+02 -0.10365E-01
 0.89200005E+02 -0.79925E-02
 0.89250000E+02 -0.37497E-02
 0.89300003E+02  0.37656E-02
 0.89349998E+02  0.13098E-01
 0.89400002E+02  0.20907E-01
 0.89450005E+02  0.23327E-01
 0.89500000E+02  0.19299E-01
 0.89550003E+02  0.11682E-01
 0.89599998E+02  0.34488E-02
 0.89650002E+02 -0.51634E-02
 0.89700005E+02 -0.12846E-01
 0.89750000E+02 -0.16824E-01
 0.89800003E+02 -0.15764E-01
 0.89849998E+02 -0.10977E-01
 0.89900002E+02 -0.43834E-02
 0.89950005E+02  0.31747E-02
 0.90000000E+02  0.10411E-01
 0.90050003E+02  0.16575E-01
 0.90099998E+02  0.20987E-01
 0.90150002E+02  0.22996E-01
 0.90200005E+02  0.22619E-01
 0.90250000E+02  0.18141E-01
 0.90300003E+02  0.91887E-02
 0.90349998E+02  0.86316E-03
 0.90400002E+02 -0.41014E-02
 0.90450005E+02 -0.49488E-02
 0.90500000E+02 -0.24679E-02
 0.90550003E+02  0.11910E-02
 0.90599998E+02  0.44792E-02
 0.90650002E+02  0.58562E-02
 0.90700005E+02  0.48799E-02
 0.90750000E+02  0.47393E-03
 0.90800003E+02 -0.60442E-02
 0.90849998E+02 -0.11085E-01
 0.90900002E+02 -0.12690E-01
 0.90950005E+02 -0.10543E-01
 0.91000000E+02 -0.56251E-02
 0.91050003E+02  0.93406E-03
 0.91099998E+02  0.76904E-02
 0.91150002E+02  0.13140E-01
 0.91200005E+02  0.17422E-01
 0.91250000E+02  0.18731E-01
 0.91300003E+02  0.15667E-01
 0.91349998E+02  0.95616E-02
 0.91400002E+02  0.21325E-02
 0.91450005E+02 -0.36128E-02
 0.91500000E+02 -0.57961E-02
 0.91550003E+02 -0.49659E-02
 0.91599998E+02 -0.12270E-02
 0.91650002E+02  0.41163E-02
 0.91700005E+02  0.85288E-02
 0.91750000E+02  0.10944E-01
 0.91800003E+02  0.99842E-02
 0.91849998E+02  0.42700E-02
 0.91900002E+02 -0.52843E-02
 0.91950005E+02 -0.16505E-01
 0.92000000E+02 -0.26114E-01
 0.92050003E+02 -0.30997E-01
 0.92099998E+02 -0.31204E-01
 0.92150002E+02 -0.27608E-01
 0.92200005E+02 -0.20638E-01
 0.92250000E+02 -0.12626E-01
 0.92300003E+02 -0.60444E-02
 0.92349998E+02 -0.23099E-02
 0.92400002E+02 -0.16287E-02
 0.92450005E+02 -0.31723E-02
 0.92500000E+02 -0.50226E-02
 0.92550003E+02 -0.59657E-02
 0.92599998E+02 -0.69361E-02
 0.92650002E+02 -0.90349E-02
 0.92700005E+02 -0.11803E-01
 0.92750000E+02 -0.14628E-01
 0.92800003E+02 -0.16402E-01
 0.92849998E+02 -0.15569E-01
 0.92900002E+02 -0.12329E-01
 0.92950005E+02 -0.73068E-02
 0.93000000E+02 -0.24846E-02
 0.93050003E+02  0.16141E-02
 0.93099998E+02  0.44565E-02
 0.93150002E+02  0.54735E-02
 0.93200005E+02  0.50801E-02
 0.93250000E+02  0.26812E-02
 0.93300003E+02  0.17109E-03
 0.93349998E+02 -0.18875E-03
 0.93400002E+02  0.85780E-03
 0.93450005E+02  0.15805E-02
 0.93500000E+02  0.11590E-02
 0.93550003E+02 -0.56833E-03
 0.93599998E+02 -0.29098E-02
 0.93650002E+02 -0.47083E-02
 0.93700005E+02 -0.62626E-02
 0.93750000E+02 -0.70873E-02
 0.93800003E+02 -0.60318E-02
 0.93849998E+02 -0.38110E-02
 0.93900002E+02 -0.52814E-03
 0.93950005E+02  0.35374E-02
 0.94000000E+02  0.87389E-02
 0.94050003E+02  0.15042E-01
 0.94099998E+02  0.19299E-01
 0.94150002E+02  0.20626E-01
 0.94200005E+02  0.20257E-01
 0.94250000E+02  0.18352E-01
 0.94300003E+02  0.15821E-01
 0.94349998E+02  0.14065E-01
 0.94400002E+02  0.13652E-01
 0.94450005E+02  0.14524E-01
 0.94500000E+02  0.15153E-01
 0.94550003E+02  0.14668E-01
 0.94599998E+02  0.14603E-01
 0.94650002E+02  0.14581E-01
 0.94700005E+02  0.15192E-01
 0.94750000E+02  0.16429E-01
 0.94800003E+02  0.16808E-01
 0.94849998E+02  0.16757E-01
 0.94900002E+02  0.15836E-01
 0.94950005E+02  0.14764E-01
 0.95000000E+02  0.13349E-01
 0.95050003E+02  0.11720E-01
 0.95099998E+02  0.90462E-02
 0.95150002E+02  0.34134E-02
 0.95200005E+02 -0.38945E-02
 0.95250000E+02 -0.10645E-01
 0.95300003E+02 -0.14894E-01
 0.95349998E+02 -0.16241E-01
 0.95400002E+02 -0.13503E-01
 0.95450005E+02 -0.63745E-02
 0.95500000E+02  0.31150E-02
 0.95550003E+02  0.11309E-01
 0.95599998E+02  0.14726E-01
 0.95650002E+02  0.13337E-01
 0.95700005E+02  0.94414E-02
 0.95750000E+02  0.53631E-02
 0.95800003E+02  0.15169E-02
 0.95849998E+02 -0.12066E-02
 0.95900002E+02 -0.19460E-02
 0.95950005E+02 -0.62681E-03
 0.96000000E+02  0.16546E-02
 0.96050003E+02  0.27424E-02
 0.96099998E+02  0.28627E-02
 0.96150002E+02  0.23875E-02
 0.96200005E+02  0.10341E-02
 0.96250000E+02 -0.14356E-02
 0.96300003E+02 -0.60515E-02
 0.96349998E+02 -0.12150E-01
 0.96400002E+02 -0.18604E-01
 0.96450005E+02 -0.24307E-01
 0.96500000E+02 -0.27174E-01
 0.96550003E+02 -0.27334E-01
 0.96599998E+02 -0.25710E-01
 0.96650002E+02 -0.23802E-01
 0.96700005E+02 -0.21980E-01
 0.96750000E+02 -0.20161E-01
 0.96800003E+02 -0.18079E-01
 0.96849998E+02 -0.16247E-01
 0.96900002E+02 -0.15235E-01
 0.96950005E+02 -0.15425E-01
 0.97000000E+02 -0.17648E-01
 0.97050003E+02 -0.19874E-01
 0.97099998E+02 -0.20088E-01
 0.97150002E+02 -0.17514E-01
 0.97200005E+02 -0.12780E-01
 0.97250000E+02 -0.63705E-02
 0.97300003E+02  0.20344E-03
 0.97349998E+02  0.58306E-02
 0.97400002E+02  0.10862E-01
 0.97450005E+02  0.15705E-01
 0.97500000E+02  0.19156E-01
 0.97550003E+02  0.18988E-01
 0.97599998E+02  0.15748E-01
 0.97650002E+02  0.11125E-01
 0.97700005E+02  0.51339E-02
 0.97750000E+02 -0.10012E-02
 0.97800003E+02 -0.52291E-02
 0.97849998E+02 -0.68573E-02
 0.97900002E+02 -0.62341E-02
 0.97950005E+02 -0.48272E-02
 0.98000000E+02 -0.30052E-02
 0.98050003E+02 -0.73512E-03
 0.98099998E+02  0.33002E-02
 0.98150002E+02  0.88419E-02
 0.98200005E+02  0.13856E-01
 0.98250000E+02  0.16758E-01
 0.98300003E+02  0.16838E-01
 0.98349998E+02  0.15780E-01
 0.98400002E+02  0.14200E-01
 0.98450005E+02  0.11674E-01
 0.98500000E+02  0.85284E-02
 0.98550003E+02  0.52999E-02
 0.98599998E+02  0.29181E-02
 0.98650002E+02  0.12230E-02
 0.98700005E+02 -0.71137E-03
 0.98750000E+02 -0.19248E-02
 0.98800003E+02 -0.60263E-03
 0.98849998E+02  0.31431E-02
 0.98900002E+02  0.69644E-02
 0.98950005E+02  0.89871E-02
 0.99000000E+02  0.88103E-02
 0.99050003E+02  0.67931E-02
 0.99099998E+02  0.28688E-02
 0.99150002E+02 -0.10366E-02
 0.99200005E+02 -0.31486E-02
 0.99250000E+02 -0.37141E-02
 0.99300003E+02 -0.33361E-02
 0.99349998E+02 -0.31914E-02
 0.99400002E+02 -0.25959E-02
 0.99450005E+02 -0.58447E-03
 0.99500000E+02  0.17611E-02
 0.99550003E+02  0.34143E-02
 0.99599998E+02  0.49829E-02
 0.99650002E+02  0.65519E-02
 0.99700005E+02  0.69468E-02
 0.99750000E+02  0.49815E-02
 0.99800003E+02  0.87976E-03
 0.99849998E+02 -0.37505E-02
 0.99900002E+02 -0.67792E-02
 0.99950005E+02 -0.78647E-02
 0.10000000E+03 -0.81625E-02
 0.10005000E+03 -0.91406E-02
 0.10010000E+03 -0.10931E-01
 0.10015000E+03 -0.11743E-01
 0.10020000E+03 -0.10521E-01
 0.10025000E+03 -0.77912E-02
 0.10030000E+03 -0.41855E-02
 0.10035000E+03 -0.56183E-03
 0.10040000E+03  0.22129E-02
 0.10045000E+03  0.50758E-02
 0.10050000E+03  0.83323E-02
 0.10055000E+03  0.10776E-01
 0.10060000E+03  0.10444E-01
 0.10065000E+03  0.64682E-02
 0.10070000E+03  0.16021E-02
 0.10075000E+03 -0.88798E-03
 0.10080000E+03 -0.10092E-02
 0.10085000E+03  0.12448E-03
 0.10090000E+03  0.11437E-02
 0.10095000E+03  0.12550E-02
 0.10100000E+03  0.13841E-02
 0.10105000E+03  0.22743E-02
 0.10110000E+03  0.35881E-02
 0.10115000E+03  0.51065E-02
 0.10120000E+03  0.63475E-02
 0.10125000E+03  0.69732E-02
 0.10130000E+03  0.65947E-02
 0.10135000E+03  0.45024E-02
 0.10140000E+03  0.13331E-02
 0.10145000E+03 -0.17090E-02
 0.10150000E+03 -0.40843E-02
 0.10155000E+03 -0.63579E-02
 0.10160000E+03 -0.92270E-02
 0.10165000E+03 -0.11885E-01
 0.10170000E+03 -0.13055E-01
 0.10175000E+03 -0.12569E-01
 0.10180000E+03 -0.11041E-01
 0.10185000E+03 -0.95695E-02
 0.10190000E+03 -0.81292E-02
 0.10195000E+03 -0.70267E-02
 0.10200000E+03 -0.62300E-02
 0.10205000E+03 -0.52275E-02
 0.10210000E+03 -0.44672E-02
 0.10215000E+03 -0.36225E-02
 0.10220000E+03 -0.26079E-02
 0.10225000E+03 -0.19772E-02
 0.10230000E+03 -0.21883E-02
 0.10235000E+03 -0.28155E-02
 0.10240000E+03 -0.33192E-02
 0.10245000E+03 -0.33791E-02
 0.10250000E+03 -0.31501E-02
 0.10255000E+03 -0.32387E-02
 0.10260000E+03 -0.21620E-02
 0.10265000E+03  0.69356E-03
 0.10270000E+03  0.34619E-02
 0.10275000E+03  0.51790E-02
 0.10280000E+03  0.58281E-02
 0.10285000E+03  0.57586E-02
 0.10290000E+03  0.49506E-02
 0.10295000E+03  0.31395E-02
 0.10300000E+03 -0.56439E-03
 0.10305000E+03 -0.60525E-02
 0.10310000E+03 -0.10477E-01
 0.10315000E+03 -0.12734E-01
 0.10320000E+03 -0.12833E-01
 0.10325000E+03 -0.10912E-01
 0.10330000E+03 -0.75930E-02
 0.10335000E+03 -0.29847E-02
 0.10340000E+03  0.13712E-02
 0.10345000E+03  0.39947E-02
 0.10350000E+03  0.48195E-02
 0.10355000E+03  0.40440E-02
 0.10360000E+03  0.25195E-02
 0.10365000E+03  0.13439E-02
 0.10370000E+03  0.97808E-03
 0.10375000E+03  0.11136E-02
 0.10380000E+03  0.91678E-03
 0.10385000E+03  0.11158E-02
 0.10390000E+03  0.19855E-02
 0.10395000E+03  0.30092E-02
 0.10400000E+03  0.40617E-02
 0.10405000E+03  0.51330E-02
 0.10410000E+03  0.64159E-02
 0.10415000E+03  0.85975E-02
 0.10420000E+03  0.11170E-01
 0.10425000E+03  0.12099E-01
 0.10430000E+03  0.10678E-01
 0.10435000E+03  0.78471E-02
 0.10440000E+03  0.57681E-02
 0.10445000E+03  0.50857E-02
 0.10450000E+03  0.51376E-02
 0.10455000E+03  0.50450E-02
 0.10460000E+03  0.51487E-02
 0.10465000E+03  0.62836E-02
 0.10470000E+03  0.87884E-02
 0.10475000E+03  0.11250E-01
 0.10480000E+03  0.11870E-01
 0.10485000E+03  0.11249E-01
 0.10490000E+03  0.10305E-01
 0.10495000E+03  0.90386E-02
 0.10500000E+03  0.63893E-02
 0.10505000E+03  0.19469E-02
 0.10510000E+03 -0.33195E-02
 0.10515000E+03 -0.86783E-02
 0.10520000E+03 -0.13295E-01
 0.10525000E+03 -0.16201E-01
 0.10530000E+03 -0.17418E-01
 0.10535000E+03 -0.17282E-01
 0.10540000E+03 -0.16565E-01
 0.10545000E+03 -0.15387E-01
 0.10550000E+03 -0.13706E-01
 0.10555000E+03 -0.10818E-01
 0.10560000E+03 -0.65737E-02
 0.10565000E+03 -0.16915E-02
 0.10570000E+03  0.35688E-02
 0.10575000E+03  0.78247E-02
 0.10580000E+03  0.10804E-01
 0.10585000E+03  0.12725E-01
 0.10590000E+03  0.14091E-01
 0.10595000E+03  0.15910E-01
 0.10600000E+03  0.18189E-01
 0.10605000E+03  0.19958E-01
 0.10610000E+03  0.19837E-01
 0.10615000E+03  0.17429E-01
 0.10620000E+03  0.12965E-01
 0.10625000E+03  0.68464E-02
 0.10630000E+03 -0.34577E-03
 0.10635000E+03 -0.77734E-02
 0.10640000E+03 -0.13601E-01
 0.10645000E+03 -0.15841E-01
 0.10650000E+03 -0.13818E-01
 0.10655000E+03 -0.90750E-02
 0.10660000E+03 -0.44559E-02
 0.10665000E+03 -0.18279E-02
 0.10670000E+03 -0.14469E-02
 0.10675000E+03 -0.18023E-02
 0.10680000E+03 -0.15874E-02
 0.10685000E+03 -0.17174E-03
 0.10690000E+03  0.14279E-02
 0.10695000E+03  0.29327E-02
 0.10700000E+03  0.43387E-02
 0.10705000E+03  0.46049E-02
 0.10710000E+03  0.47641E-02
 0.10715000E+03  0.51346E-02
 0.10720000E+03  0.57211E-02
 0.10725000E+03  0.59789E-02
 0.10730000E+03  0.53033E-02
 0.10735000E+03  0.38663E-02
 0.10740000E+03  0.22935E-02
 0.10745000E+03  0.96426E-03
 0.10750000E+03 -0.59989E-03
 0.10755000E+03 -0.21159E-02
 0.10760000E+03 -0.32202E-02
 0.10765000E+03 -0.48830E-02
 0.10770000E+03 -0.81656E-02
 0.10775000E+03 -0.12718E-01
 0.10780000E+03 -0.17704E-01
 0.10785000E+03 -0.22067E-01
 0.10790000E+03 -0.24314E-01
 0.10795000E+03 -0.23318E-01
 0.10800000E+03 -0.19156E-01
 0.10805000E+03 -0.13137E-01
 0.10810000E+03 -0.70849E-02
 0.10815000E+03 -0.20190E-02
 0.10820000E+03  0.64083E-03
 0.10825000E+03  0.95702E-03
 0.10830000E+03  0.40570E-04
 0.10835000E+03 -0.18529E-02
 0.10840000E+03 -0.41381E-02
 0.10845000E+03 -0.66159E-02
 0.10850000E+03 -0.86976E-02
 0.10855000E+03 -0.99793E-02
 0.10860000E+03 -0.11027E-01
 0.10865000E+03 -0.12201E-01
 0.10870000E+03 -0.13615E-01
 0.10875000E+03 -0.14246E-01
 0.10880000E+03 -0.13124E-01
 0.10885000E+03 -0.10349E-01
 0.10890000E+03 -0.60743E-02
 0.10895000E+03 -0.17348E-02
 0.10900000E+03  0.18975E-02
 0.10905000E+03  0.42618E-02
 0.10910000E+03  0.53933E-02
 0.10915000E+03  0.59071E-02
 0.10920000E+03  0.62913E-02
 0.10925000E+03  0.72518E-02
 0.10930000E+03  0.79347E-02
 0.10935000E+03  0.89574E-02
 0.10940000E+03  0.10538E-01
 0.10945000E+03  0.11981E-01
 0.10950000E+03  0.12660E-01
 0.10955000E+03  0.11246E-01
 0.10960000E+03  0.80734E-02
 0.10965000E+03  0.41298E-02
 0.10970000E+03  0.97021E-03
 0.10975000E+03 -0.86288E-03
 0.10980000E+03 -0.12691E-02
 0.10985000E+03  0.14775E-03
 0.10990000E+03  0.28883E-02
 0.10995000E+03  0.62813E-02
 0.11000000E+03  0.95904E-02
 0.11005000E+03  0.12752E-01
 0.11010000E+03  0.15515E-01
 0.11015000E+03  0.17862E-01
 0.11020000E+03  0.20038E-01
 0.11025000E+03  0.21483E-01
 0.11030000E+03  0.21410E-01
 0.11035000E+03  0.19685E-01
 0.11040000E+03  0.17544E-01
 0.11045000E+03  0.15318E-01
 0.11050000E+03  0.12477E-01
 0.11055000E+03  0.88393E-02
 0.11060000E+03  0.47143E-02
 0.11065000E+03  0.12483E-03
 0.11070000E+03 -0.54322E-02
 0.11075000E+03 -0.10853E-01
 0.11080000E+03 -0.14791E-01
 0.11085000E+03 -0.15990E-01
 0.11090000E+03 -0.14706E-01
 0.11095000E+03 -0.11546E-01
 0.11100000E+03 -0.67253E-02
 0.11105000E+03 -0.14681E-02
 0.11110000E+03  0.29224E-02
 0.11115000E+03  0.56584E-02
 0.11120000E+03  0.67556E-02
 0.11125000E+03  0.61060E-02
 0.11130000E+03  0.45402E-02
 0.11135000E+03  0.27946E-02
 0.11140000E+03  0.12477E-02
 0.11145000E+03  0.56035E-03
 0.11150000E+03  0.84721E-04
 0.11155000E+03 -0.69569E-03
 0.11160000E+03 -0.11642E-02
 0.11165000E+03 -0.99322E-03
 0.11170000E+03 -0.35470E-03
 0.11175000E+03 -0.32310E-03
 0.11180000E+03 -0.15538E-02
 0.11185000E+03 -0.30659E-02
 0.11190000E+03 -0.35375E-02
 0.11195000E+03 -0.30882E-02
 0.11200000E+03 -0.22952E-02
 0.11205000E+03 -0.16233E-02
 0.11210000E+03 -0.17061E-02
 0.11215000E+03 -0.27459E-02
 0.11220000E+03 -0.47966E-02
 0.11225000E+03 -0.67372E-02
 0.11230000E+03 -0.75568E-02
 0.11235000E+03 -0.72553E-02
 0.11240000E+03 -0.67249E-02
 0.11245000E+03 -0.70306E-02
 0.11250000E+03 -0.76272E-02
 0.11255000E+03 -0.80266E-02
 0.11260000E+03 -0.83569E-02
 0.11265000E+03 -0.84123E-02
 0.11270000E+03 -0.85602E-02
 0.11275000E+03 -0.88072E-02
 0.11280000E+03 -0.83880E-02
 0.11285000E+03 -0.68217E-02
 0.11290000E+03 -0.41030E-02
 0.11295000E+03 -0.74542E-03
 0.11300000E+03  0.20612E-02
 0.11305000E+03  0.31238E-02
 0.11310000E+03  0.23109E-02
 0.11315000E+03  0.99509E-03
 0.11320000E+03  0.88987E-04
 0.11325000E+03 -0.23405E-03
 0.11330000E+03 -0.27025E-04
 0.11335000E+03  0.26008E-03
 0.11340000E+03  0.91286E-03
 0.11345000E+03  0.13972E-02
 0.11350000E+03  0.12240E-02
 0.11355000E+03  0.27968E-03
 0.11360000E+03 -0.10403E-02
 0.11365000E+03 -0.11701E-02
 0.11370000E+03 -0.53144E-04
 0.11375000E+03  0.14394E-02
 0.11380000E+03  0.26341E-02
 0.11385000E+03  0.33425E-02
 0.11390000E+03  0.35479E-02
 0.11395000E+03  0.35411E-02
 0.11400000E+03  0.37328E-02
 0.11405000E+03  0.37425E-02
 0.11410000E+03  0.36796E-02
 0.11415000E+03  0.37247E-02
 0.11420000E+03  0.37860E-02
 0.11425000E+03  0.35965E-02
 0.11430000E+03  0.29001E-02
 0.11435000E+03  0.19251E-02
 0.11440000E+03  0.71946E-03
 0.11445000E+03 -0.40565E-03
 0.11450000E+03 -0.17037E-02
 0.11455000E+03 -0.31869E-02
 0.11460000E+03 -0.44594E-02
 0.11465000E+03 -0.56039E-02
 0.11470000E+03 -0.60606E-02
 0.11475000E+03 -0.54532E-02
 0.11480000E+03 -0.40031E-02
 0.11485000E+03 -0.23861E-02
 0.11490000E+03 -0.71999E-03
 0.11495000E+03  0.10801E-02
 0.11500000E+03  0.31457E-02
 0.11505000E+03  0.56093E-02
 0.11510000E+03  0.77801E-02
 0.11515000E+03  0.93785E-02
 0.11520000E+03  0.10790E-01
 0.11525000E+03  0.12305E-01
 0.11530000E+03  0.13970E-01
 0.11535000E+03  0.15890E-01
 0.11540000E+03  0.17660E-01
 0.11545000E+03  0.18191E-01
 0.11550000E+03  0.16678E-01
 0.11555000E+03  0.13036E-01
 0.11560000E+03  0.81211E-02
 0.11565000E+03  0.32429E-02
 0.11570000E+03 -0.28119E-03
 0.11575000E+03 -0.21986E-02
 0.11580000E+03 -0.28341E-02
 0.11585000E+03 -0.23994E-02
 0.11590000E+03 -0.18299E-02
 0.11595000E+03 -0.14472E-02
 0.11600000E+03 -0.14373E-02
 0.11605000E+03 -0.19990E-02
 0.11610000E+03 -0.28313E-02
 0.11615000E+03 -0.40530E-02
 0.11620000E+03 -0.55559E-02
 0.11625000E+03 -0.71755E-02
 0.11630000E+03 -0.88851E-02
 0.11635000E+03 -0.10770E-01
 0.11640000E+03 -0.12657E-01
 0.11645000E+03 -0.14104E-01
 0.11650000E+03 -0.14967E-01
 0.11655000E+03 -0.15221E-01
 0.11660000E+03 -0.15731E-01
 0.11665000E+03 -0.16686E-01
 0.11670000E+03 -0.17190E-01
 0.11675000E+03 -0.17157E-01
 0.11680000E+03 -0.16822E-01
 0.11685000E+03 -0.15907E-01
 0.11690000E+03 -0.13544E-01
 0.11695000E+03 -0.98188E-02
 0.11700000E+03 -0.60331E-02
 0.11705000E+03 -0.31717E-02
 0.11710000E+03 -0.15366E-02
 0.11715000E+03 -0.42938E-03
 0.11720000E+03  0.11033E-02
 0.11725000E+03  0.29859E-02
 0.11730000E+03  0.38276E-02
 0.11735000E+03  0.34612E-02
 0.11740000E+03  0.26172E-02
 0.11745000E+03  0.17807E-02
 0.11750000E+03  0.14619E-02
 0.11755000E+03  0.16687E-02
 0.11760000E+03  0.22187E-02
 0.11765000E+03  0.22773E-02
 0.11770000E+03  0.16923E-02
 0.11775000E+03  0.72661E-03
 0.11780000E+03 -0.24501E-03
 0.11785000E+03 -0.87115E-03
 0.11790000E+03 -0.61161E-03
 0.11795000E+03  0.86912E-03
 0.11800000E+03  0.31887E-02
 0.11805000E+03  0.55538E-02
 0.11810000E+03  0.74407E-02
 0.11815000E+03  0.92121E-02
 0.11820000E+03  0.10557E-01
 0.11825000E+03  0.10695E-01
 0.11830000E+03  0.94648E-02
 0.11835000E+03  0.77249E-02
 0.11840000E+03  0.66948E-02
 0.11845000E+03  0.68593E-02
 0.11850000E+03  0.73566E-02
 0.11855000E+03  0.76989E-02
 0.11860000E+03  0.79163E-02
 0.11865000E+03  0.73589E-02
 0.11870000E+03  0.58731E-02
 0.11875000E+03  0.38471E-02
 0.11880000E+03  0.16729E-02
 0.11885000E+03 -0.17456E-03
 0.11890000E+03 -0.10544E-02
 0.11895000E+03 -0.96600E-03
 0.11900000E+03  0.78939E-04
 0.11905000E+03  0.18789E-02
 0.11910000E+03  0.32617E-02
 0.11915000E+03  0.39895E-02
 0.11920000E+03  0.38701E-02
 0.11925000E+03  0.33123E-02
 0.11930000E+03  0.24608E-02
 0.11935000E+03  0.16988E-02
 0.11940000E+03  0.63916E-03
 0.11945000E+03 -0.11549E-03
 0.11950000E+03 -0.19896E-03
 0.11955000E+03  0.51783E-03
 0.11960000E+03  0.14435E-02
 0.11965000E+03  0.14833E-02
 0.11970000E+03  0.59487E-03
 0.11975000E+03 -0.19035E-02
 0.11980000E+03 -0.43159E-02
 0.11985000E+03 -0.74296E-02
 0.11990000E+03 -0.85207E-02
 0.11995000E+03 -0.10291E-01
 0.12000000E+03 -0.54723E-02
