 0.00000000E+00  0.15378E-03
 0.50000001E-01  0.29080E-03
 0.10000000E+00  0.28705E-03
 0.15000001E+00  0.33542E-03
 0.20000000E+00  0.34555E-03
 0.25000000E+00  0.38060E-03
 0.30000001E+00  0.39950E-03
 0.34999999E+00  0.43084E-03
 0.40000001E+00  0.45353E-03
 0.45000002E+00  0.47413E-03
 0.50000000E+00  0.49362E-03
 0.55000001E+00  0.50943E-03
 0.60000002E+00  0.51421E-03
 0.65000004E+00  0.50941E-03
 0.69999999E+00  0.49757E-03
 0.75000000E+00  0.47849E-03
 0.80000001E+00  0.45563E-03
 0.85000002E+00  0.42271E-03
 0.90000004E+00  0.39110E-03
 0.94999999E+00  0.34766E-03
 0.10000000E+01  0.30381E-03
 0.10500001E+01  0.25570E-03
 0.11000000E+01  0.20522E-03
 0.11500000E+01  0.16100E-03
 0.12000000E+01  0.11143E-03
 0.12500000E+01  0.70310E-04
 0.13000001E+01  0.29781E-04
 0.13500000E+01 -0.13576E-04
 0.14000000E+01 -0.46004E-04
 0.14500000E+01 -0.84522E-04
 0.15000000E+01 -0.11777E-03
 0.15500001E+01 -0.15121E-03
 0.16000000E+01 -0.17902E-03
 0.16500000E+01 -0.20319E-03
 0.17000000E+01 -0.23037E-03
 0.17500000E+01 -0.24650E-03
 0.18000001E+01 -0.25690E-03
 0.18500000E+01 -0.26346E-03
 0.19000000E+01 -0.26467E-03
 0.19500000E+01 -0.26859E-03
 0.20000000E+01 -0.27132E-03
 0.20500000E+01 -0.26617E-03
 0.21000001E+01 -0.25690E-03
 0.21500001E+01 -0.23975E-03
 0.22000000E+01 -0.22358E-03
 0.22500000E+01 -0.20248E-03
 0.23000000E+01 -0.18908E-03
 0.23500001E+01 -0.18158E-03
 0.24000001E+01 -0.16743E-03
 0.24500000E+01 -0.15506E-03
 0.25000000E+01 -0.13958E-03
 0.25500000E+01 -0.12440E-03
 0.26000001E+01 -0.11379E-03
 0.26500001E+01 -0.10306E-03
 0.27000000E+01 -0.97447E-04
 0.27500000E+01 -0.86705E-04
 0.28000000E+01 -0.73684E-04
 0.28500001E+01 -0.67381E-04
 0.29000001E+01 -0.58886E-04
 0.29500000E+01 -0.47746E-04
 0.30000000E+01 -0.40740E-04
 0.30500000E+01 -0.40366E-04
 0.31000001E+01 -0.30605E-04
 0.31500001E+01 -0.25365E-04
 0.32000000E+01 -0.19542E-04
 0.32500000E+01 -0.16156E-04
 0.33000000E+01 -0.21532E-04
 0.33500001E+01 -0.25716E-04
 0.34000001E+01 -0.33632E-04
 0.34500000E+01 -0.40023E-04
 0.35000000E+01 -0.54034E-04
 0.35500000E+01 -0.64866E-04
 0.36000001E+01 -0.76632E-04
 0.36500001E+01 -0.89797E-04
 0.37000000E+01 -0.10148E-03
 0.37500000E+01 -0.10950E-03
 0.38000000E+01 -0.11591E-03
 0.38500001E+01 -0.12353E-03
 0.39000001E+01 -0.12476E-03
 0.39500000E+01 -0.12773E-03
 0.40000000E+01 -0.13103E-03
 0.40500002E+01 -0.13038E-03
 0.40999999E+01 -0.12267E-03
 0.41500001E+01 -0.11454E-03
 0.42000003E+01 -0.99886E-04
 0.42500000E+01 -0.80213E-04
 0.43000002E+01 -0.54441E-04
 0.43499999E+01 -0.23814E-04
 0.44000001E+01  0.28600E-05
 0.44500003E+01  0.36363E-04
 0.45000000E+01  0.62001E-04
 0.45500002E+01  0.85717E-04
 0.45999999E+01  0.10975E-03
 0.46500001E+01  0.12382E-03
 0.47000003E+01  0.13908E-03
 0.47500000E+01  0.15968E-03
 0.48000002E+01  0.18173E-03
 0.48499999E+01  0.19952E-03
 0.49000001E+01  0.22066E-03
 0.49500003E+01  0.24530E-03
 0.50000000E+01  0.27161E-03
 0.50500002E+01  0.30119E-03
 0.50999999E+01  0.31971E-03
 0.51500001E+01  0.33248E-03
 0.52000003E+01  0.33995E-03
 0.52500000E+01  0.34077E-03
 0.53000002E+01  0.34314E-03
 0.53499999E+01  0.33118E-03
 0.54000001E+01  0.31793E-03
 0.54500003E+01  0.29929E-03
 0.55000000E+01  0.28179E-03
 0.55500002E+01  0.26656E-03
 0.55999999E+01  0.25026E-03
 0.56500001E+01  0.22780E-03
 0.57000003E+01  0.21068E-03
 0.57500000E+01  0.18828E-03
 0.58000002E+01  0.16233E-03
 0.58499999E+01  0.14372E-03
 0.59000001E+01  0.11289E-03
 0.59500003E+01  0.88849E-04
 0.60000000E+01  0.59151E-04
 0.60500002E+01  0.34091E-04
 0.60999999E+01  0.86670E-05
 0.61500001E+01 -0.23212E-04
 0.62000003E+01 -0.56200E-04
 0.62500000E+01 -0.87623E-04
 0.63000002E+01 -0.11433E-03
 0.63499999E+01 -0.14132E-03
 0.64000001E+01 -0.16529E-03
 0.64500003E+01 -0.18517E-03
 0.65000000E+01 -0.20045E-03
 0.65500002E+01 -0.21229E-03
 0.65999999E+01 -0.22297E-03
 0.66500001E+01 -0.22757E-03
 0.67000003E+01 -0.22950E-03
 0.67500000E+01 -0.22437E-03
 0.68000002E+01 -0.21226E-03
 0.68499999E+01 -0.19783E-03
 0.69000001E+01 -0.18535E-03
 0.69500003E+01 -0.16916E-03
 0.70000000E+01 -0.14545E-03
 0.70500002E+01 -0.12854E-03
 0.70999999E+01 -0.10842E-03
 0.71500001E+01 -0.96973E-04
 0.72000003E+01 -0.92748E-04
 0.72500000E+01 -0.91048E-04
 0.73000002E+01 -0.95619E-04
 0.73499999E+01 -0.10104E-03
 0.74000001E+01 -0.10551E-03
 0.74500003E+01 -0.11618E-03
 0.75000000E+01 -0.12989E-03
 0.75500002E+01 -0.13899E-03
 0.75999999E+01 -0.15446E-03
 0.76500001E+01 -0.16498E-03
 0.77000003E+01 -0.17682E-03
 0.77500000E+01 -0.19402E-03
 0.78000002E+01 -0.19973E-03
 0.78499999E+01 -0.21102E-03
 0.79000001E+01 -0.22031E-03
 0.79500003E+01 -0.22643E-03
 0.80000000E+01 -0.22997E-03
 0.80500002E+01 -0.23119E-03
 0.81000004E+01 -0.23339E-03
 0.81500006E+01 -0.22651E-03
 0.81999998E+01 -0.21911E-03
 0.82500000E+01 -0.20650E-03
 0.83000002E+01 -0.17990E-03
 0.83500004E+01 -0.15477E-03
 0.84000006E+01 -0.12820E-03
 0.84499998E+01 -0.95433E-04
 0.85000000E+01 -0.61041E-04
 0.85500002E+01 -0.19758E-04
 0.86000004E+01  0.15799E-04
 0.86500006E+01  0.54719E-04
 0.86999998E+01  0.90330E-04
 0.87500000E+01  0.12292E-03
 0.88000002E+01  0.15698E-03
 0.88500004E+01  0.18163E-03
 0.89000006E+01  0.20966E-03
 0.89499998E+01  0.23594E-03
 0.90000000E+01  0.25716E-03
 0.90500002E+01  0.27132E-03
 0.91000004E+01  0.28231E-03
 0.91500006E+01  0.29609E-03
 0.91999998E+01  0.30473E-03
 0.92500000E+01  0.31871E-03
 0.93000002E+01  0.32958E-03
 0.93500004E+01  0.34213E-03
 0.94000006E+01  0.35925E-03
 0.94499998E+01  0.36551E-03
 0.95000000E+01  0.37490E-03
 0.95500002E+01  0.38238E-03
 0.96000004E+01  0.38440E-03
 0.96500006E+01  0.38741E-03
 0.96999998E+01  0.38604E-03
 0.97500000E+01  0.37308E-03
 0.98000002E+01  0.36400E-03
 0.98500004E+01  0.34842E-03
 0.99000006E+01  0.32757E-03
 0.99499998E+01  0.30879E-03
 0.10000000E+02  0.28317E-03
 0.10050000E+02  0.26413E-03
 0.10100000E+02  0.24252E-03
 0.10150001E+02  0.22128E-03
 0.10200000E+02  0.20420E-03
 0.10250000E+02  0.18587E-03
 0.10300000E+02  0.15994E-03
 0.10350000E+02  0.13216E-03
 0.10400001E+02  0.10756E-03
 0.10450000E+02  0.79401E-04
 0.10500000E+02  0.48179E-04
 0.10550000E+02  0.24678E-04
 0.10600000E+02 -0.24754E-05
 0.10650001E+02 -0.31948E-04
 0.10700000E+02 -0.69754E-04
 0.10750000E+02 -0.11667E-03
 0.10800000E+02 -0.13860E-03
 0.10850000E+02 -0.27779E-03
 0.10900001E+02 -0.37815E-03
 0.10950000E+02 -0.18388E-03
 0.11000000E+02  0.87551E-04
 0.11050000E+02  0.50899E-03
 0.11100000E+02  0.87424E-03
 0.11150001E+02  0.54603E-03
 0.11200000E+02  0.12946E-03
 0.11250000E+02 -0.66558E-03
 0.11300000E+02  0.25030E-03
 0.11350000E+02 -0.95659E-03
 0.11400001E+02  0.52613E-03
 0.11450000E+02 -0.12236E-02
 0.11500000E+02  0.12311E-04
 0.11550000E+02 -0.17148E-02
 0.11600000E+02 -0.44114E-04
 0.11650001E+02 -0.12676E-02
 0.11700000E+02 -0.36883E-04
 0.11750000E+02 -0.11243E-02
 0.11800000E+02 -0.48278E-02
 0.11850000E+02 -0.13079E-01
 0.11900001E+02 -0.26145E-01
 0.11950000E+02 -0.70262E-01
 0.12000000E+02 -0.14359E+00
 0.12050000E+02 -0.15104E+00
 0.12100000E+02 -0.14693E+00
 0.12150001E+02 -0.53848E-01
 0.12200000E+02  0.52294E-01
 0.12250000E+02  0.11149E+00
 0.12300000E+02  0.45934E-01
 0.12350000E+02  0.13983E-02
 0.12400001E+02  0.64463E-01
 0.12450000E+02  0.25229E-01
 0.12500000E+02  0.11037E+00
 0.12550000E+02  0.92416E-01
 0.12600000E+02  0.17297E-01
 0.12650001E+02 -0.70156E-02
 0.12700000E+02 -0.62934E-01
 0.12750000E+02 -0.31557E-01
 0.12800000E+02 -0.10766E+00
 0.12850000E+02 -0.16793E+00
 0.12900001E+02 -0.15265E+00
 0.12950000E+02 -0.41206E-01
 0.13000000E+02  0.45211E-01
 0.13050000E+02  0.13994E+00
 0.13100000E+02  0.10172E+00
 0.13150001E+02 -0.24758E-02
 0.13200000E+02  0.66229E-01
 0.13250000E+02  0.58551E-01
 0.13300000E+02  0.16372E+00
 0.13350000E+02  0.64149E-01
 0.13400001E+02 -0.61488E-01
 0.13450000E+02 -0.24788E-01
 0.13500000E+02 -0.91322E-01
 0.13550000E+02 -0.73841E-01
 0.13600000E+02  0.46027E-02
 0.13650001E+02 -0.83639E-01
 0.13700000E+02 -0.16765E+00
 0.13750000E+02 -0.38845E-01
 0.13800000E+02  0.10082E+00
 0.13850000E+02  0.15363E+00
 0.13900001E+02  0.16049E+00
 0.13950000E+02  0.11891E-01
 0.14000000E+02  0.36573E-01
 0.14050000E+02  0.53582E-01
 0.14100000E+02 -0.72076E-01
 0.14150001E+02 -0.35800E-01
 0.14200000E+02 -0.15602E+00
 0.14250000E+02 -0.59992E-01
 0.14300000E+02 -0.27930E-01
 0.14350000E+02  0.99084E-02
 0.14400001E+02  0.84930E-02
 0.14450000E+02 -0.64268E-01
 0.14500000E+02  0.66795E-01
 0.14550000E+02  0.39561E-01
 0.14600000E+02  0.46658E-01
 0.14650001E+02  0.10595E+00
 0.14700000E+02  0.14282E+00
 0.14750000E+02  0.14666E+00
 0.14800000E+02  0.77757E-01
 0.14850000E+02 -0.82383E-02
 0.14900001E+02 -0.41109E-01
 0.14950000E+02 -0.78682E-01
 0.15000000E+02 -0.26125E-01
 0.15050000E+02 -0.23196E-01
 0.15100000E+02 -0.34743E-01
 0.15150001E+02  0.52931E-01
 0.15200000E+02  0.75132E-01
 0.15250000E+02  0.44049E-01
 0.15300000E+02 -0.22175E-01
 0.15350000E+02 -0.25359E-01
 0.15400001E+02  0.15659E-01
 0.15450000E+02  0.13864E-01
 0.15500000E+02  0.73167E-02
 0.15550000E+02  0.11393E-01
 0.15600000E+02  0.57951E-01
 0.15650001E+02  0.63720E-01
 0.15700000E+02  0.22761E-01
 0.15750000E+02  0.46382E-02
 0.15800000E+02 -0.13213E+00
 0.15850000E+02 -0.99009E-01
 0.15900001E+02 -0.62393E-01
 0.15950000E+02  0.79243E-02
 0.16000000E+02  0.14775E+00
 0.16050001E+02  0.12197E+00
 0.16100000E+02  0.46796E-01
 0.16150000E+02 -0.65585E-01
 0.16200001E+02 -0.99362E-01
 0.16250000E+02 -0.17071E-01
 0.16300001E+02  0.14873E+00
 0.16350000E+02  0.31683E-01
 0.16400000E+02 -0.99632E-01
 0.16450001E+02 -0.12923E+00
 0.16500000E+02 -0.57508E-01
 0.16550001E+02  0.15182E-01
 0.16600000E+02 -0.28187E-01
 0.16650000E+02  0.34173E-01
 0.16700001E+02 -0.21980E-01
 0.16750000E+02 -0.20635E-02
 0.16800001E+02  0.16299E-01
 0.16850000E+02 -0.90972E-02
 0.16900000E+02  0.87260E-01
 0.16950001E+02  0.98061E-01
 0.17000000E+02  0.22263E-01
 0.17050001E+02 -0.31924E-01
 0.17100000E+02 -0.21987E-01
 0.17150000E+02  0.16479E-01
 0.17200001E+02  0.73189E-01
 0.17250000E+02  0.21085E-01
 0.17300001E+02 -0.18796E-01
 0.17350000E+02 -0.96557E-02
 0.17400000E+02 -0.55961E-01
 0.17450001E+02 -0.59621E-01
 0.17500000E+02  0.16931E-01
 0.17550001E+02  0.68460E-01
 0.17600000E+02 -0.10553E-01
 0.17650000E+02 -0.48563E-02
 0.17700001E+02  0.31718E-01
 0.17750000E+02  0.26870E-01
 0.17800001E+02  0.12567E+00
 0.17850000E+02  0.49344E-01
 0.17900000E+02 -0.34967E-01
 0.17950001E+02 -0.42126E-01
 0.18000000E+02 -0.22203E-01
 0.18050001E+02  0.19219E-01
 0.18100000E+02 -0.21950E-01
 0.18150000E+02  0.59649E-02
 0.18200001E+02 -0.39755E-01
 0.18250000E+02 -0.98347E-01
 0.18300001E+02 -0.11498E+00
 0.18350000E+02 -0.18840E-01
 0.18400000E+02  0.47048E-01
 0.18450001E+02  0.61555E-02
 0.18500000E+02 -0.22876E-01
 0.18550001E+02  0.83065E-03
 0.18600000E+02  0.12293E+00
 0.18650000E+02  0.10546E+00
 0.18700001E+02  0.74943E-01
 0.18750000E+02  0.35061E-01
 0.18800001E+02 -0.38910E-01
 0.18850000E+02 -0.71398E-01
 0.18900000E+02  0.45293E-01
 0.18950001E+02  0.64829E-01
 0.19000000E+02 -0.44627E-02
 0.19050001E+02 -0.30461E-01
 0.19100000E+02 -0.12782E+00
 0.19150000E+02 -0.62615E-01
 0.19200001E+02  0.29746E-03
 0.19250000E+02 -0.17124E-01
 0.19300001E+02 -0.38155E-02
 0.19350000E+02  0.10787E+00
 0.19400000E+02  0.17560E+00
 0.19450001E+02  0.16378E+00
 0.19500000E+02  0.11045E+00
 0.19550001E+02  0.46635E-01
 0.19600000E+02 -0.93595E-01
 0.19650000E+02 -0.11929E+00
 0.19700001E+02 -0.36169E-01
 0.19750000E+02  0.68499E-01
 0.19800001E+02  0.11943E+00
 0.19850000E+02 -0.22401E-01
 0.19900000E+02 -0.33985E-01
 0.19950001E+02  0.74698E-02
 0.20000000E+02  0.66637E-01
 0.20050001E+02  0.85987E-01
 0.20100000E+02  0.10206E+00
 0.20150000E+02  0.39513E-01
 0.20200001E+02 -0.11247E+00
 0.20250000E+02 -0.13790E+00
 0.20300001E+02 -0.11329E+00
 0.20350000E+02 -0.11928E+00
 0.20400000E+02 -0.20794E+00
 0.20450001E+02 -0.21170E+00
 0.20500000E+02 -0.16647E-01
 0.20550001E+02  0.31323E+00
 0.20600000E+02  0.54081E+00
 0.20650000E+02  0.65276E+00
 0.20700001E+02  0.52501E+00
 0.20750000E+02  0.63178E-02
 0.20800001E+02 -0.58335E+00
 0.20850000E+02 -0.68253E+00
 0.20900000E+02 -0.52782E+00
 0.20950001E+02 -0.51388E+00
 0.21000000E+02 -0.34905E+00
 0.21050001E+02 -0.14644E+00
 0.21100000E+02  0.17548E+00
 0.21150000E+02  0.38954E+00
 0.21200001E+02  0.31288E+00
 0.21250000E+02  0.12890E+00
 0.21300001E+02  0.19697E+00
 0.21350000E+02  0.43171E+00
 0.21400000E+02 -0.64486E-01
 0.21450001E+02 -0.65874E+00
 0.21500000E+02 -0.73489E+00
 0.21550001E+02 -0.33228E+00
 0.21600000E+02  0.25245E+00
 0.21650000E+02  0.51929E+00
 0.21700001E+02  0.18479E+00
 0.21750000E+02 -0.59775E+00
 0.21800001E+02 -0.10000E+01
 0.21850000E+02 -0.71061E+00
 0.21900000E+02 -0.26598E+00
 0.21950001E+02  0.16812E-01
 0.22000000E+02  0.37183E-01
 0.22050001E+02 -0.24483E+00
 0.22100000E+02 -0.47829E-01
 0.22150000E+02  0.20580E+00
 0.22200001E+02  0.30621E+00
 0.22250000E+02  0.42294E+00
 0.22300001E+02  0.27692E+00
 0.22350000E+02  0.16889E+00
 0.22400000E+02  0.14090E+00
 0.22450001E+02  0.28944E+00
 0.22500000E+02  0.23305E+00
 0.22550001E+02  0.66168E-01
 0.22600000E+02  0.22449E-01
 0.22650000E+02 -0.39484E-01
 0.22700001E+02 -0.19015E+00
 0.22750000E+02 -0.29668E+00
 0.22800001E+02 -0.18377E+00
 0.22850000E+02 -0.20410E+00
 0.22900000E+02 -0.21053E+00
 0.22950001E+02 -0.22130E+00
 0.23000000E+02 -0.13644E+00
 0.23050001E+02  0.19929E+00
 0.23100000E+02  0.38078E+00
 0.23150000E+02  0.28073E+00
 0.23200001E+02  0.12078E+00
 0.23250000E+02 -0.58015E-01
 0.23300001E+02 -0.86837E-01
 0.23350000E+02  0.16624E+00
 0.23400000E+02  0.19868E+00
 0.23450001E+02  0.27797E-01
 0.23500000E+02  0.76728E-01
 0.23550001E+02  0.95273E-01
 0.23600000E+02  0.29490E-01
 0.23650000E+02 -0.42424E-02
 0.23700001E+02 -0.18468E+00
 0.23750000E+02 -0.19915E+00
 0.23800001E+02 -0.21170E-01
 0.23850000E+02  0.19572E+00
 0.23900000E+02  0.41836E+00
 0.23950001E+02  0.48273E+00
 0.24000000E+02  0.32678E+00
 0.24050001E+02 -0.22022E-02
 0.24100000E+02 -0.26412E-01
 0.24150000E+02  0.18318E+00
 0.24200001E+02  0.21211E+00
 0.24250000E+02  0.12217E+00
 0.24300001E+02  0.21587E-01
 0.24350000E+02 -0.18193E-01
 0.24400000E+02 -0.84934E-01
 0.24450001E+02 -0.32692E-01
 0.24500000E+02  0.65843E-01
 0.24550001E+02  0.12150E+00
 0.24600000E+02  0.21137E+00
 0.24650000E+02  0.18445E+00
 0.24700001E+02  0.79371E-01
 0.24750000E+02 -0.12594E-01
 0.24800001E+02 -0.11966E+00
 0.24850000E+02 -0.27323E+00
 0.24900000E+02 -0.41280E+00
 0.24950001E+02 -0.35856E+00
 0.25000000E+02 -0.12739E+00
 0.25050001E+02 -0.11650E-01
 0.25100000E+02  0.84569E-01
 0.25150000E+02  0.74800E-01
 0.25200001E+02  0.11375E+00
 0.25250000E+02  0.19988E+00
 0.25300001E+02  0.27406E+00
 0.25350000E+02  0.29492E+00
 0.25400000E+02  0.15927E+00
 0.25450001E+02  0.49241E-01
 0.25500000E+02 -0.67799E-01
 0.25550001E+02 -0.11605E+00
 0.25600000E+02 -0.14690E+00
 0.25650000E+02 -0.15661E+00
 0.25700001E+02 -0.19838E+00
 0.25750000E+02 -0.25715E+00
 0.25800001E+02 -0.14275E+00
 0.25850000E+02  0.53463E-01
 0.25900000E+02  0.22779E-01
 0.25950001E+02 -0.69344E-01
 0.26000000E+02 -0.36149E-01
 0.26050001E+02  0.51922E-01
 0.26100000E+02  0.13056E+00
 0.26150000E+02  0.16596E+00
 0.26200001E+02  0.17500E+00
 0.26250000E+02  0.12412E+00
 0.26300001E+02  0.10493E+00
 0.26350000E+02  0.86130E-01
 0.26400000E+02  0.18380E-01
 0.26450001E+02 -0.74145E-01
 0.26500000E+02 -0.17593E+00
 0.26550001E+02 -0.92083E-01
 0.26600000E+02  0.16864E-01
 0.26650000E+02  0.97756E-01
 0.26700001E+02  0.55142E-01
 0.26750000E+02 -0.42467E-01
 0.26800001E+02  0.19975E-01
 0.26850000E+02  0.24163E-01
 0.26900000E+02  0.10794E+00
 0.26950001E+02 -0.45989E-01
 0.27000000E+02 -0.12577E+00
 0.27050001E+02 -0.87467E-01
 0.27100000E+02 -0.11015E+00
 0.27150000E+02 -0.72558E-01
 0.27200001E+02 -0.12874E+00
 0.27250000E+02 -0.12254E+00
 0.27300001E+02 -0.16351E+00
 0.27350000E+02 -0.43398E-01
 0.27400000E+02  0.72975E-01
 0.27450001E+02  0.14555E+00
 0.27500000E+02  0.15849E+00
 0.27550001E+02  0.86768E-01
 0.27600000E+02  0.79915E-01
 0.27650000E+02  0.63164E-01
 0.27700001E+02 -0.21100E-01
 0.27750000E+02 -0.98022E-01
 0.27800001E+02 -0.11746E+00
 0.27850000E+02 -0.98990E-01
 0.27900000E+02 -0.32445E-01
 0.27950001E+02 -0.13309E-01
 0.28000000E+02  0.46422E-02
 0.28050001E+02  0.62081E-02
 0.28100000E+02  0.16427E-01
 0.28150000E+02  0.20303E-01
 0.28200001E+02  0.11313E+00
 0.28250000E+02  0.17626E+00
 0.28300001E+02  0.11844E+00
 0.28350000E+02 -0.17910E-01
 0.28400000E+02 -0.24136E+00
 0.28450001E+02 -0.26918E+00
 0.28500000E+02 -0.25523E+00
 0.28550001E+02 -0.20720E+00
 0.28600000E+02 -0.10344E+00
 0.28650000E+02  0.10042E-01
 0.28700001E+02  0.69180E-01
 0.28750000E+02  0.81084E-01
 0.28800001E+02  0.21617E+00
 0.28850000E+02  0.26319E+00
 0.28900000E+02  0.22479E+00
 0.28950001E+02  0.46705E-01
 0.29000000E+02 -0.10891E+00
 0.29050001E+02 -0.24150E+00
 0.29100000E+02 -0.16310E+00
 0.29150000E+02 -0.31555E-01
 0.29200001E+02 -0.23434E-01
 0.29250000E+02  0.53676E-01
 0.29300001E+02 -0.56740E-01
 0.29350000E+02 -0.13730E+00
 0.29400000E+02 -0.13198E+00
 0.29450001E+02 -0.43708E-01
 0.29500000E+02 -0.42572E-01
 0.29550001E+02  0.72008E-02
 0.29600000E+02  0.37648E-01
 0.29650000E+02 -0.60462E-01
 0.29700001E+02 -0.87629E-01
 0.29750000E+02 -0.18964E+00
 0.29800001E+02 -0.14994E+00
 0.29850000E+02 -0.24914E-02
 0.29900000E+02  0.83769E-01
 0.29950001E+02  0.85463E-01
 0.30000000E+02  0.79169E-01
 0.30050001E+02  0.45068E-01
 0.30100000E+02 -0.47684E-01
 0.30150000E+02 -0.84671E-01
 0.30200001E+02 -0.10866E+00
 0.30250000E+02 -0.13917E+00
 0.30300001E+02 -0.13468E+00
 0.30350000E+02 -0.13772E+00
 0.30400000E+02 -0.59636E-01
 0.30450001E+02  0.52015E-01
 0.30500000E+02  0.76433E-01
 0.30550001E+02  0.18031E+00
 0.30600000E+02  0.22858E+00
 0.30650000E+02  0.20563E+00
 0.30700001E+02  0.16919E+00
 0.30750000E+02  0.91295E-01
 0.30800001E+02 -0.61025E-02
 0.30850000E+02 -0.11477E+00
 0.30900000E+02 -0.14340E+00
 0.30950001E+02 -0.11623E+00
 0.31000000E+02 -0.34206E-01
 0.31050001E+02  0.23786E-01
 0.31100000E+02  0.93191E-01
 0.31150000E+02  0.97400E-01
 0.31200001E+02  0.14057E+00
 0.31250000E+02  0.20264E+00
 0.31300001E+02  0.11911E+00
 0.31350000E+02 -0.16585E-01
 0.31400000E+02 -0.82171E-01
 0.31450001E+02 -0.66449E-02
 0.31500000E+02 -0.24913E-01
 0.31550001E+02 -0.89168E-01
 0.31600000E+02 -0.12310E+00
 0.31650000E+02 -0.39455E-01
 0.31700001E+02  0.81588E-01
 0.31750000E+02  0.12026E+00
 0.31800001E+02  0.16833E+00
 0.31850000E+02  0.91847E-01
 0.31900000E+02 -0.44421E-01
 0.31950001E+02 -0.13037E+00
 0.32000000E+02 -0.10962E+00
 0.32049999E+02 -0.46776E-01
 0.32100002E+02 -0.80723E-01
 0.32150002E+02 -0.11379E+00
 0.32200001E+02 -0.40347E-01
 0.32250000E+02 -0.20708E-01
 0.32299999E+02 -0.33911E-01
 0.32350002E+02 -0.26175E-01
 0.32400002E+02 -0.54592E-01
 0.32450001E+02 -0.11810E+00
 0.32500000E+02 -0.21421E+00
 0.32549999E+02 -0.22694E+00
 0.32600002E+02 -0.17043E+00
 0.32650002E+02 -0.12300E+00
 0.32700001E+02 -0.10237E+00
 0.32750000E+02 -0.86486E-01
 0.32799999E+02 -0.59428E-01
 0.32850002E+02  0.10275E-01
 0.32900002E+02  0.62124E-01
 0.32950001E+02  0.81289E-01
 0.33000000E+02  0.86381E-01
 0.33049999E+02  0.11831E+00
 0.33100002E+02  0.13310E+00
 0.33150002E+02  0.12703E+00
 0.33200001E+02  0.11217E+00
 0.33250000E+02  0.79955E-01
 0.33299999E+02  0.86401E-01
 0.33350002E+02  0.14227E+00
 0.33400002E+02  0.17968E+00
 0.33450001E+02  0.16410E+00
 0.33500000E+02  0.15083E+00
 0.33549999E+02  0.12780E+00
 0.33600002E+02  0.11881E+00
 0.33650002E+02  0.85946E-01
 0.33700001E+02  0.11374E+00
 0.33750000E+02  0.11856E+00
 0.33799999E+02  0.11572E+00
 0.33850002E+02  0.13387E+00
 0.33900002E+02  0.13069E+00
 0.33950001E+02  0.17438E+00
 0.34000000E+02  0.15871E+00
 0.34049999E+02  0.11657E+00
 0.34100002E+02 -0.14655E-01
 0.34150002E+02 -0.11983E+00
 0.34200001E+02 -0.13365E+00
 0.34250000E+02 -0.14113E+00
 0.34299999E+02 -0.10397E+00
 0.34350002E+02 -0.76680E-01
 0.34400002E+02 -0.11096E-02
 0.34450001E+02  0.40611E-01
 0.34500000E+02  0.36608E-01
 0.34549999E+02 -0.48086E-02
 0.34600002E+02 -0.70695E-01
 0.34650002E+02 -0.13556E+00
 0.34700001E+02 -0.18120E+00
 0.34750000E+02 -0.13903E+00
 0.34799999E+02 -0.11826E+00
 0.34850002E+02 -0.11001E+00
 0.34900002E+02 -0.84901E-01
 0.34950001E+02 -0.73195E-01
 0.35000000E+02 -0.85062E-01
 0.35049999E+02 -0.62813E-01
 0.35100002E+02 -0.43011E-01
 0.35150002E+02 -0.66319E-01
 0.35200001E+02 -0.49259E-01
 0.35250000E+02 -0.31368E-03
 0.35299999E+02  0.48719E-01
 0.35350002E+02  0.56899E-01
 0.35400002E+02  0.82848E-02
 0.35450001E+02 -0.26136E-02
 0.35500000E+02  0.14534E-01
 0.35549999E+02  0.35469E-01
 0.35600002E+02  0.51373E-01
 0.35650002E+02  0.45439E-01
 0.35700001E+02  0.20074E-01
 0.35750000E+02  0.15145E-03
 0.35799999E+02 -0.11779E-02
 0.35850002E+02 -0.32928E-01
 0.35900002E+02 -0.42552E-01
 0.35950001E+02 -0.39850E-01
 0.36000000E+02 -0.10528E-01
 0.36049999E+02  0.63288E-01
 0.36100002E+02  0.11983E+00
 0.36150002E+02  0.14087E+00
 0.36200001E+02  0.13526E+00
 0.36250000E+02  0.82117E-01
 0.36299999E+02 -0.17586E-01
 0.36350002E+02 -0.94801E-01
 0.36400002E+02 -0.16374E+00
 0.36450001E+02 -0.21442E+00
 0.36500000E+02 -0.15271E+00
 0.36549999E+02 -0.69184E-01
 0.36600002E+02 -0.68417E-02
 0.36650002E+02  0.77714E-01
 0.36700001E+02  0.86629E-01
 0.36750000E+02  0.20313E-01
 0.36799999E+02 -0.25581E-01
 0.36850002E+02 -0.41900E-01
 0.36900002E+02 -0.26191E-01
 0.36950001E+02  0.64621E-02
 0.37000000E+02  0.58416E-02
 0.37049999E+02  0.50889E-02
 0.37100002E+02  0.92881E-02
 0.37150002E+02  0.21610E-01
 0.37200001E+02  0.57117E-01
 0.37250000E+02  0.94906E-01
 0.37299999E+02  0.63661E-01
 0.37350002E+02  0.21259E-01
 0.37400002E+02  0.23615E-01
 0.37450001E+02  0.38687E-01
 0.37500000E+02  0.83340E-01
 0.37549999E+02  0.83410E-01
 0.37600002E+02  0.70750E-01
 0.37650002E+02  0.67372E-01
 0.37700001E+02  0.16152E-01
 0.37750000E+02 -0.20603E-01
 0.37799999E+02 -0.14063E-01
 0.37850002E+02 -0.13258E-01
 0.37900002E+02  0.12215E-01
 0.37950001E+02  0.62540E-01
 0.38000000E+02  0.83911E-01
 0.38049999E+02  0.73373E-01
 0.38100002E+02  0.53467E-01
 0.38150002E+02  0.53729E-01
 0.38200001E+02  0.38522E-01
 0.38250000E+02  0.18888E-01
 0.38299999E+02 -0.19434E-01
 0.38350002E+02 -0.72958E-01
 0.38400002E+02 -0.12285E+00
 0.38450001E+02 -0.14289E+00
 0.38500000E+02 -0.13946E+00
 0.38549999E+02 -0.10382E+00
 0.38600002E+02 -0.50038E-01
 0.38650002E+02 -0.37897E-01
 0.38700001E+02 -0.12328E-01
 0.38750000E+02 -0.60448E-02
 0.38799999E+02 -0.17441E-01
 0.38850002E+02 -0.43737E-01
 0.38900002E+02 -0.66575E-01
 0.38950001E+02 -0.11412E+00
 0.39000000E+02 -0.13376E+00
 0.39049999E+02 -0.10371E+00
 0.39100002E+02 -0.69169E-01
 0.39150002E+02 -0.45719E-01
 0.39200001E+02 -0.11840E-01
 0.39250000E+02  0.14194E-01
 0.39299999E+02  0.29603E-01
 0.39350002E+02  0.55671E-01
 0.39400002E+02  0.20541E-01
 0.39450001E+02  0.16636E-01
 0.39500000E+02  0.74777E-02
 0.39549999E+02  0.63941E-02
 0.39600002E+02  0.51143E-01
 0.39650002E+02  0.75938E-01
 0.39700001E+02  0.94984E-01
 0.39750000E+02  0.98549E-01
 0.39799999E+02  0.93970E-01
 0.39850002E+02  0.76975E-01
 0.39900002E+02  0.76883E-01
 0.39950001E+02  0.71933E-01
 0.40000000E+02  0.49801E-01
 0.40049999E+02  0.68881E-01
 0.40100002E+02  0.83750E-01
 0.40150002E+02  0.66706E-01
 0.40200001E+02  0.23703E-01
 0.40250000E+02  0.11019E-01
 0.40299999E+02 -0.89091E-02
 0.40350002E+02 -0.30190E-01
 0.40400002E+02 -0.53367E-01
 0.40450001E+02 -0.61337E-01
 0.40500000E+02 -0.44115E-01
 0.40549999E+02 -0.57962E-01
 0.40600002E+02 -0.64095E-01
 0.40650002E+02 -0.45406E-01
 0.40700001E+02 -0.23234E-01
 0.40750000E+02 -0.66917E-02
 0.40799999E+02 -0.59034E-02
 0.40850002E+02 -0.21824E-01
 0.40900002E+02 -0.19595E-01
 0.40950001E+02 -0.42822E-01
 0.41000000E+02 -0.23193E-01
 0.41049999E+02 -0.18184E-01
 0.41100002E+02 -0.26265E-01
 0.41150002E+02 -0.14913E-01
 0.41200001E+02 -0.23171E-01
 0.41250000E+02 -0.18252E-01
 0.41299999E+02 -0.81701E-02
 0.41350002E+02  0.15726E-01
 0.41400002E+02  0.27341E-01
 0.41450001E+02  0.26436E-01
 0.41500000E+02  0.12910E-01
 0.41549999E+02 -0.93249E-02
 0.41600002E+02 -0.31028E-01
 0.41650002E+02 -0.11460E-01
 0.41700001E+02  0.23074E-01
 0.41750000E+02  0.48486E-01
 0.41799999E+02  0.47842E-01
 0.41850002E+02  0.44805E-01
 0.41900002E+02  0.66509E-01
 0.41950001E+02  0.76576E-01
 0.42000000E+02  0.72776E-01
 0.42049999E+02  0.47720E-01
 0.42100002E+02  0.19684E-01
 0.42150002E+02  0.10302E-01
 0.42200001E+02  0.72337E-03
 0.42250000E+02 -0.43344E-03
 0.42299999E+02 -0.87826E-02
 0.42350002E+02 -0.92122E-02
 0.42400002E+02 -0.18573E-01
 0.42450001E+02 -0.42234E-01
 0.42500000E+02 -0.51752E-01
 0.42549999E+02 -0.86683E-01
 0.42600002E+02 -0.10496E+00
 0.42650002E+02 -0.86264E-01
 0.42700001E+02 -0.43569E-01
 0.42750000E+02 -0.22309E-01
 0.42799999E+02 -0.45504E-02
 0.42850002E+02  0.88562E-02
 0.42900002E+02 -0.47287E-02
 0.42950001E+02 -0.65185E-02
 0.43000000E+02 -0.22108E-01
 0.43049999E+02 -0.37516E-01
 0.43100002E+02 -0.28894E-01
 0.43150002E+02 -0.23424E-01
 0.43200001E+02 -0.85615E-02
 0.43250000E+02 -0.18082E-01
 0.43299999E+02 -0.39694E-01
 0.43350002E+02 -0.35660E-01
 0.43400002E+02 -0.19830E-01
 0.43450001E+02 -0.47750E-02
 0.43500000E+02  0.89342E-02
 0.43549999E+02  0.48929E-01
 0.43600002E+02  0.84863E-01
 0.43650002E+02  0.10605E+00
 0.43700001E+02  0.10013E+00
 0.43750000E+02  0.83979E-01
 0.43799999E+02  0.62274E-01
 0.43850002E+02  0.49673E-01
 0.43900002E+02  0.26220E-01
 0.43950001E+02 -0.14123E-01
 0.44000000E+02 -0.15611E-01
 0.44049999E+02 -0.21001E-01
 0.44100002E+02 -0.14347E-01
 0.44150002E+02 -0.87315E-02
 0.44200001E+02  0.28995E-02
 0.44250000E+02  0.38492E-01
 0.44299999E+02  0.56908E-01
 0.44350002E+02  0.56019E-01
 0.44400002E+02  0.22177E-01
 0.44450001E+02 -0.79707E-02
 0.44500000E+02 -0.23937E-01
 0.44549999E+02 -0.31216E-01
 0.44600002E+02 -0.38375E-01
 0.44650002E+02 -0.40669E-01
 0.44700001E+02 -0.17331E-01
 0.44750000E+02  0.60715E-02
 0.44799999E+02  0.25510E-01
 0.44850002E+02  0.10074E-01
 0.44900002E+02 -0.17918E-01
 0.44950001E+02 -0.42929E-01
 0.45000000E+02 -0.79278E-01
 0.45049999E+02 -0.89872E-01
 0.45100002E+02 -0.86714E-01
 0.45150002E+02 -0.92033E-01
 0.45200001E+02 -0.88478E-01
 0.45250000E+02 -0.73469E-01
 0.45299999E+02 -0.60411E-01
 0.45350002E+02 -0.40246E-01
 0.45400002E+02 -0.44183E-02
 0.45450001E+02  0.39950E-01
 0.45500000E+02  0.58452E-01
 0.45549999E+02  0.69234E-01
 0.45600002E+02  0.60351E-01
 0.45650002E+02  0.76423E-01
 0.45700001E+02  0.11352E+00
 0.45750000E+02  0.12275E+00
 0.45799999E+02  0.11941E+00
 0.45850002E+02  0.10714E+00
 0.45900002E+02  0.10523E+00
 0.45950001E+02  0.69972E-01
 0.46000000E+02  0.34128E-01
 0.46049999E+02  0.17890E-01
 0.46100002E+02  0.19154E-02
 0.46150002E+02 -0.13159E-01
 0.46200001E+02 -0.18195E-01
 0.46250000E+02 -0.25104E-01
 0.46299999E+02 -0.42570E-01
 0.46350002E+02 -0.46063E-01
 0.46400002E+02 -0.27670E-01
 0.46450001E+02 -0.48622E-02
 0.46500000E+02  0.13579E-01
 0.46549999E+02  0.24171E-01
 0.46600002E+02  0.19360E-01
 0.46650002E+02  0.16333E-01
 0.46700001E+02  0.30843E-02
 0.46750000E+02 -0.31069E-01
 0.46799999E+02 -0.64860E-01
 0.46850002E+02 -0.83387E-01
 0.46900002E+02 -0.84312E-01
 0.46950001E+02 -0.76061E-01
 0.47000000E+02 -0.65724E-01
 0.47049999E+02 -0.46250E-01
 0.47100002E+02 -0.33439E-01
 0.47150002E+02 -0.16432E-01
 0.47200001E+02 -0.91838E-02
 0.47250000E+02 -0.20826E-01
 0.47299999E+02 -0.27850E-01
 0.47350002E+02 -0.22448E-01
 0.47400002E+02 -0.10470E-01
 0.47450001E+02 -0.10904E-01
 0.47500000E+02  0.90652E-02
 0.47549999E+02  0.34071E-01
 0.47600002E+02  0.34817E-01
 0.47650002E+02  0.11284E-01
 0.47700001E+02 -0.26185E-01
 0.47750000E+02 -0.57988E-01
 0.47799999E+02 -0.88105E-01
 0.47850002E+02 -0.97524E-01
 0.47900002E+02 -0.65766E-01
 0.47950001E+02 -0.35404E-01
 0.48000000E+02 -0.24662E-01
 0.48049999E+02 -0.30614E-02
 0.48100002E+02  0.23393E-01
 0.48150002E+02  0.53446E-01
 0.48200001E+02  0.91673E-01
 0.48250000E+02  0.10975E+00
 0.48299999E+02  0.11060E+00
 0.48350002E+02  0.11104E+00
 0.48400002E+02  0.93378E-01
 0.48450001E+02  0.72057E-01
 0.48500000E+02  0.64061E-01
 0.48549999E+02  0.41522E-01
 0.48600002E+02  0.17626E-01
 0.48650002E+02 -0.67820E-02
 0.48700001E+02 -0.24840E-01
 0.48750000E+02 -0.35466E-01
 0.48799999E+02 -0.42191E-01
 0.48850002E+02 -0.29122E-01
 0.48900002E+02 -0.31193E-01
 0.48950001E+02 -0.23092E-01
 0.49000000E+02 -0.20624E-02
 0.49049999E+02  0.21555E-01
 0.49100002E+02  0.46721E-01
 0.49150002E+02  0.62712E-01
 0.49200001E+02  0.70710E-01
 0.49250000E+02  0.65493E-01
 0.49299999E+02  0.45887E-01
 0.49350002E+02  0.82467E-02
 0.49400002E+02 -0.30774E-01
 0.49450001E+02 -0.62553E-01
 0.49500000E+02 -0.83504E-01
 0.49549999E+02 -0.82976E-01
 0.49600002E+02 -0.69386E-01
 0.49650002E+02 -0.56157E-01
 0.49700001E+02 -0.51322E-01
 0.49750000E+02 -0.35365E-01
 0.49799999E+02 -0.21344E-01
 0.49850002E+02 -0.15588E-01
 0.49900002E+02 -0.87367E-02
 0.49950001E+02 -0.27731E-01
 0.50000000E+02 -0.42452E-01
 0.50049999E+02 -0.48156E-01
 0.50100002E+02 -0.47604E-01
 0.50150002E+02 -0.37272E-01
 0.50200001E+02 -0.14921E-01
 0.50250000E+02  0.62974E-02
 0.50299999E+02  0.19976E-01
 0.50350002E+02  0.39767E-01
 0.50400002E+02  0.59925E-01
 0.50450001E+02  0.82695E-01
 0.50500000E+02  0.96736E-01
 0.50549999E+02  0.10187E+00
 0.50600002E+02  0.97944E-01
 0.50650002E+02  0.91464E-01
 0.50700001E+02  0.76213E-01
 0.50750000E+02  0.48732E-01
 0.50799999E+02  0.21379E-01
 0.50850002E+02 -0.51233E-03
 0.50900002E+02 -0.22667E-01
 0.50950001E+02 -0.43326E-01
 0.51000000E+02 -0.52559E-01
 0.51049999E+02 -0.63113E-01
 0.51100002E+02 -0.66935E-01
 0.51150002E+02 -0.45003E-01
 0.51200001E+02 -0.30972E-01
 0.51250000E+02 -0.25294E-01
 0.51299999E+02 -0.20009E-01
 0.51350002E+02 -0.30502E-01
 0.51400002E+02 -0.31332E-01
 0.51450001E+02 -0.36927E-01
 0.51500000E+02 -0.52613E-01
 0.51549999E+02 -0.63202E-01
 0.51600002E+02 -0.73066E-01
 0.51650002E+02 -0.74457E-01
 0.51700001E+02 -0.68288E-01
 0.51750000E+02 -0.72217E-01
 0.51799999E+02 -0.66336E-01
 0.51850002E+02 -0.41915E-01
 0.51900002E+02 -0.57491E-02
 0.51950001E+02  0.22547E-01
 0.52000000E+02  0.35061E-01
 0.52049999E+02  0.42469E-01
 0.52100002E+02  0.46442E-01
 0.52150002E+02  0.43378E-01
 0.52200001E+02  0.30289E-01
 0.52250000E+02  0.31001E-01
 0.52299999E+02  0.25225E-01
 0.52350002E+02  0.30663E-01
 0.52400002E+02  0.40153E-01
 0.52450001E+02  0.36795E-01
 0.52500000E+02  0.32342E-01
 0.52549999E+02  0.20860E-01
 0.52600002E+02  0.19249E-01
 0.52650002E+02  0.18568E-01
 0.52700001E+02  0.23933E-01
 0.52750000E+02  0.30471E-01
 0.52799999E+02  0.31036E-01
 0.52850002E+02  0.29968E-01
 0.52900002E+02  0.28723E-01
 0.52950001E+02  0.30865E-01
 0.53000000E+02  0.19507E-01
 0.53049999E+02  0.46728E-02
 0.53100002E+02 -0.10956E-01
 0.53150002E+02 -0.19827E-01
 0.53200001E+02 -0.26601E-01
 0.53250000E+02 -0.30547E-01
 0.53299999E+02 -0.22214E-01
 0.53350002E+02 -0.99969E-02
 0.53400002E+02  0.17212E-01
 0.53450001E+02  0.28030E-01
 0.53500000E+02  0.24998E-01
 0.53549999E+02  0.22287E-01
 0.53600002E+02  0.18529E-01
 0.53650002E+02  0.14539E-01
 0.53700001E+02  0.36739E-03
 0.53750000E+02 -0.20642E-02
 0.53799999E+02  0.37906E-02
 0.53850002E+02  0.45280E-02
 0.53900002E+02 -0.36945E-02
 0.53950001E+02  0.14009E-02
 0.54000000E+02  0.37833E-02
 0.54049999E+02 -0.77798E-03
 0.54100002E+02 -0.52868E-02
 0.54150002E+02 -0.23416E-01
 0.54200001E+02 -0.25712E-01
 0.54250000E+02 -0.21985E-01
 0.54299999E+02 -0.15894E-01
 0.54350002E+02 -0.15762E-01
 0.54400002E+02 -0.64274E-02
 0.54450001E+02  0.11787E-02
 0.54500000E+02  0.85527E-03
 0.54549999E+02  0.49403E-02
 0.54600002E+02 -0.26057E-02
 0.54650002E+02 -0.16211E-02
 0.54700001E+02  0.26002E-02
 0.54750000E+02  0.88840E-02
 0.54799999E+02  0.12447E-01
 0.54850002E+02  0.22874E-01
 0.54900002E+02  0.31402E-01
 0.54950001E+02  0.35570E-01
 0.55000000E+02  0.44181E-01
 0.55049999E+02  0.40920E-01
 0.55100002E+02  0.25981E-01
 0.55150002E+02 -0.94527E-03
 0.55200001E+02 -0.16955E-01
 0.55250000E+02 -0.31723E-01
 0.55299999E+02 -0.38069E-01
 0.55350002E+02 -0.27905E-01
 0.55400002E+02 -0.18979E-01
 0.55450001E+02 -0.46315E-02
 0.55500000E+02  0.61421E-02
 0.55549999E+02  0.54750E-02
 0.55600002E+02 -0.85289E-02
 0.55650002E+02 -0.16925E-01
 0.55700001E+02 -0.18276E-01
 0.55750000E+02 -0.18416E-01
 0.55799999E+02 -0.12238E-01
 0.55850002E+02 -0.56988E-02
 0.55900002E+02 -0.25594E-02
 0.55950001E+02  0.20317E-02
 0.56000000E+02  0.14708E-01
 0.56049999E+02  0.19945E-01
 0.56100002E+02  0.23675E-01
 0.56150002E+02  0.18239E-01
 0.56200001E+02  0.20081E-02
 0.56250000E+02 -0.19439E-01
 0.56299999E+02 -0.43438E-01
 0.56350002E+02 -0.55317E-01
 0.56400002E+02 -0.54651E-01
 0.56450001E+02 -0.43654E-01
 0.56500000E+02 -0.32303E-01
 0.56549999E+02 -0.13047E-01
 0.56600002E+02  0.54503E-02
 0.56650002E+02  0.27570E-01
 0.56700001E+02  0.51490E-01
 0.56750000E+02  0.58873E-01
 0.56799999E+02  0.60929E-01
 0.56850002E+02  0.56478E-01
 0.56900002E+02  0.41241E-01
 0.56950001E+02  0.17374E-01
 0.57000000E+02 -0.45939E-02
 0.57049999E+02 -0.25830E-01
 0.57100002E+02 -0.32665E-01
 0.57150002E+02 -0.35859E-01
 0.57200001E+02 -0.41373E-01
 0.57250000E+02 -0.31063E-01
 0.57299999E+02 -0.25182E-01
 0.57350002E+02 -0.16689E-01
 0.57400002E+02 -0.46944E-02
 0.57450001E+02  0.60095E-02
 0.57500000E+02  0.17924E-01
 0.57549999E+02  0.25378E-01
 0.57600002E+02  0.28719E-01
 0.57650002E+02  0.26875E-01
 0.57700001E+02  0.12694E-01
 0.57750000E+02 -0.37966E-02
 0.57799999E+02 -0.19409E-01
 0.57850002E+02 -0.26854E-01
 0.57900002E+02 -0.24501E-01
 0.57950001E+02 -0.17144E-01
 0.58000000E+02 -0.32836E-02
 0.58049999E+02 -0.57723E-02
 0.58100002E+02 -0.86235E-02
 0.58150002E+02 -0.75486E-02
 0.58200001E+02 -0.63017E-02
 0.58250000E+02 -0.70996E-02
 0.58299999E+02 -0.44536E-02
 0.58350002E+02  0.27333E-02
 0.58400002E+02  0.16014E-02
 0.58450001E+02  0.93642E-02
 0.58500000E+02  0.18795E-01
 0.58549999E+02  0.24573E-01
 0.58600002E+02  0.24298E-01
 0.58650002E+02  0.20789E-01
 0.58700001E+02  0.12621E-01
 0.58750000E+02  0.16664E-02
 0.58799999E+02 -0.74523E-02
 0.58850002E+02 -0.17981E-01
 0.58900002E+02 -0.11170E-01
 0.58950001E+02  0.69156E-03
 0.59000000E+02  0.12609E-01
 0.59049999E+02  0.17910E-01
 0.59100002E+02  0.13384E-01
 0.59150002E+02  0.79656E-02
 0.59200001E+02 -0.46937E-03
 0.59250000E+02  0.66269E-03
 0.59299999E+02  0.53958E-02
 0.59350002E+02  0.91222E-02
 0.59400002E+02  0.13362E-01
 0.59450001E+02  0.17287E-01
 0.59500000E+02  0.14172E-01
 0.59549999E+02  0.10018E-01
 0.59600002E+02  0.82663E-02
 0.59650002E+02 -0.10779E-02
 0.59700001E+02 -0.64789E-02
 0.59750000E+02 -0.31061E-02
 0.59799999E+02 -0.18884E-02
 0.59850002E+02  0.12404E-02
 0.59900002E+02  0.69173E-02
 0.59950001E+02  0.58615E-02
 0.60000000E+02 -0.17871E-03
 0.60049999E+02 -0.25645E-02
 0.60100002E+02 -0.83327E-02
 0.60150002E+02 -0.22750E-01
 0.60200001E+02 -0.31880E-01
 0.60250000E+02 -0.29522E-01
 0.60299999E+02 -0.29936E-01
 0.60350002E+02 -0.37147E-01
 0.60400002E+02 -0.40031E-01
 0.60450001E+02 -0.36735E-01
 0.60500000E+02 -0.23942E-01
 0.60549999E+02 -0.69879E-02
 0.60600002E+02  0.81047E-02
 0.60650002E+02  0.22049E-01
 0.60700001E+02  0.29194E-01
 0.60750000E+02  0.35420E-01
 0.60799999E+02  0.38472E-01
 0.60850002E+02  0.33389E-01
 0.60900002E+02  0.30853E-01
 0.60950001E+02  0.25055E-01
 0.61000000E+02  0.16598E-01
 0.61049999E+02  0.94503E-02
 0.61100002E+02 -0.66692E-02
 0.61150002E+02 -0.15673E-01
 0.61200001E+02 -0.21025E-01
 0.61250000E+02 -0.19028E-01
 0.61299999E+02 -0.34737E-02
 0.61350002E+02  0.91718E-02
 0.61400002E+02  0.12313E-01
 0.61450001E+02  0.43479E-02
 0.61500000E+02  0.13021E-02
 0.61549999E+02 -0.42525E-02
 0.61600002E+02 -0.87436E-02
 0.61650002E+02 -0.15094E-01
 0.61700001E+02 -0.19704E-01
 0.61750000E+02 -0.20523E-01
 0.61799999E+02 -0.17712E-01
 0.61850002E+02 -0.12475E-01
 0.61900002E+02 -0.15495E-01
 0.61950001E+02 -0.12864E-01
 0.62000000E+02 -0.68362E-02
 0.62049999E+02  0.21320E-02
 0.62100002E+02  0.92962E-02
 0.62150002E+02  0.99467E-02
 0.62200001E+02  0.64455E-02
 0.62250000E+02 -0.63743E-04
 0.62299999E+02 -0.32065E-02
 0.62350002E+02 -0.33306E-02
 0.62400002E+02 -0.20230E-02
 0.62450001E+02 -0.21492E-02
 0.62500000E+02 -0.10068E-01
 0.62549999E+02 -0.12972E-01
 0.62600002E+02 -0.14797E-01
 0.62650002E+02 -0.14505E-01
 0.62700001E+02 -0.77547E-02
 0.62750000E+02 -0.14215E-02
 0.62799999E+02  0.38873E-02
 0.62850002E+02  0.12083E-01
 0.62900002E+02  0.26143E-01
 0.62950001E+02  0.29678E-01
 0.63000000E+02  0.23825E-01
 0.63049999E+02  0.16748E-01
 0.63100002E+02  0.96629E-02
 0.63150002E+02  0.79906E-02
 0.63200001E+02  0.80922E-02
 0.63250000E+02  0.43917E-02
 0.63299999E+02  0.27088E-02
 0.63350002E+02  0.56957E-02
 0.63400002E+02  0.13763E-01
 0.63450001E+02  0.20548E-01
 0.63500000E+02  0.21874E-01
 0.63549999E+02  0.20512E-01
 0.63600002E+02  0.17778E-01
 0.63650002E+02  0.13476E-01
 0.63700001E+02  0.58338E-02
 0.63750000E+02 -0.27186E-02
 0.63799999E+02 -0.78230E-02
 0.63850002E+02 -0.16764E-01
 0.63900002E+02 -0.22733E-01
 0.63950001E+02 -0.24613E-01
 0.64000000E+02 -0.24120E-01
 0.64050003E+02 -0.15898E-01
 0.64099998E+02 -0.12767E-01
 0.64150002E+02 -0.12954E-01
 0.64200005E+02 -0.89828E-02
 0.64250000E+02 -0.40555E-02
 0.64300003E+02  0.22563E-02
 0.64349998E+02  0.73138E-02
 0.64400002E+02  0.92557E-02
 0.64450005E+02  0.97123E-02
 0.64500000E+02  0.95738E-02
 0.64550003E+02  0.31999E-02
 0.64599998E+02  0.16046E-03
 0.64650002E+02  0.17586E-02
 0.64700005E+02  0.61796E-03
 0.64750000E+02 -0.17452E-02
 0.64800003E+02 -0.56627E-02
 0.64849998E+02 -0.53996E-02
 0.64900002E+02 -0.75654E-02
 0.64950005E+02 -0.10897E-01
 0.65000000E+02 -0.17076E-01
 0.65050003E+02 -0.16043E-01
 0.65099998E+02 -0.10751E-01
 0.65150002E+02 -0.97307E-02
 0.65200005E+02 -0.14145E-01
 0.65250000E+02 -0.19749E-01
 0.65300003E+02 -0.24363E-01
 0.65349998E+02 -0.23092E-01
 0.65400002E+02 -0.16624E-01
 0.65450005E+02 -0.10134E-01
 0.65500000E+02  0.21908E-02
 0.65550003E+02  0.46703E-02
 0.65599998E+02  0.65181E-02
 0.65650002E+02  0.16403E-02
 0.65700005E+02 -0.12754E-02
 0.65750000E+02  0.29605E-02
 0.65800003E+02  0.22023E-02
 0.65849998E+02  0.54830E-02
 0.65900002E+02  0.57041E-02
 0.65950005E+02  0.35194E-02
 0.66000000E+02  0.12717E-02
 0.66050003E+02  0.35365E-03
 0.66099998E+02 -0.13196E-02
 0.66150002E+02  0.15948E-03
 0.66200005E+02  0.21270E-02
 0.66250000E+02  0.48278E-02
 0.66300003E+02  0.88020E-02
 0.66349998E+02  0.79770E-02
 0.66400002E+02  0.10954E-01
 0.66450005E+02  0.15965E-01
 0.66500000E+02  0.18600E-01
 0.66550003E+02  0.20130E-01
 0.66599998E+02  0.16926E-01
 0.66650002E+02  0.11898E-01
 0.66700005E+02  0.75518E-02
 0.66750000E+02  0.13552E-02
 0.66800003E+02 -0.58311E-02
 0.66849998E+02 -0.80349E-02
 0.66900002E+02 -0.63638E-02
 0.66950005E+02 -0.20053E-02
 0.67000000E+02  0.59608E-02
 0.67050003E+02  0.12135E-01
 0.67099998E+02  0.17719E-01
 0.67150002E+02  0.20263E-01
 0.67200005E+02  0.18679E-01
 0.67250000E+02  0.10187E-01
 0.67300003E+02  0.33559E-02
 0.67349998E+02  0.10942E-02
 0.67400002E+02  0.12283E-02
 0.67450005E+02  0.26836E-02
 0.67500000E+02  0.29760E-02
 0.67550003E+02  0.10216E-02
 0.67599998E+02 -0.18015E-02
 0.67650002E+02  0.34818E-02
 0.67700005E+02  0.62688E-02
 0.67750000E+02  0.57640E-02
 0.67800003E+02  0.71089E-03
 0.67849998E+02 -0.13176E-01
 0.67900002E+02 -0.23147E-01
 0.67950005E+02 -0.24264E-01
 0.68000000E+02 -0.22879E-01
 0.68050003E+02 -0.20745E-01
 0.68099998E+02 -0.16447E-01
 0.68150002E+02 -0.13785E-01
 0.68200005E+02 -0.11685E-01
 0.68250000E+02 -0.89270E-02
 0.68300003E+02 -0.52890E-02
 0.68349998E+02 -0.39030E-02
 0.68400002E+02 -0.35028E-02
 0.68450005E+02 -0.26891E-02
 0.68500000E+02  0.26650E-02
 0.68550003E+02  0.97566E-02
 0.68599998E+02  0.13769E-01
 0.68650002E+02  0.19434E-01
 0.68700005E+02  0.19455E-01
 0.68750000E+02  0.19868E-01
 0.68800003E+02  0.18061E-01
 0.68849998E+02  0.13407E-01
 0.68900002E+02  0.10223E-01
 0.68950005E+02  0.73527E-02
 0.69000000E+02  0.69559E-02
 0.69050003E+02  0.43496E-02
 0.69099998E+02  0.11287E-02
 0.69150002E+02 -0.26293E-02
 0.69200005E+02 -0.61197E-02
 0.69250000E+02 -0.70590E-02
 0.69300003E+02 -0.42948E-02
 0.69349998E+02  0.17261E-02
 0.69400002E+02  0.24022E-02
 0.69450005E+02 -0.46775E-03
 0.69500000E+02 -0.22822E-02
 0.69550003E+02 -0.69020E-02
 0.69599998E+02 -0.96491E-02
 0.69650002E+02 -0.10320E-01
 0.69700005E+02 -0.78357E-02
 0.69750000E+02 -0.19769E-02
 0.69800003E+02  0.37557E-02
 0.69849998E+02  0.70304E-02
 0.69900002E+02  0.70685E-02
 0.69950005E+02  0.41896E-02
 0.70000000E+02  0.13312E-02
 0.70050003E+02 -0.71248E-03
 0.70099998E+02  0.17641E-02
 0.70150002E+02  0.73018E-02
 0.70200005E+02  0.84958E-02
 0.70250000E+02  0.77608E-02
 0.70300003E+02  0.59812E-02
 0.70349998E+02  0.46143E-02
 0.70400002E+02  0.14788E-03
 0.70450005E+02 -0.75356E-02
 0.70500000E+02 -0.15861E-01
 0.70550003E+02 -0.23262E-01
 0.70599998E+02 -0.27131E-01
 0.70650002E+02 -0.27149E-01
 0.70700005E+02 -0.24647E-01
 0.70750000E+02 -0.25095E-01
 0.70800003E+02 -0.29904E-01
 0.70849998E+02 -0.30147E-01
 0.70900002E+02 -0.24294E-01
 0.70950005E+02 -0.14902E-01
 0.71000000E+02 -0.82418E-02
 0.71050003E+02 -0.27775E-02
 0.71099998E+02  0.57112E-02
 0.71150002E+02  0.12234E-01
 0.71200005E+02  0.18004E-01
 0.71250000E+02  0.19701E-01
 0.71300003E+02  0.18962E-01
 0.71349998E+02  0.15131E-01
 0.71400002E+02  0.83368E-02
 0.71450005E+02 -0.21226E-02
 0.71500000E+02 -0.16583E-01
 0.71550003E+02 -0.27006E-01
 0.71599998E+02 -0.33443E-01
 0.71650002E+02 -0.32841E-01
 0.71700005E+02 -0.26983E-01
 0.71750000E+02 -0.17287E-01
 0.71800003E+02 -0.35255E-02
 0.71849998E+02  0.85626E-02
 0.71900002E+02  0.19913E-01
 0.71950005E+02  0.27068E-01
 0.72000000E+02  0.30781E-01
 0.72050003E+02  0.33270E-01
 0.72099998E+02  0.30271E-01
 0.72150002E+02  0.24966E-01
 0.72200005E+02  0.19422E-01
 0.72250000E+02  0.12999E-01
 0.72300003E+02  0.10061E-01
 0.72349998E+02  0.10789E-01
 0.72400002E+02  0.12090E-01
 0.72450005E+02  0.12527E-01
 0.72500000E+02  0.12863E-01
 0.72550003E+02  0.11188E-01
 0.72599998E+02  0.84743E-02
 0.72650002E+02  0.53065E-02
 0.72700005E+02  0.80826E-04
 0.72750000E+02 -0.88471E-03
 0.72800003E+02  0.33742E-02
 0.72849998E+02  0.14432E-01
 0.72900002E+02  0.24523E-01
 0.72950005E+02  0.30339E-01
 0.73000000E+02  0.35123E-01
 0.73050003E+02  0.34798E-01
 0.73099998E+02  0.27688E-01
 0.73150002E+02  0.14740E-01
 0.73200005E+02  0.28138E-02
 0.73250000E+02 -0.75700E-02
 0.73300003E+02 -0.10910E-01
 0.73349998E+02 -0.99213E-02
 0.73400002E+02 -0.83934E-02
 0.73450005E+02 -0.32117E-02
 0.73500000E+02  0.29418E-02
 0.73550003E+02  0.92896E-02
 0.73599998E+02  0.13688E-01
 0.73650002E+02  0.15992E-01
 0.73700005E+02  0.15650E-01
 0.73750000E+02  0.12755E-01
 0.73800003E+02  0.86096E-02
 0.73849998E+02  0.41583E-02
 0.73900002E+02 -0.87757E-03
 0.73950005E+02 -0.42636E-02
 0.74000000E+02 -0.63886E-02
 0.74050003E+02 -0.82548E-02
 0.74099998E+02 -0.89642E-02
 0.74150002E+02 -0.82100E-02
 0.74200005E+02 -0.90038E-02
 0.74250000E+02 -0.10047E-01
 0.74300003E+02 -0.10527E-01
 0.74349998E+02 -0.12627E-01
 0.74400002E+02 -0.14687E-01
 0.74450005E+02 -0.16638E-01
 0.74500000E+02 -0.20119E-01
 0.74550003E+02 -0.22990E-01
 0.74599998E+02 -0.20643E-01
 0.74650002E+02 -0.19445E-01
 0.74700005E+02 -0.18635E-01
 0.74750000E+02 -0.18943E-01
 0.74800003E+02 -0.22129E-01
 0.74849998E+02 -0.22586E-01
 0.74900002E+02 -0.24247E-01
 0.74950005E+02 -0.26555E-01
 0.75000000E+02 -0.26307E-01
 0.75050003E+02 -0.23712E-01
 0.75099998E+02 -0.20131E-01
 0.75150002E+02 -0.18264E-01
 0.75200005E+02 -0.14571E-01
 0.75250000E+02 -0.10071E-01
 0.75300003E+02 -0.82065E-02
 0.75349998E+02 -0.79131E-02
 0.75400002E+02 -0.52341E-02
 0.75450005E+02 -0.72753E-03
 0.75500000E+02  0.26296E-02
 0.75550003E+02  0.55813E-02
 0.75599998E+02  0.64994E-02
 0.75650002E+02  0.41515E-02
 0.75700005E+02  0.39348E-02
 0.75750000E+02  0.82119E-02
 0.75800003E+02  0.12056E-01
 0.75849998E+02  0.16246E-01
 0.75900002E+02  0.18874E-01
 0.75950005E+02  0.16239E-01
 0.76000000E+02  0.14488E-01
 0.76050003E+02  0.15029E-01
 0.76099998E+02  0.14317E-01
 0.76150002E+02  0.12429E-01
 0.76200005E+02  0.66653E-02
 0.76250000E+02 -0.17251E-02
 0.76300003E+02 -0.82273E-02
 0.76349998E+02 -0.87928E-02
 0.76400002E+02 -0.62685E-02
 0.76450005E+02 -0.28689E-02
 0.76500000E+02 -0.66619E-03
 0.76550003E+02  0.90384E-03
 0.76599998E+02  0.43084E-02
 0.76650002E+02  0.30810E-02
 0.76700005E+02  0.12431E-02
 0.76750000E+02  0.20638E-02
 0.76800003E+02  0.66809E-03
 0.76849998E+02 -0.36590E-02
 0.76900002E+02 -0.76836E-02
 0.76950005E+02 -0.91560E-02
 0.77000000E+02 -0.54870E-02
 0.77050003E+02  0.31964E-02
 0.77099998E+02  0.11126E-01
 0.77150002E+02  0.16059E-01
 0.77200005E+02  0.18605E-01
 0.77250000E+02  0.19273E-01
 0.77300003E+02  0.19220E-01
 0.77349998E+02  0.18247E-01
 0.77400002E+02  0.13573E-01
 0.77450005E+02  0.54616E-02
 0.77500000E+02 -0.51054E-02
 0.77550003E+02 -0.13574E-01
 0.77599998E+02 -0.18914E-01
 0.77650002E+02 -0.19219E-01
 0.77700005E+02 -0.11584E-01
 0.77750000E+02 -0.28588E-02
 0.77800003E+02  0.37600E-02
 0.77849998E+02  0.65416E-02
 0.77900002E+02  0.37632E-02
 0.77950005E+02  0.78318E-03
 0.78000000E+02  0.59619E-03
 0.78050003E+02  0.57963E-03
 0.78099998E+02 -0.94713E-03
 0.78150002E+02 -0.39162E-02
 0.78200005E+02 -0.57123E-02
 0.78250000E+02 -0.94391E-02
 0.78300003E+02 -0.13964E-01
 0.78349998E+02 -0.17055E-01
 0.78400002E+02 -0.19099E-01
 0.78450005E+02 -0.20326E-01
 0.78500000E+02 -0.20926E-01
 0.78550003E+02 -0.20292E-01
 0.78599998E+02 -0.17089E-01
 0.78650002E+02 -0.14469E-01
 0.78700005E+02 -0.11951E-01
 0.78750000E+02 -0.61355E-02
 0.78800003E+02  0.69553E-03
 0.78849998E+02  0.48999E-02
 0.78900002E+02  0.53728E-02
 0.78950005E+02  0.71033E-02
 0.79000000E+02  0.85723E-02
 0.79050003E+02  0.88751E-02
 0.79099998E+02  0.50307E-02
 0.79150002E+02 -0.18436E-02
 0.79200005E+02 -0.80738E-02
 0.79250000E+02 -0.92213E-02
 0.79300003E+02 -0.77760E-02
 0.79349998E+02 -0.33298E-02
 0.79400002E+02  0.20647E-02
 0.79450005E+02  0.50333E-02
 0.79500000E+02  0.79175E-02
 0.79550003E+02  0.93253E-02
 0.79599998E+02  0.11499E-01
 0.79650002E+02  0.12409E-01
 0.79700005E+02  0.13176E-01
 0.79750000E+02  0.12760E-01
 0.79800003E+02  0.14433E-01
 0.79849998E+02  0.17523E-01
 0.79900002E+02  0.20674E-01
 0.79950005E+02  0.22138E-01
 0.80000000E+02  0.21802E-01
 0.80050003E+02  0.20719E-01
 0.80099998E+02  0.16071E-01
 0.80150002E+02  0.91284E-02
 0.80200005E+02  0.50549E-02
 0.80250000E+02  0.52391E-02
 0.80300003E+02  0.26006E-02
 0.80349998E+02  0.20169E-02
 0.80400002E+02  0.36009E-02
 0.80450005E+02  0.52480E-02
 0.80500000E+02  0.71472E-02
 0.80550003E+02  0.66053E-02
 0.80599998E+02  0.53656E-02
 0.80650002E+02  0.39756E-02
 0.80700005E+02  0.22008E-02
 0.80750000E+02 -0.10848E-02
 0.80800003E+02 -0.48568E-02
 0.80849998E+02 -0.57099E-02
 0.80900002E+02 -0.18308E-02
 0.80950005E+02  0.27051E-02
 0.81000000E+02  0.55953E-02
 0.81050003E+02  0.70596E-02
 0.81099998E+02  0.50044E-02
 0.81150002E+02 -0.96506E-03
 0.81200005E+02 -0.67044E-02
 0.81250000E+02 -0.91548E-02
 0.81300003E+02 -0.10565E-01
 0.81349998E+02 -0.11766E-01
 0.81400002E+02 -0.12823E-01
 0.81450005E+02 -0.10457E-01
 0.81500000E+02 -0.66109E-02
 0.81550003E+02 -0.38014E-02
 0.81599998E+02  0.81211E-03
 0.81650002E+02  0.56276E-02
 0.81700005E+02  0.73272E-02
 0.81750000E+02  0.53388E-02
 0.81800003E+02  0.19078E-02
 0.81849998E+02 -0.32947E-02
 0.81900002E+02 -0.74677E-02
 0.81950005E+02 -0.91681E-02
 0.82000000E+02 -0.79971E-02
 0.82050003E+02 -0.68796E-02
 0.82099998E+02 -0.90878E-02
 0.82150002E+02 -0.96201E-02
 0.82200005E+02 -0.63259E-02
 0.82250000E+02  0.95411E-03
 0.82300003E+02  0.77069E-02
 0.82349998E+02  0.96915E-02
 0.82400002E+02  0.94950E-02
 0.82450005E+02  0.52567E-02
 0.82500000E+02 -0.31768E-02
 0.82550003E+02 -0.12751E-01
 0.82599998E+02 -0.20465E-01
 0.82650002E+02 -0.24877E-01
 0.82700005E+02 -0.28694E-01
 0.82750000E+02 -0.29999E-01
 0.82800003E+02 -0.26543E-01
 0.82849998E+02 -0.18372E-01
 0.82900002E+02 -0.64987E-02
 0.82950005E+02  0.50341E-02
 0.83000000E+02  0.15350E-01
 0.83050003E+02  0.21568E-01
 0.83099998E+02  0.22575E-01
 0.83150002E+02  0.21282E-01
 0.83200005E+02  0.18707E-01
 0.83250000E+02  0.16353E-01
 0.83300003E+02  0.14207E-01
 0.83349998E+02  0.13578E-01
 0.83400002E+02  0.12634E-01
 0.83450005E+02  0.11862E-01
 0.83500000E+02  0.10952E-01
 0.83550003E+02  0.96217E-02
 0.83599998E+02  0.94509E-02
 0.83650002E+02  0.10292E-01
 0.83700005E+02  0.12233E-01
 0.83750000E+02  0.13743E-01
 0.83800003E+02  0.15960E-01
 0.83849998E+02  0.17946E-01
 0.83900002E+02  0.21053E-01
 0.83950005E+02  0.23866E-01
 0.84000000E+02  0.25439E-01
 0.84050003E+02  0.26179E-01
 0.84099998E+02  0.23852E-01
 0.84150002E+02  0.19905E-01
 0.84200005E+02  0.15403E-01
 0.84250000E+02  0.10744E-01
 0.84300003E+02  0.44125E-02
 0.84349998E+02 -0.15420E-03
 0.84400002E+02 -0.23657E-02
 0.84450005E+02 -0.43395E-02
 0.84500000E+02 -0.62720E-02
 0.84550003E+02 -0.92437E-02
 0.84599998E+02 -0.11837E-01
 0.84650002E+02 -0.15683E-01
 0.84700005E+02 -0.19235E-01
 0.84750000E+02 -0.22129E-01
 0.84800003E+02 -0.22585E-01
 0.84849998E+02 -0.19064E-01
 0.84900002E+02 -0.16890E-01
 0.84950005E+02 -0.17121E-01
 0.85000000E+02 -0.17724E-01
 0.85050003E+02 -0.17320E-01
 0.85099998E+02 -0.15132E-01
 0.85150002E+02 -0.14003E-01
 0.85200005E+02 -0.15712E-01
 0.85250000E+02 -0.17933E-01
 0.85300003E+02 -0.19918E-01
 0.85349998E+02 -0.19464E-01
 0.85400002E+02 -0.18448E-01
 0.85450005E+02 -0.16184E-01
 0.85500000E+02 -0.12501E-01
 0.85550003E+02 -0.96560E-02
 0.85599998E+02 -0.57955E-02
 0.85650002E+02 -0.68398E-03
 0.85700005E+02  0.52841E-02
 0.85750000E+02  0.10530E-01
 0.85800003E+02  0.13696E-01
 0.85849998E+02  0.14081E-01
 0.85900002E+02  0.14107E-01
 0.85950005E+02  0.11755E-01
 0.86000000E+02  0.62148E-02
 0.86050003E+02 -0.18144E-02
 0.86099998E+02 -0.83565E-02
 0.86150002E+02 -0.14318E-01
 0.86200005E+02 -0.18550E-01
 0.86250000E+02 -0.18452E-01
 0.86300003E+02 -0.16022E-01
 0.86349998E+02 -0.12866E-01
 0.86400002E+02 -0.12487E-01
 0.86450005E+02 -0.12430E-01
 0.86500000E+02 -0.12728E-01
 0.86550003E+02 -0.13489E-01
 0.86599998E+02 -0.13602E-01
 0.86650002E+02 -0.10373E-01
 0.86700005E+02 -0.46922E-02
 0.86750000E+02  0.36917E-03
 0.86800003E+02  0.26704E-02
 0.86849998E+02  0.32711E-02
 0.86900002E+02  0.28356E-02
 0.86950005E+02  0.19281E-02
 0.87000000E+02  0.33849E-02
 0.87050003E+02  0.30614E-02
 0.87099998E+02  0.16103E-03
 0.87150002E+02 -0.43068E-03
 0.87200005E+02 -0.75051E-03
 0.87250000E+02 -0.12265E-02
 0.87300003E+02  0.38088E-03
 0.87349998E+02  0.13819E-02
 0.87400002E+02  0.42889E-03
 0.87450005E+02 -0.12097E-02
 0.87500000E+02 -0.28516E-02
 0.87550003E+02 -0.42518E-02
 0.87599998E+02 -0.32179E-02
 0.87650002E+02 -0.11068E-02
 0.87700005E+02  0.16822E-02
 0.87750000E+02  0.58567E-02
 0.87800003E+02  0.12196E-01
 0.87849998E+02  0.19443E-01
 0.87900002E+02  0.24092E-01
 0.87950005E+02  0.25615E-01
 0.88000000E+02  0.23922E-01
 0.88050003E+02  0.20875E-01
 0.88099998E+02  0.18437E-01
 0.88150002E+02  0.18507E-01
 0.88200005E+02  0.20601E-01
 0.88250000E+02  0.22009E-01
 0.88300003E+02  0.20251E-01
 0.88349998E+02  0.17466E-01
 0.88400002E+02  0.14199E-01
 0.88450005E+02  0.11024E-01
 0.88500000E+02  0.81180E-02
 0.88550003E+02  0.44473E-02
 0.88599998E+02  0.18958E-02
 0.88650002E+02  0.10978E-02
 0.88700005E+02  0.22706E-02
 0.88750000E+02  0.41830E-02
 0.88800003E+02  0.68425E-02
 0.88849998E+02  0.94552E-02
 0.88900002E+02  0.11633E-01
 0.88950005E+02  0.12699E-01
 0.89000000E+02  0.11604E-01
 0.89050003E+02  0.86213E-02
 0.89099998E+02  0.52273E-02
 0.89150002E+02 -0.28024E-03
 0.89200005E+02 -0.84602E-02
 0.89250000E+02 -0.16293E-01
 0.89300003E+02 -0.20569E-01
 0.89349998E+02 -0.21430E-01
 0.89400002E+02 -0.21437E-01
 0.89450005E+02 -0.20007E-01
 0.89500000E+02 -0.19991E-01
 0.89550003E+02 -0.19852E-01
 0.89599998E+02 -0.16972E-01
 0.89650002E+02 -0.13123E-01
 0.89700005E+02 -0.10077E-01
 0.89750000E+02 -0.88066E-02
 0.89800003E+02 -0.79387E-02
 0.89849998E+02 -0.10040E-01
 0.89900002E+02 -0.13838E-01
 0.89950005E+02 -0.16804E-01
 0.90000000E+02 -0.18003E-01
 0.90050003E+02 -0.16705E-01
 0.90099998E+02 -0.16908E-01
 0.90150002E+02 -0.18669E-01
 0.90200005E+02 -0.19348E-01
 0.90250000E+02 -0.18325E-01
 0.90300003E+02 -0.16478E-01
 0.90349998E+02 -0.13167E-01
 0.90400002E+02 -0.84867E-02
 0.90450005E+02 -0.26426E-02
 0.90500000E+02  0.24227E-02
 0.90550003E+02  0.37166E-02
 0.90599998E+02  0.35643E-02
 0.90650002E+02  0.27757E-02
 0.90700005E+02  0.14824E-02
 0.90750000E+02  0.15146E-02
 0.90800003E+02  0.23792E-02
 0.90849998E+02  0.34034E-02
 0.90900002E+02  0.50062E-02
 0.90950005E+02  0.64268E-02
 0.91000000E+02  0.86060E-02
 0.91050003E+02  0.10811E-01
 0.91099998E+02  0.11420E-01
 0.91150002E+02  0.12693E-01
 0.91200005E+02  0.13305E-01
 0.91250000E+02  0.15569E-01
 0.91300003E+02  0.20022E-01
 0.91349998E+02  0.23735E-01
 0.91400002E+02  0.24875E-01
 0.91450005E+02  0.22118E-01
 0.91500000E+02  0.16973E-01
 0.91550003E+02  0.11801E-01
 0.91599998E+02  0.75699E-02
 0.91650002E+02  0.43992E-02
 0.91700005E+02  0.30448E-02
 0.91750000E+02 -0.32847E-03
 0.91800003E+02 -0.39181E-02
 0.91849998E+02 -0.58307E-02
 0.91900002E+02 -0.53952E-02
 0.91950005E+02 -0.26750E-02
 0.92000000E+02 -0.10441E-02
 0.92050003E+02  0.14451E-04
 0.92099998E+02  0.17949E-04
 0.92150002E+02  0.10159E-02
 0.92200005E+02  0.15370E-02
 0.92250000E+02  0.43071E-03
 0.92300003E+02  0.14300E-02
 0.92349998E+02  0.36609E-02
 0.92400002E+02  0.64120E-02
 0.92450005E+02  0.65475E-02
 0.92500000E+02  0.40110E-02
 0.92550003E+02  0.15133E-02
 0.92599998E+02 -0.73544E-03
 0.92650002E+02 -0.13372E-02
 0.92700005E+02 -0.26793E-02
 0.92750000E+02 -0.24418E-02
 0.92800003E+02  0.95847E-04
 0.92849998E+02  0.18345E-02
 0.92900002E+02  0.33153E-02
 0.92950005E+02  0.49667E-02
 0.93000000E+02  0.61303E-02
 0.93050003E+02  0.43118E-02
 0.93099998E+02  0.10923E-02
 0.93150002E+02 -0.19702E-02
 0.93200005E+02 -0.32516E-02
 0.93250000E+02 -0.32240E-02
 0.93300003E+02 -0.38193E-02
 0.93349998E+02 -0.32589E-02
 0.93400002E+02 -0.10150E-02
 0.93450005E+02 -0.37512E-03
 0.93500000E+02 -0.17023E-02
 0.93550003E+02 -0.35261E-02
 0.93599998E+02 -0.65660E-02
 0.93650002E+02 -0.94366E-02
 0.93700005E+02 -0.11360E-01
 0.93750000E+02 -0.11724E-01
 0.93800003E+02 -0.10650E-01
 0.93849998E+02 -0.86657E-02
 0.93900002E+02 -0.79114E-02
 0.93950005E+02 -0.78756E-02
 0.94000000E+02 -0.71874E-02
 0.94050003E+02 -0.66957E-02
 0.94099998E+02 -0.60755E-02
 0.94150002E+02 -0.50891E-02
 0.94200005E+02 -0.39028E-02
 0.94250000E+02 -0.23576E-02
 0.94300003E+02 -0.26789E-03
 0.94349998E+02  0.10675E-02
 0.94400002E+02  0.22864E-02
 0.94450005E+02  0.29788E-02
 0.94500000E+02  0.22260E-02
 0.94550003E+02  0.21066E-02
 0.94599998E+02  0.22863E-02
 0.94650002E+02  0.29231E-02
 0.94700005E+02  0.31213E-02
 0.94750000E+02  0.21132E-02
 0.94800003E+02  0.98683E-03
 0.94849998E+02 -0.16381E-02
 0.94900002E+02 -0.28621E-02
 0.94950005E+02 -0.35885E-02
 0.95000000E+02 -0.47586E-02
 0.95050003E+02 -0.44507E-02
 0.95099998E+02 -0.24964E-02
 0.95150002E+02 -0.49615E-03
 0.95200005E+02  0.99700E-03
 0.95250000E+02  0.19704E-02
 0.95300003E+02  0.25064E-02
 0.95349998E+02  0.42458E-02
 0.95400002E+02  0.50465E-02
 0.95450005E+02  0.56741E-02
 0.95500000E+02  0.63549E-02
 0.95550003E+02  0.63546E-02
 0.95599998E+02  0.47850E-02
 0.95650002E+02  0.29155E-02
 0.95700005E+02  0.20320E-02
 0.95750000E+02  0.20391E-02
 0.95800003E+02  0.28019E-02
 0.95849998E+02  0.23055E-02
 0.95900002E+02  0.16664E-02
 0.95950005E+02  0.14156E-02
 0.96000000E+02  0.71127E-03
 0.96050003E+02  0.89401E-03
 0.96099998E+02  0.23410E-02
 0.96150002E+02  0.31052E-02
 0.96200005E+02  0.36427E-02
 0.96250000E+02  0.35207E-02
 0.96300003E+02  0.22119E-02
 0.96349998E+02 -0.20108E-03
 0.96400002E+02 -0.21171E-02
 0.96450005E+02 -0.16739E-02
 0.96500000E+02 -0.73966E-03
 0.96550003E+02  0.41229E-03
 0.96599998E+02  0.95840E-03
 0.96650002E+02  0.13933E-02
 0.96700005E+02  0.27187E-02
 0.96750000E+02  0.44162E-02
 0.96800003E+02  0.60949E-02
 0.96849998E+02  0.59304E-02
 0.96900002E+02  0.52098E-02
 0.96950005E+02  0.48729E-02
 0.97000000E+02  0.51423E-02
 0.97050003E+02  0.55702E-02
 0.97099998E+02  0.57184E-02
 0.97150002E+02  0.56763E-02
 0.97200005E+02  0.60272E-02
 0.97250000E+02  0.60502E-02
 0.97300003E+02  0.47762E-02
 0.97349998E+02  0.30936E-02
 0.97400002E+02  0.14348E-03
 0.97450005E+02 -0.16031E-02
 0.97500000E+02 -0.25932E-02
 0.97550003E+02 -0.35659E-02
 0.97599998E+02 -0.49289E-02
 0.97650002E+02 -0.67419E-02
 0.97700005E+02 -0.86824E-02
 0.97750000E+02 -0.11386E-01
 0.97800003E+02 -0.12976E-01
 0.97849998E+02 -0.12733E-01
 0.97900002E+02 -0.10702E-01
 0.97950005E+02 -0.86995E-02
 0.98000000E+02 -0.67985E-02
 0.98050003E+02 -0.54237E-02
 0.98099998E+02 -0.49066E-02
 0.98150002E+02 -0.41217E-02
 0.98200005E+02 -0.36946E-02
 0.98250000E+02 -0.41541E-02
 0.98300003E+02 -0.48956E-02
 0.98349998E+02 -0.53845E-02
 0.98400002E+02 -0.60829E-02
 0.98450005E+02 -0.64268E-02
 0.98500000E+02 -0.67848E-02
 0.98550003E+02 -0.66290E-02
 0.98599998E+02 -0.58707E-02
 0.98650002E+02 -0.43195E-02
 0.98700005E+02 -0.32981E-02
 0.98750000E+02 -0.36563E-02
 0.98800003E+02 -0.25633E-02
 0.98849998E+02  0.59525E-03
 0.98900002E+02  0.48658E-02
 0.98950005E+02  0.82422E-02
 0.99000000E+02  0.10149E-01
 0.99050003E+02  0.11031E-01
 0.99099998E+02  0.12137E-01
 0.99150002E+02  0.12526E-01
 0.99200005E+02  0.11547E-01
 0.99250000E+02  0.98298E-02
 0.99300003E+02  0.69959E-02
 0.99349998E+02  0.39741E-02
 0.99400002E+02  0.13381E-02
 0.99450005E+02 -0.62722E-03
 0.99500000E+02 -0.17341E-02
 0.99550003E+02 -0.18560E-02
 0.99599998E+02 -0.11473E-02
 0.99650002E+02 -0.74801E-03
 0.99700005E+02 -0.19096E-02
 0.99750000E+02 -0.42447E-02
 0.99800003E+02 -0.52004E-02
 0.99849998E+02 -0.52951E-02
 0.99900002E+02 -0.54262E-02
 0.99950005E+02 -0.37081E-02
 0.10000000E+03 -0.42648E-03
 0.10005000E+03  0.29839E-02
 0.10010000E+03  0.54202E-02
 0.10015000E+03  0.66158E-02
 0.10020000E+03  0.74590E-02
 0.10025000E+03  0.69422E-02
 0.10030000E+03  0.38471E-02
 0.10035000E+03  0.93173E-03
 0.10040000E+03 -0.11060E-02
 0.10045000E+03 -0.14083E-02
 0.10050000E+03 -0.16861E-03
 0.10055000E+03  0.13478E-02
 0.10060000E+03  0.19692E-02
 0.10065000E+03  0.39364E-03
 0.10070000E+03 -0.20839E-02
 0.10075000E+03 -0.44586E-02
 0.10080000E+03 -0.68290E-02
 0.10085000E+03 -0.80365E-02
 0.10090000E+03 -0.67744E-02
 0.10095000E+03 -0.36604E-02
 0.10100000E+03  0.11042E-02
 0.10105000E+03  0.61422E-02
 0.10110000E+03  0.10902E-01
 0.10115000E+03  0.13588E-01
 0.10120000E+03  0.14059E-01
 0.10125000E+03  0.12359E-01
 0.10130000E+03  0.81572E-02
 0.10135000E+03  0.19123E-02
 0.10140000E+03 -0.49379E-02
 0.10145000E+03 -0.10336E-01
 0.10150000E+03 -0.13226E-01
 0.10155000E+03 -0.13125E-01
 0.10160000E+03 -0.11970E-01
 0.10165000E+03 -0.10813E-01
 0.10170000E+03 -0.85665E-02
 0.10175000E+03 -0.62093E-02
 0.10180000E+03 -0.38972E-02
 0.10185000E+03 -0.16115E-02
 0.10190000E+03 -0.67178E-03
 0.10195000E+03 -0.27872E-03
 0.10200000E+03 -0.21499E-03
 0.10205000E+03  0.97002E-04
 0.10210000E+03 -0.78916E-03
 0.10215000E+03 -0.19702E-02
 0.10220000E+03 -0.40663E-02
 0.10225000E+03 -0.59508E-02
 0.10230000E+03 -0.60177E-02
 0.10235000E+03 -0.54436E-02
 0.10240000E+03 -0.37993E-02
 0.10245000E+03 -0.21986E-02
 0.10250000E+03 -0.76829E-03
 0.10255000E+03  0.46739E-03
 0.10260000E+03  0.22307E-02
 0.10265000E+03  0.43199E-02
 0.10270000E+03  0.54531E-02
 0.10275000E+03  0.54258E-02
 0.10280000E+03  0.48674E-02
 0.10285000E+03  0.43133E-02
 0.10290000E+03  0.47515E-02
 0.10295000E+03  0.41351E-02
 0.10300000E+03  0.23019E-02
 0.10305000E+03  0.10538E-02
 0.10310000E+03  0.14836E-02
 0.10315000E+03  0.33401E-02
 0.10320000E+03  0.52401E-02
 0.10325000E+03  0.69194E-02
 0.10330000E+03  0.68428E-02
 0.10335000E+03  0.61184E-02
 0.10340000E+03  0.59320E-02
 0.10345000E+03  0.49293E-02
 0.10350000E+03  0.24402E-02
 0.10355000E+03 -0.54616E-03
 0.10360000E+03 -0.46995E-02
 0.10365000E+03 -0.78544E-02
 0.10370000E+03 -0.86747E-02
 0.10375000E+03 -0.86115E-02
 0.10380000E+03 -0.81344E-02
 0.10385000E+03 -0.71087E-02
 0.10390000E+03 -0.47012E-02
 0.10395000E+03 -0.17604E-02
 0.10400000E+03  0.10620E-02
 0.10405000E+03  0.29040E-02
 0.10410000E+03  0.36416E-02
 0.10415000E+03  0.41561E-02
 0.10420000E+03  0.41599E-02
 0.10425000E+03  0.42308E-02
 0.10430000E+03  0.55191E-02
 0.10435000E+03  0.63548E-02
 0.10440000E+03  0.61218E-02
 0.10445000E+03  0.52610E-02
 0.10450000E+03  0.51130E-02
 0.10455000E+03  0.52826E-02
 0.10460000E+03  0.38935E-02
 0.10465000E+03  0.23661E-02
 0.10470000E+03  0.83018E-03
 0.10475000E+03 -0.89132E-03
 0.10480000E+03 -0.27172E-02
 0.10485000E+03 -0.45540E-02
 0.10490000E+03 -0.57824E-02
 0.10495000E+03 -0.62467E-02
 0.10500000E+03 -0.64364E-02
 0.10505000E+03 -0.62876E-02
 0.10510000E+03 -0.51182E-02
 0.10515000E+03 -0.28572E-02
 0.10520000E+03  0.17108E-03
 0.10525000E+03  0.25291E-02
 0.10530000E+03  0.34477E-02
 0.10535000E+03  0.35954E-02
 0.10540000E+03  0.28767E-02
 0.10545000E+03  0.11538E-02
 0.10550000E+03 -0.90354E-03
 0.10555000E+03 -0.29240E-02
 0.10560000E+03 -0.53751E-02
 0.10565000E+03 -0.83243E-02
 0.10570000E+03 -0.10708E-01
 0.10575000E+03 -0.11986E-01
 0.10580000E+03 -0.11562E-01
 0.10585000E+03 -0.10033E-01
 0.10590000E+03 -0.74751E-02
 0.10595000E+03 -0.42838E-02
 0.10600000E+03 -0.16333E-02
 0.10605000E+03  0.70692E-03
 0.10610000E+03  0.23595E-02
 0.10615000E+03  0.37270E-02
 0.10620000E+03  0.53660E-02
 0.10625000E+03  0.73608E-02
 0.10630000E+03  0.94341E-02
 0.10635000E+03  0.11250E-01
 0.10640000E+03  0.12729E-01
 0.10645000E+03  0.13232E-01
 0.10650000E+03  0.12726E-01
 0.10655000E+03  0.12342E-01
 0.10660000E+03  0.10534E-01
 0.10665000E+03  0.77420E-02
 0.10670000E+03  0.47578E-02
 0.10675000E+03  0.63098E-03
 0.10680000E+03 -0.35160E-02
 0.10685000E+03 -0.76369E-02
 0.10690000E+03 -0.10178E-01
 0.10695000E+03 -0.11844E-01
 0.10700000E+03 -0.12736E-01
 0.10705000E+03 -0.13364E-01
 0.10710000E+03 -0.13077E-01
 0.10715000E+03 -0.10827E-01
 0.10720000E+03 -0.78642E-02
 0.10725000E+03 -0.51104E-02
 0.10730000E+03 -0.38863E-02
 0.10735000E+03 -0.29480E-02
 0.10740000E+03 -0.29175E-02
 0.10745000E+03 -0.28139E-02
 0.10750000E+03 -0.23355E-02
 0.10755000E+03 -0.16368E-02
 0.10760000E+03 -0.10331E-02
 0.10765000E+03 -0.10055E-02
 0.10770000E+03 -0.64284E-03
 0.10775000E+03 -0.24283E-03
 0.10780000E+03  0.30882E-03
 0.10785000E+03  0.39700E-03
 0.10790000E+03  0.11691E-02
 0.10795000E+03  0.22531E-02
 0.10800000E+03  0.42212E-02
 0.10805000E+03  0.72833E-02
 0.10810000E+03  0.90685E-02
 0.10815000E+03  0.10061E-01
 0.10820000E+03  0.10783E-01
 0.10825000E+03  0.11586E-01
 0.10830000E+03  0.11768E-01
 0.10835000E+03  0.11094E-01
 0.10840000E+03  0.10502E-01
 0.10845000E+03  0.10214E-01
 0.10850000E+03  0.95052E-02
 0.10855000E+03  0.80752E-02
 0.10860000E+03  0.72043E-02
 0.10865000E+03  0.77768E-02
 0.10870000E+03  0.82072E-02
 0.10875000E+03  0.77844E-02
 0.10880000E+03  0.81215E-02
 0.10885000E+03  0.85508E-02
 0.10890000E+03  0.90364E-02
 0.10895000E+03  0.95767E-02
 0.10900000E+03  0.10105E-01
 0.10905000E+03  0.90031E-02
 0.10910000E+03  0.66228E-02
 0.10915000E+03  0.34276E-02
 0.10920000E+03 -0.51180E-03
 0.10925000E+03 -0.33647E-02
 0.10930000E+03 -0.47160E-02
 0.10935000E+03 -0.43580E-02
 0.10940000E+03 -0.42054E-02
 0.10945000E+03 -0.37670E-02
 0.10950000E+03 -0.36182E-02
 0.10955000E+03 -0.37035E-02
 0.10960000E+03 -0.45340E-02
 0.10965000E+03 -0.61324E-02
 0.10970000E+03 -0.78146E-02
 0.10975000E+03 -0.10309E-01
 0.10980000E+03 -0.12686E-01
 0.10985000E+03 -0.13575E-01
 0.10990000E+03 -0.12552E-01
 0.10995000E+03 -0.11193E-01
 0.11000000E+03 -0.92732E-02
 0.11005000E+03 -0.81033E-02
 0.11010000E+03 -0.75261E-02
 0.11015000E+03 -0.68668E-02
 0.11020000E+03 -0.58656E-02
 0.11025000E+03 -0.41373E-02
 0.11030000E+03 -0.19398E-02
 0.11035000E+03  0.11619E-02
 0.11040000E+03  0.41815E-02
 0.11045000E+03  0.59945E-02
 0.11050000E+03  0.57491E-02
 0.11055000E+03  0.42030E-02
 0.11060000E+03  0.22359E-02
 0.11065000E+03  0.42262E-03
 0.11070000E+03 -0.96676E-03
 0.11075000E+03 -0.14390E-02
 0.11080000E+03 -0.96947E-03
 0.11085000E+03  0.73375E-05
 0.11090000E+03  0.11603E-02
 0.11095000E+03  0.21483E-02
 0.11100000E+03  0.27440E-02
 0.11105000E+03  0.30386E-02
 0.11110000E+03  0.28476E-02
 0.11115000E+03  0.20005E-02
 0.11120000E+03  0.45189E-03
 0.11125000E+03 -0.12697E-02
 0.11130000E+03 -0.19509E-02
 0.11135000E+03 -0.20139E-02
 0.11140000E+03 -0.17410E-02
 0.11145000E+03 -0.10790E-02
 0.11150000E+03 -0.81786E-03
 0.11155000E+03 -0.13662E-02
 0.11160000E+03 -0.25899E-02
 0.11165000E+03 -0.41703E-02
 0.11170000E+03 -0.56105E-02
 0.11175000E+03 -0.57038E-02
 0.11180000E+03 -0.38025E-02
 0.11185000E+03 -0.10377E-02
 0.11190000E+03  0.17503E-02
 0.11195000E+03  0.32198E-02
 0.11200000E+03  0.28236E-02
 0.11205000E+03  0.11315E-02
 0.11210000E+03 -0.10894E-02
 0.11215000E+03 -0.31630E-02
 0.11220000E+03 -0.42695E-02
 0.11225000E+03 -0.43727E-02
 0.11230000E+03 -0.35905E-02
 0.11235000E+03 -0.19529E-02
 0.11240000E+03 -0.86336E-03
 0.11245000E+03 -0.22573E-03
 0.11250000E+03  0.62142E-03
 0.11255000E+03  0.12851E-02
 0.11260000E+03  0.22457E-02
 0.11265000E+03  0.33656E-02
 0.11270000E+03  0.46361E-02
 0.11275000E+03  0.61678E-02
 0.11280000E+03  0.71733E-02
 0.11285000E+03  0.71909E-02
 0.11290000E+03  0.61112E-02
 0.11295000E+03  0.51571E-02
 0.11300000E+03  0.46381E-02
 0.11305000E+03  0.41731E-02
 0.11310000E+03  0.35012E-02
 0.11315000E+03  0.26007E-02
 0.11320000E+03  0.20915E-02
 0.11325000E+03  0.23975E-02
 0.11330000E+03  0.33930E-02
 0.11335000E+03  0.42826E-02
 0.11340000E+03  0.45387E-02
 0.11345000E+03  0.36528E-02
 0.11350000E+03  0.20912E-02
 0.11355000E+03  0.50296E-03
 0.11360000E+03 -0.20563E-02
 0.11365000E+03 -0.55213E-02
 0.11370000E+03 -0.90967E-02
 0.11375000E+03 -0.12661E-01
 0.11380000E+03 -0.16318E-01
 0.11385000E+03 -0.19875E-01
 0.11390000E+03 -0.22551E-01
 0.11395000E+03 -0.24397E-01
 0.11400000E+03 -0.25011E-01
 0.11405000E+03 -0.23578E-01
 0.11410000E+03 -0.21218E-01
 0.11415000E+03 -0.18821E-01
 0.11420000E+03 -0.16516E-01
 0.11425000E+03 -0.13560E-01
 0.11430000E+03 -0.96779E-02
 0.11435000E+03 -0.54681E-02
 0.11440000E+03 -0.18856E-02
 0.11445000E+03  0.11890E-02
 0.11450000E+03  0.39629E-02
 0.11455000E+03  0.58658E-02
 0.11460000E+03  0.71630E-02
 0.11465000E+03  0.77451E-02
 0.11470000E+03  0.72633E-02
 0.11475000E+03  0.62503E-02
 0.11480000E+03  0.61015E-02
 0.11485000E+03  0.69125E-02
 0.11490000E+03  0.92069E-02
 0.11495000E+03  0.11845E-01
 0.11500000E+03  0.13291E-01
 0.11505000E+03  0.13542E-01
 0.11510000E+03  0.12512E-01
 0.11515000E+03  0.10444E-01
 0.11520000E+03  0.76148E-02
 0.11525000E+03  0.45236E-02
 0.11530000E+03  0.18946E-02
 0.11535000E+03  0.57732E-03
 0.11540000E+03  0.96319E-03
 0.11545000E+03  0.26300E-02
 0.11550000E+03  0.41562E-02
 0.11555000E+03  0.48503E-02
 0.11560000E+03  0.52281E-02
 0.11565000E+03  0.61305E-02
 0.11570000E+03  0.66525E-02
 0.11575000E+03  0.56830E-02
 0.11580000E+03  0.33299E-02
 0.11585000E+03  0.45416E-03
 0.11590000E+03 -0.21557E-02
 0.11595000E+03 -0.44303E-02
 0.11600000E+03 -0.61449E-02
 0.11605000E+03 -0.73887E-02
 0.11610000E+03 -0.76026E-02
 0.11615000E+03 -0.67669E-02
 0.11620000E+03 -0.56222E-02
 0.11625000E+03 -0.41940E-02
 0.11630000E+03 -0.24907E-02
 0.11635000E+03 -0.67804E-03
 0.11640000E+03  0.17271E-02
 0.11645000E+03  0.44679E-02
 0.11650000E+03  0.69307E-02
 0.11655000E+03  0.86888E-02
 0.11660000E+03  0.97782E-02
 0.11665000E+03  0.10856E-01
 0.11670000E+03  0.11617E-01
 0.11675000E+03  0.11570E-01
 0.11680000E+03  0.10757E-01
 0.11685000E+03  0.98590E-02
 0.11690000E+03  0.91741E-02
 0.11695000E+03  0.84945E-02
 0.11700000E+03  0.75936E-02
 0.11705000E+03  0.65530E-02
 0.11710000E+03  0.55126E-02
 0.11715000E+03  0.39700E-02
 0.11720000E+03  0.21632E-02
 0.11725000E+03  0.82257E-03
 0.11730000E+03 -0.19959E-03
 0.11735000E+03 -0.11693E-02
 0.11740000E+03 -0.22996E-02
 0.11745000E+03 -0.40469E-02
 0.11750000E+03 -0.61113E-02
 0.11755000E+03 -0.74152E-02
 0.11760000E+03 -0.89151E-02
 0.11765000E+03 -0.11225E-01
 0.11770000E+03 -0.12723E-01
 0.11775000E+03 -0.13282E-01
 0.11780000E+03 -0.13525E-01
 0.11785000E+03 -0.13557E-01
 0.11790000E+03 -0.13556E-01
 0.11795000E+03 -0.13955E-01
 0.11800000E+03 -0.14760E-01
 0.11805000E+03 -0.15383E-01
 0.11810000E+03 -0.15244E-01
 0.11815000E+03 -0.14770E-01
 0.11820000E+03 -0.14006E-01
 0.11825000E+03 -0.12784E-01
 0.11830000E+03 -0.10783E-01
 0.11835000E+03 -0.81104E-02
 0.11840000E+03 -0.54935E-02
 0.11845000E+03 -0.24739E-02
 0.11850000E+03  0.73695E-03
 0.11855000E+03  0.34738E-02
 0.11860000E+03  0.50102E-02
 0.11865000E+03  0.54733E-02
 0.11870000E+03  0.55284E-02
 0.11875000E+03  0.56520E-02
 0.11880000E+03  0.54582E-02
 0.11885000E+03  0.51951E-02
 0.11890000E+03  0.51007E-02
 0.11895000E+03  0.52349E-02
 0.11900000E+03  0.61583E-02
 0.11905000E+03  0.73369E-02
 0.11910000E+03  0.84041E-02
 0.11915000E+03  0.95738E-02
 0.11920000E+03  0.10630E-01
 0.11925000E+03  0.11171E-01
 0.11930000E+03  0.11526E-01
 0.11935000E+03  0.11679E-01
 0.11940000E+03  0.11541E-01
 0.11945000E+03  0.11115E-01
 0.11950000E+03  0.96919E-02
 0.11955000E+03  0.72936E-02
 0.11960000E+03  0.54137E-02
 0.11965000E+03  0.42949E-02
 0.11970000E+03  0.35478E-02
 0.11975000E+03  0.24928E-02
 0.11980000E+03  0.72413E-03
 0.11985000E+03 -0.13936E-02
 0.11990000E+03 -0.22100E-02
 0.11995000E+03 -0.27631E-02
 0.12000000E+03 -0.16120E-02
