-0.19996643E-01  0.30803E-05
 0.30003358E-01  0.17440E-05
 0.80003358E-01  0.75134E-06
 0.13000336E+00  0.49178E-07
 0.18000336E+00 -0.41749E-06
 0.23000336E+00 -0.70102E-06
 0.28000337E+00 -0.82023E-06
 0.33000335E+00 -0.82542E-06
 0.38000336E+00 -0.75636E-06
 0.43000337E+00 -0.64500E-06
 0.48000336E+00 -0.52644E-06
 0.53000337E+00 -0.40670E-06
 0.58000338E+00 -0.30565E-06
 0.63000339E+00 -0.22424E-06
 0.68000335E+00 -0.16149E-06
 0.73000336E+00 -0.11202E-06
 0.78000337E+00 -0.61001E-07
 0.83000338E+00 -0.18706E-07
 0.88000339E+00  0.68843E-08
 0.93000335E+00  0.26484E-07
 0.98000336E+00  0.36225E-07
 0.10300034E+01  0.33251E-07
 0.10800034E+01  0.20723E-07
 0.11300033E+01  0.98556E-08
 0.11800034E+01  0.63019E-08
 0.12300034E+01  0.10763E-07
 0.12800034E+01  0.15098E-07
 0.13300034E+01  0.26383E-08
 0.13800033E+01  0.74717E-09
 0.14300034E+01 -0.99308E-09
 0.14800034E+01  0.75553E-08
 0.15300034E+01  0.30665E-07
 0.15800034E+01  0.41387E-07
 0.16300033E+01  0.50549E-07
 0.16800034E+01  0.45819E-07
 0.17300034E+01  0.43312E-07
 0.17800034E+01  0.51316E-07
 0.18300034E+01  0.51392E-07
 0.18800033E+01  0.33988E-07
 0.19300034E+01  0.86397E-08
 0.19800034E+01 -0.64409E-08
 0.20300033E+01 -0.48419E-08
 0.20800035E+01 -0.15577E-08
 0.21300035E+01  0.20672E-09
 0.21800034E+01  0.36591E-08
 0.22300034E+01 -0.82127E-08
 0.22800033E+01 -0.20077E-07
 0.23300035E+01 -0.20696E-07
 0.23800035E+01 -0.15223E-07
 0.24300034E+01 -0.17502E-07
 0.24800034E+01 -0.11247E-07
 0.25300033E+01 -0.11882E-08
 0.25800035E+01 -0.74992E-08
 0.26300035E+01 -0.17490E-07
 0.26800034E+01 -0.25999E-07
 0.27300034E+01 -0.25394E-07
 0.27800033E+01 -0.28342E-07
 0.28300035E+01 -0.17437E-07
 0.28800035E+01 -0.27300E-08
 0.29300034E+01 -0.28967E-08
 0.29800034E+01  0.58788E-08
 0.30300033E+01 -0.53296E-08
 0.30800035E+01 -0.18636E-07
 0.31300035E+01 -0.26373E-07
 0.31800034E+01 -0.35530E-07
 0.32300034E+01 -0.20547E-07
 0.32800033E+01 -0.18070E-08
 0.33300035E+01 -0.20324E-08
 0.33800035E+01 -0.69229E-08
 0.34300034E+01  0.42891E-08
 0.34800034E+01  0.16279E-07
 0.35300033E+01  0.27803E-07
 0.35800035E+01  0.26883E-07
 0.36300035E+01  0.19692E-07
 0.36800034E+01  0.12562E-07
 0.37300034E+01  0.90226E-09
 0.37800033E+01  0.97162E-08
 0.38300035E+01  0.19030E-07
 0.38800035E+01  0.12254E-07
 0.39300034E+01  0.48191E-08
 0.39800034E+01  0.57421E-08
 0.40300035E+01  0.14990E-07
 0.40800033E+01  0.20652E-07
 0.41300035E+01  0.24728E-07
 0.41800036E+01  0.34239E-07
 0.42300034E+01  0.26601E-07
 0.42800035E+01  0.50720E-08
 0.43300033E+01 -0.13118E-07
 0.43800035E+01 -0.20691E-07
 0.44300036E+01 -0.18275E-07
 0.44800034E+01 -0.13387E-07
 0.45300035E+01 -0.38007E-08
 0.45800033E+01  0.59261E-08
 0.46300035E+01  0.13792E-07
 0.46800036E+01  0.12119E-07
 0.47300034E+01  0.91366E-08
 0.47800035E+01  0.88280E-08
 0.48300033E+01  0.62843E-08
 0.48800035E+01  0.32131E-08
 0.49300036E+01 -0.81321E-08
 0.49800034E+01 -0.19197E-07
 0.50300035E+01 -0.10958E-07
 0.50800033E+01 -0.24562E-08
 0.51300035E+01 -0.49885E-08
 0.51800036E+01 -0.16498E-07
 0.52300034E+01 -0.29567E-07
 0.52800035E+01 -0.33236E-07
 0.53300033E+01 -0.40166E-07
 0.53800035E+01 -0.40917E-07
 0.54300036E+01 -0.27591E-07
 0.54800034E+01 -0.12153E-07
 0.55300035E+01 -0.75873E-08
 0.55800033E+01 -0.12465E-07
 0.56300035E+01 -0.12255E-07
 0.56800036E+01 -0.14174E-07
 0.57300034E+01 -0.14033E-07
 0.57800035E+01 -0.81393E-08
 0.58300033E+01 -0.43292E-09
 0.58800035E+01  0.13428E-07
 0.59300036E+01  0.29654E-07
 0.59800034E+01  0.25523E-07
 0.60300035E+01  0.98356E-08
 0.60800033E+01  0.76338E-08
 0.61300035E+01  0.39725E-08
 0.61800036E+01  0.36426E-08
 0.62300034E+01  0.43072E-08
 0.62800035E+01 -0.23921E-08
 0.63300033E+01  0.58938E-08
 0.63800035E+01  0.21722E-07
 0.64300036E+01  0.25686E-07
 0.64800034E+01  0.21022E-07
 0.65300035E+01  0.12602E-07
 0.65800033E+01  0.12800E-08
 0.66300035E+01  0.44357E-08
 0.66800036E+01  0.22701E-07
 0.67300034E+01  0.32358E-07
 0.67800035E+01  0.27770E-07
 0.68300033E+01  0.22363E-07
 0.68800035E+01  0.25514E-07
 0.69300036E+01  0.15200E-07
 0.69800034E+01 -0.12039E-07
 0.70300035E+01 -0.10308E-07
 0.70800033E+01 -0.11175E-07
 0.71300035E+01 -0.98977E-08
 0.71800036E+01 -0.35402E-07
 0.72300034E+01 -0.95201E-07
 0.72800035E+01 -0.65593E-07
 0.73300033E+01 -0.12292E-06
 0.73800035E+01  0.83492E-07
 0.74300036E+01  0.15914E-06
 0.74800034E+01  0.16752E-06
 0.75300035E+01  0.33196E-06
 0.75800033E+01 -0.14328E-06
 0.76300035E+01  0.22992E-06
 0.76800036E+01 -0.43076E-06
 0.77300034E+01  0.28400E-06
 0.77800035E+01 -0.38756E-06
 0.78300033E+01 -0.32917E-06
 0.78800035E+01 -0.10607E-06
 0.79300036E+01 -0.17936E-05
 0.79800034E+01  0.23367E-05
 0.80300035E+01 -0.89774E-06
 0.80800037E+01  0.25533E-04
 0.81300039E+01  0.60804E-04
 0.81800032E+01  0.95131E-04
 0.82300034E+01  0.10539E-03
 0.82800035E+01  0.99343E-04
 0.83300037E+01  0.14309E-03
 0.83800039E+01  0.14690E-03
 0.84300032E+01  0.17574E-03
 0.84800034E+01  0.62681E-04
 0.85300035E+01 -0.28345E-03
 0.85800037E+01 -0.56746E-03
 0.86300039E+01 -0.62131E-03
 0.86800032E+01 -0.49263E-03
 0.87300034E+01 -0.15940E-03
 0.87800035E+01  0.24357E-03
 0.88300037E+01  0.17930E-03
 0.88800039E+01  0.11063E-03
 0.89300032E+01  0.25355E-03
 0.89800034E+01  0.24814E-03
 0.90300035E+01  0.17620E-03
 0.90800037E+01  0.39623E-04
 0.91300039E+01  0.14689E-03
 0.91800032E+01  0.32344E-03
 0.92300034E+01  0.17254E-03
 0.92800035E+01 -0.19931E-03
 0.93300037E+01 -0.27073E-03
 0.93800039E+01 -0.17352E-03
 0.94300032E+01 -0.24461E-03
 0.94800034E+01 -0.25317E-03
 0.95300035E+01 -0.14603E-03
 0.95800037E+01  0.17272E-03
 0.96300039E+01  0.13022E-03
 0.96800032E+01  0.24203E-04
 0.97300034E+01  0.15724E-03
 0.97800035E+01  0.11458E-03
 0.98300037E+01  0.50016E-04
 0.98800039E+01 -0.94590E-04
 0.99300032E+01 -0.67904E-05
 0.99800034E+01  0.20644E-03
 0.10030004E+02  0.39980E-03
 0.10080004E+02  0.24358E-03
 0.10130004E+02 -0.90828E-04
 0.10180003E+02 -0.10138E-03
 0.10230003E+02 -0.45668E-03
 0.10280004E+02 -0.65391E-03
 0.10330004E+02 -0.45436E-03
 0.10380004E+02 -0.30496E-03
 0.10430003E+02  0.13787E-03
 0.10480003E+02  0.53174E-03
 0.10530004E+02  0.39382E-03
 0.10580004E+02  0.10807E-03
 0.10630004E+02  0.33525E-03
 0.10680003E+02  0.52205E-03
 0.10730003E+02  0.13690E-03
 0.10780004E+02  0.61244E-04
 0.10830004E+02  0.19940E-03
 0.10880004E+02  0.98776E-04
 0.10930003E+02 -0.32457E-04
 0.10980003E+02 -0.20197E-03
 0.11030004E+02 -0.30020E-03
 0.11080004E+02 -0.16093E-03
 0.11130004E+02 -0.15157E-03
 0.11180003E+02 -0.31444E-03
 0.11230003E+02 -0.26433E-03
 0.11280004E+02 -0.35586E-03
 0.11330004E+02 -0.31346E-03
 0.11380004E+02 -0.24222E-03
 0.11430003E+02 -0.19161E-03
 0.11480003E+02  0.15901E-03
 0.11530004E+02  0.12076E-03
 0.11580004E+02  0.14091E-03
 0.11630004E+02  0.17068E-03
 0.11680003E+02  0.20644E-03
 0.11730003E+02  0.51385E-03
 0.11780004E+02  0.33992E-03
 0.11830004E+02  0.22266E-03
 0.11880004E+02  0.27111E-03
 0.11930003E+02  0.20373E-03
 0.11980003E+02  0.14248E-03
 0.12030004E+02 -0.13592E-03
 0.12080004E+02 -0.32395E-03
 0.12130004E+02 -0.17765E-03
 0.12180003E+02 -0.12241E-03
 0.12230003E+02 -0.28973E-03
 0.12280004E+02 -0.34401E-04
 0.12330004E+02  0.17339E-03
 0.12380004E+02  0.14299E-05
 0.12430003E+02 -0.15288E-03
 0.12480003E+02 -0.26989E-03
 0.12530004E+02 -0.14452E-03
 0.12580004E+02 -0.18508E-03
 0.12630004E+02 -0.16438E-03
 0.12680003E+02  0.67743E-04
 0.12730003E+02  0.27478E-03
 0.12780004E+02  0.37770E-03
 0.12830004E+02 -0.26840E-04
 0.12880004E+02 -0.38002E-04
 0.12930003E+02  0.31336E-03
 0.12980003E+02  0.65843E-04
 0.13030004E+02 -0.46222E-04
 0.13080004E+02  0.49642E-04
 0.13130004E+02 -0.51395E-05
 0.13180003E+02  0.13462E-03
 0.13230003E+02  0.21709E-03
 0.13280004E+02  0.52578E-04
 0.13330004E+02 -0.72736E-04
 0.13380004E+02  0.23372E-03
 0.13430003E+02  0.37494E-03
 0.13480003E+02 -0.11497E-03
 0.13530004E+02 -0.65692E-03
 0.13580004E+02 -0.10157E-02
 0.13630004E+02 -0.10994E-02
 0.13680003E+02 -0.86415E-03
 0.13730003E+02 -0.29343E-03
 0.13780004E+02 -0.71866E-04
 0.13830004E+02 -0.50759E-03
 0.13880004E+02 -0.26535E-03
 0.13930003E+02  0.11276E-02
 0.13980003E+02  0.18495E-02
 0.14030004E+02  0.15905E-02
 0.14080004E+02  0.14120E-02
 0.14130004E+02 -0.35302E-03
 0.14180003E+02 -0.23565E-02
 0.14230003E+02 -0.26177E-02
 0.14280004E+02 -0.27134E-02
 0.14330004E+02 -0.17590E-02
 0.14380004E+02 -0.21631E-03
 0.14430003E+02  0.11495E-02
 0.14480003E+02  0.24624E-02
 0.14530004E+02  0.25866E-02
 0.14580004E+02  0.18315E-02
 0.14630004E+02  0.71097E-03
 0.14680003E+02 -0.39170E-03
 0.14730003E+02 -0.86566E-03
 0.14780004E+02  0.12457E-03
 0.14830004E+02  0.64375E-03
 0.14880004E+02  0.37180E-03
 0.14930003E+02  0.50458E-03
 0.14980003E+02  0.29486E-03
 0.15030004E+02  0.11098E-02
 0.15080004E+02  0.21838E-02
 0.15130004E+02  0.16814E-02
 0.15180003E+02 -0.50012E-03
 0.15230003E+02 -0.19179E-02
 0.15280004E+02 -0.18330E-02
 0.15330004E+02 -0.21664E-02
 0.15380004E+02 -0.16428E-02
 0.15430003E+02 -0.67628E-03
 0.15480003E+02  0.23202E-04
 0.15530004E+02  0.12171E-02
 0.15580004E+02  0.20763E-02
 0.15630004E+02  0.19463E-02
 0.15680003E+02  0.94931E-03
 0.15730003E+02 -0.85808E-03
 0.15780004E+02 -0.19459E-02
 0.15830004E+02 -0.11419E-02
 0.15880004E+02  0.76791E-04
 0.15930003E+02  0.71715E-03
 0.15980003E+02  0.95364E-04
 0.16030005E+02 -0.49264E-03
 0.16080004E+02 -0.57069E-03
 0.16130003E+02 -0.12712E-02
 0.16180004E+02 -0.83312E-03
 0.16230003E+02 -0.51649E-05
 0.16280005E+02  0.17926E-03
 0.16330004E+02  0.13580E-04
 0.16380003E+02 -0.13490E-02
 0.16430004E+02 -0.17629E-02
 0.16480003E+02 -0.54675E-03
 0.16530005E+02  0.54562E-03
 0.16580004E+02  0.10967E-02
 0.16630003E+02  0.82852E-03
 0.16680004E+02  0.53795E-03
 0.16730003E+02 -0.16564E-03
 0.16780005E+02 -0.18860E-03
 0.16830004E+02  0.13473E-02
 0.16880003E+02  0.19600E-02
 0.16930004E+02  0.18310E-02
 0.16980003E+02  0.12387E-02
 0.17030005E+02  0.98872E-03
 0.17080004E+02  0.10035E-02
 0.17130003E+02 -0.36480E-04
 0.17180004E+02 -0.12393E-02
 0.17230003E+02 -0.24274E-02
 0.17280005E+02 -0.26137E-02
 0.17330004E+02 -0.11650E-02
 0.17380003E+02  0.53198E-03
 0.17430004E+02  0.14360E-02
 0.17480003E+02  0.10716E-02
 0.17530005E+02 -0.37320E-03
 0.17580004E+02 -0.16661E-02
 0.17630003E+02 -0.18015E-02
 0.17680004E+02 -0.10211E-02
 0.17730003E+02 -0.51458E-06
 0.17780005E+02  0.54876E-03
 0.17830004E+02  0.49812E-03
 0.17880003E+02  0.10403E-02
 0.17930004E+02  0.16253E-02
 0.17980003E+02  0.11050E-02
 0.18030005E+02  0.34579E-03
 0.18080004E+02 -0.22536E-03
 0.18130003E+02 -0.41835E-03
 0.18180004E+02  0.13617E-03
 0.18230003E+02  0.87983E-03
 0.18280005E+02  0.11877E-02
 0.18330004E+02  0.13266E-02
 0.18380003E+02  0.14146E-02
 0.18430004E+02  0.13769E-02
 0.18480003E+02  0.11676E-02
 0.18530005E+02  0.16762E-03
 0.18580004E+02 -0.14355E-02
 0.18630003E+02 -0.24484E-02
 0.18680004E+02 -0.28102E-02
 0.18730003E+02 -0.18086E-02
 0.18780005E+02 -0.76288E-03
 0.18830004E+02 -0.14491E-02
 0.18880003E+02 -0.13926E-02
 0.18930004E+02 -0.75788E-03
 0.18980003E+02 -0.69651E-03
 0.19030005E+02 -0.32743E-03
 0.19080004E+02 -0.24612E-04
 0.19130003E+02  0.38707E-03
 0.19180004E+02  0.11769E-02
 0.19230003E+02  0.10606E-02
 0.19280005E+02  0.10633E-02
 0.19330004E+02  0.12885E-02
 0.19380003E+02  0.62742E-03
 0.19430004E+02  0.30896E-03
 0.19480003E+02 -0.42355E-03
 0.19530005E+02 -0.10307E-02
 0.19580004E+02 -0.36437E-03
 0.19630003E+02  0.61490E-03
 0.19680004E+02  0.11796E-02
 0.19730003E+02  0.11101E-02
 0.19780005E+02  0.24281E-03
 0.19830004E+02 -0.98069E-03
 0.19880003E+02 -0.10234E-02
 0.19930004E+02 -0.73871E-03
 0.19980003E+02 -0.30997E-03
 0.20030005E+02  0.86854E-03
 0.20080004E+02  0.11466E-02
 0.20130003E+02  0.38342E-03
 0.20180004E+02 -0.56217E-03
 0.20230003E+02 -0.82053E-03
 0.20280005E+02 -0.61194E-03
 0.20330004E+02 -0.62257E-03
 0.20380003E+02  0.39520E-03
 0.20430004E+02  0.15686E-02
 0.20480003E+02  0.11365E-02
 0.20530005E+02  0.23209E-03
 0.20580004E+02 -0.10092E-03
 0.20630003E+02  0.43967E-04
 0.20680004E+02  0.12115E-03
 0.20730003E+02 -0.18162E-03
 0.20780005E+02 -0.49191E-03
 0.20830004E+02 -0.11208E-03
 0.20880003E+02  0.69127E-03
 0.20930004E+02  0.32361E-03
 0.20980003E+02 -0.32212E-03
 0.21030005E+02 -0.31148E-03
 0.21080004E+02 -0.97652E-03
 0.21130003E+02 -0.14741E-02
 0.21180004E+02 -0.11236E-02
 0.21230003E+02 -0.91808E-03
 0.21280005E+02 -0.83588E-03
 0.21330004E+02 -0.62925E-03
 0.21380003E+02 -0.22668E-03
 0.21430004E+02  0.25913E-03
 0.21480003E+02  0.44601E-03
 0.21530005E+02  0.91344E-04
 0.21580004E+02 -0.41539E-03
 0.21630003E+02 -0.20197E-03
 0.21680004E+02  0.61812E-03
 0.21730003E+02  0.14214E-02
 0.21780005E+02  0.17966E-02
 0.21830004E+02  0.16008E-02
 0.21880003E+02  0.12426E-02
 0.21930004E+02  0.11977E-02
 0.21980003E+02  0.10082E-02
 0.22030005E+02  0.37899E-03
 0.22080004E+02 -0.75110E-04
 0.22130003E+02 -0.84897E-03
 0.22180004E+02 -0.12601E-02
 0.22230003E+02 -0.54317E-03
 0.22280005E+02 -0.22566E-03
 0.22330004E+02 -0.95155E-04
 0.22380003E+02  0.21532E-03
 0.22430004E+02  0.15569E-03
 0.22480003E+02  0.19340E-03
 0.22530005E+02  0.31246E-03
 0.22580004E+02  0.32712E-03
 0.22630003E+02  0.10666E-03
 0.22680004E+02 -0.46978E-03
 0.22730003E+02 -0.84869E-03
 0.22780005E+02 -0.78761E-03
 0.22830004E+02 -0.73988E-03
 0.22880003E+02 -0.51163E-03
 0.22930004E+02 -0.30335E-03
 0.22980003E+02 -0.82934E-03
 0.23030005E+02 -0.14012E-02
 0.23080004E+02 -0.13686E-02
 0.23130003E+02 -0.72220E-03
 0.23180004E+02 -0.86703E-04
 0.23230003E+02  0.13431E-03
 0.23280005E+02  0.47462E-03
 0.23330004E+02  0.91928E-03
 0.23380003E+02  0.12933E-02
 0.23430004E+02  0.14355E-02
 0.23480003E+02  0.12132E-02
 0.23530005E+02  0.66631E-03
 0.23580004E+02  0.19243E-03
 0.23630003E+02  0.18706E-03
 0.23680004E+02  0.25148E-03
 0.23730003E+02  0.28037E-03
 0.23780005E+02  0.11308E-03
 0.23830004E+02 -0.13010E-03
 0.23880003E+02 -0.19802E-03
 0.23930004E+02 -0.19953E-03
 0.23980003E+02 -0.21569E-03
 0.24030005E+02 -0.60667E-03
 0.24080004E+02 -0.67460E-03
 0.24130003E+02 -0.47378E-03
 0.24180004E+02 -0.67528E-03
 0.24230003E+02 -0.59623E-03
 0.24280005E+02 -0.16523E-03
 0.24330004E+02  0.13096E-03
 0.24380003E+02  0.32552E-03
 0.24430004E+02  0.46961E-03
 0.24480003E+02  0.38586E-03
 0.24530005E+02 -0.83130E-04
 0.24580004E+02 -0.67674E-03
 0.24630003E+02 -0.89005E-03
 0.24680004E+02 -0.46893E-03
 0.24730003E+02  0.75523E-04
 0.24780005E+02  0.35782E-03
 0.24830004E+02  0.68170E-03
 0.24880003E+02  0.83099E-03
 0.24930004E+02  0.95928E-03
 0.24980003E+02  0.95513E-03
 0.25030005E+02  0.78743E-03
 0.25080004E+02  0.74063E-03
 0.25130003E+02  0.23298E-03
 0.25180004E+02 -0.26591E-03
 0.25230003E+02 -0.37145E-03
 0.25280005E+02 -0.40486E-03
 0.25330004E+02 -0.23886E-03
 0.25380003E+02  0.85296E-05
 0.25430004E+02  0.12455E-03
 0.25480003E+02  0.68493E-04
 0.25530005E+02 -0.14514E-03
 0.25580004E+02 -0.26512E-03
 0.25630003E+02 -0.30564E-03
 0.25680004E+02 -0.50345E-03
 0.25730003E+02 -0.77125E-03
 0.25780005E+02 -0.91645E-03
 0.25830004E+02 -0.86475E-03
 0.25880003E+02 -0.77988E-03
 0.25930004E+02 -0.53451E-03
 0.25980003E+02 -0.26132E-03
 0.26030005E+02 -0.13774E-03
 0.26080004E+02 -0.36009E-05
 0.26130003E+02  0.33627E-03
 0.26180004E+02  0.91303E-03
 0.26230003E+02  0.11046E-02
 0.26280005E+02  0.90562E-03
 0.26330004E+02  0.67874E-03
 0.26380003E+02  0.61038E-03
 0.26430004E+02  0.58139E-03
 0.26480003E+02  0.42692E-03
 0.26530005E+02  0.24837E-03
 0.26580004E+02  0.98252E-04
 0.26630003E+02  0.84669E-04
 0.26680004E+02  0.26325E-04
 0.26730003E+02 -0.79949E-04
 0.26780005E+02 -0.36001E-03
 0.26830004E+02 -0.65794E-03
 0.26880003E+02 -0.61892E-03
 0.26930004E+02 -0.33359E-03
 0.26980003E+02 -0.36848E-04
 0.27030005E+02  0.61519E-04
 0.27080004E+02  0.66144E-04
 0.27130003E+02 -0.80667E-04
 0.27180004E+02 -0.29906E-03
 0.27230003E+02 -0.44641E-03
 0.27280005E+02 -0.66863E-03
 0.27330004E+02 -0.82776E-03
 0.27380003E+02 -0.56041E-03
 0.27430004E+02 -0.13731E-03
 0.27480003E+02  0.49078E-05
 0.27530005E+02  0.59958E-05
 0.27580004E+02  0.22762E-04
 0.27630003E+02 -0.30560E-04
 0.27680004E+02 -0.29231E-03
 0.27730003E+02 -0.41669E-03
 0.27780005E+02 -0.11751E-03
 0.27830004E+02  0.39734E-03
 0.27880003E+02  0.68478E-03
 0.27930004E+02  0.63158E-03
 0.27980003E+02  0.68017E-03
 0.28030005E+02  0.70871E-03
 0.28080004E+02  0.56626E-03
 0.28130003E+02  0.48408E-03
 0.28180004E+02  0.53309E-03
 0.28230003E+02  0.40424E-03
 0.28280005E+02  0.11549E-03
 0.28330004E+02 -0.37907E-04
 0.28380003E+02 -0.13518E-03
 0.28430004E+02  0.79918E-04
 0.28480003E+02  0.13572E-03
 0.28530005E+02 -0.17587E-03
 0.28580004E+02 -0.24481E-03
 0.28630003E+02 -0.19277E-03
 0.28680004E+02 -0.16708E-03
 0.28730003E+02 -0.20461E-03
 0.28780005E+02 -0.27823E-03
 0.28830004E+02 -0.44321E-03
 0.28880003E+02 -0.53270E-03
 0.28930004E+02 -0.55030E-03
 0.28980003E+02 -0.69798E-03
 0.29030005E+02 -0.55434E-03
 0.29080004E+02 -0.26562E-03
 0.29130003E+02  0.32162E-04
 0.29180004E+02  0.37929E-03
 0.29230003E+02  0.30903E-03
 0.29280005E+02  0.68757E-04
 0.29330004E+02  0.54058E-04
 0.29380003E+02  0.12771E-03
 0.29430004E+02  0.33779E-03
 0.29480003E+02  0.63248E-03
 0.29530005E+02  0.67056E-03
 0.29580004E+02  0.43732E-03
 0.29630003E+02  0.17083E-03
 0.29680004E+02 -0.99474E-04
 0.29730003E+02 -0.19486E-03
 0.29780005E+02  0.78826E-04
 0.29830004E+02  0.42360E-03
 0.29880003E+02  0.54100E-03
 0.29930004E+02  0.45023E-03
 0.29980003E+02  0.90861E-04
 0.30030005E+02 -0.27365E-03
 0.30080004E+02 -0.20784E-03
 0.30130003E+02 -0.79820E-04
 0.30180004E+02 -0.40188E-04
 0.30230003E+02 -0.63769E-04
 0.30280005E+02 -0.22287E-03
 0.30330004E+02 -0.19006E-03
 0.30380003E+02 -0.81389E-04
 0.30430004E+02 -0.19529E-03
 0.30480003E+02 -0.49150E-03
 0.30530005E+02 -0.57545E-03
 0.30580004E+02 -0.38889E-03
 0.30630003E+02 -0.27717E-03
 0.30680004E+02 -0.37024E-03
 0.30730003E+02 -0.51025E-03
 0.30780005E+02 -0.33081E-03
 0.30830004E+02  0.32070E-04
 0.30880003E+02  0.41481E-03
 0.30930004E+02  0.77060E-03
 0.30980003E+02  0.85677E-03
 0.31030005E+02  0.73152E-03
 0.31080004E+02  0.50182E-03
 0.31130003E+02  0.11820E-03
 0.31180004E+02 -0.15888E-03
 0.31230003E+02 -0.10039E-03
 0.31280005E+02  0.32718E-04
 0.31330004E+02  0.10058E-03
 0.31380003E+02  0.71576E-04
 0.31430004E+02  0.10218E-04
 0.31480003E+02 -0.12357E-05
 0.31530005E+02 -0.15689E-03
 0.31580004E+02 -0.49304E-03
 0.31630003E+02 -0.77742E-03
 0.31680004E+02 -0.75394E-03
 0.31730003E+02 -0.34014E-03
 0.31780005E+02  0.18810E-03
 0.31830004E+02  0.44544E-03
 0.31880003E+02  0.37450E-03
 0.31930004E+02  0.12397E-03
 0.31980003E+02 -0.11453E-03
 0.32030003E+02 -0.22837E-03
 0.32080006E+02 -0.27261E-03
 0.32130005E+02 -0.26381E-03
 0.32180004E+02 -0.10893E-03
 0.32230003E+02  0.74315E-04
 0.32280003E+02  0.19268E-04
 0.32330006E+02 -0.22745E-03
 0.32380005E+02 -0.34748E-03
 0.32430004E+02 -0.13652E-03
 0.32480003E+02  0.24719E-03
 0.32530003E+02  0.47182E-03
 0.32580006E+02  0.44556E-03
 0.32630005E+02  0.39885E-03
 0.32680004E+02  0.35958E-03
 0.32730003E+02  0.27208E-03
 0.32780003E+02  0.23443E-03
 0.32830006E+02  0.94058E-04
 0.32880005E+02 -0.94602E-04
 0.32930004E+02 -0.99068E-04
 0.32980003E+02 -0.74699E-04
 0.33030003E+02 -0.51702E-04
 0.33080006E+02  0.16893E-03
 0.33130005E+02  0.47739E-03
 0.33180004E+02  0.63703E-03
 0.33230003E+02  0.60847E-03
 0.33280003E+02  0.49081E-03
 0.33330006E+02  0.31058E-03
 0.33380005E+02  0.33899E-04
 0.33430004E+02 -0.29721E-03
 0.33480003E+02 -0.64725E-03
 0.33530003E+02 -0.84502E-03
 0.33580006E+02 -0.83550E-03
 0.33630005E+02 -0.77027E-03
 0.33680004E+02 -0.63842E-03
 0.33730003E+02 -0.38837E-03
 0.33780003E+02 -0.20354E-03
 0.33830006E+02 -0.24569E-03
 0.33880005E+02 -0.26431E-03
 0.33930004E+02 -0.13631E-03
 0.33980003E+02 -0.12398E-04
 0.34030003E+02  0.24453E-04
 0.34080006E+02  0.73259E-04
 0.34130005E+02  0.24546E-03
 0.34180004E+02  0.30431E-03
 0.34230003E+02  0.18032E-03
 0.34280003E+02  0.85941E-04
 0.34330006E+02  0.11344E-03
 0.34380005E+02  0.24890E-03
 0.34430004E+02  0.39270E-03
 0.34480003E+02  0.42264E-03
 0.34530003E+02  0.27881E-03
 0.34580006E+02  0.67982E-04
 0.34630005E+02 -0.51474E-05
 0.34680004E+02  0.11593E-03
 0.34730003E+02  0.22633E-03
 0.34780003E+02  0.20771E-03
 0.34830006E+02  0.16691E-03
 0.34880005E+02  0.11273E-03
 0.34930004E+02  0.75225E-04
 0.34980003E+02  0.16125E-03
 0.35030003E+02  0.29485E-03
 0.35080006E+02  0.36432E-03
 0.35130005E+02  0.34773E-03
 0.35180004E+02  0.18540E-03
 0.35230003E+02 -0.73559E-04
 0.35280003E+02 -0.33712E-03
 0.35330006E+02 -0.64068E-03
 0.35380005E+02 -0.81076E-03
 0.35430004E+02 -0.72780E-03
 0.35480003E+02 -0.63483E-03
 0.35530003E+02 -0.58851E-03
 0.35580006E+02 -0.53862E-03
 0.35630005E+02 -0.45740E-03
 0.35680004E+02 -0.23712E-03
 0.35730003E+02  0.62885E-04
 0.35780003E+02  0.29343E-03
 0.35830006E+02  0.37910E-03
 0.35880005E+02  0.33624E-03
 0.35930004E+02  0.24960E-03
 0.35980003E+02  0.20475E-03
 0.36030003E+02  0.16680E-03
 0.36080006E+02  0.93416E-04
 0.36130005E+02  0.26777E-04
 0.36180004E+02 -0.14137E-04
 0.36230003E+02 -0.59104E-04
 0.36280003E+02 -0.13533E-03
 0.36330006E+02 -0.24017E-03
 0.36380005E+02 -0.36393E-03
 0.36430004E+02 -0.46435E-03
 0.36480003E+02 -0.42406E-03
 0.36530003E+02 -0.11850E-03
 0.36580006E+02  0.24801E-03
 0.36630005E+02  0.51140E-03
 0.36680004E+02  0.71419E-03
 0.36730003E+02  0.79411E-03
 0.36780003E+02  0.81085E-03
 0.36830006E+02  0.71864E-03
 0.36880005E+02  0.51314E-03
 0.36930004E+02  0.26887E-03
 0.36980003E+02 -0.43688E-04
 0.37030003E+02 -0.25699E-03
 0.37080006E+02 -0.25477E-03
 0.37130005E+02 -0.11274E-03
 0.37180004E+02  0.65088E-04
 0.37230003E+02  0.19838E-03
 0.37280003E+02  0.21184E-03
 0.37330006E+02  0.10382E-03
 0.37380005E+02 -0.40697E-04
 0.37430004E+02 -0.11483E-03
 0.37480003E+02 -0.86805E-04
 0.37530003E+02 -0.87359E-04
 0.37580006E+02 -0.13167E-03
 0.37630005E+02 -0.17287E-03
 0.37680004E+02 -0.28627E-03
 0.37730003E+02 -0.36196E-03
 0.37780003E+02 -0.25359E-03
 0.37830006E+02 -0.10642E-03
 0.37880005E+02 -0.79944E-04
 0.37930004E+02 -0.16123E-03
 0.37980003E+02 -0.23830E-03
 0.38030003E+02 -0.27100E-03
 0.38080006E+02 -0.31472E-03
 0.38130005E+02 -0.35552E-03
 0.38180004E+02 -0.36899E-03
 0.38230003E+02 -0.40487E-03
 0.38280003E+02 -0.43150E-03
 0.38330006E+02 -0.29993E-03
 0.38380005E+02 -0.17343E-04
 0.38430004E+02  0.26713E-03
 0.38480003E+02  0.44266E-03
 0.38530003E+02  0.45747E-03
 0.38580006E+02  0.38363E-03
 0.38630005E+02  0.37883E-03
 0.38680004E+02  0.42342E-03
 0.38730003E+02  0.36781E-03
 0.38780003E+02  0.27459E-03
 0.38830006E+02  0.22120E-03
 0.38880005E+02  0.14853E-03
 0.38930004E+02  0.79106E-04
 0.38980003E+02  0.46761E-04
 0.39030003E+02  0.33401E-04
 0.39080006E+02  0.31337E-04
 0.39130005E+02  0.59013E-04
 0.39180004E+02  0.15426E-03
 0.39230003E+02  0.25103E-03
 0.39280003E+02  0.22491E-03
 0.39330006E+02  0.68952E-04
 0.39380005E+02 -0.16814E-03
 0.39430004E+02 -0.35534E-03
 0.39480003E+02 -0.40469E-03
 0.39530003E+02 -0.38234E-03
 0.39580006E+02 -0.28963E-03
 0.39630005E+02 -0.21066E-03
 0.39680004E+02 -0.16976E-03
 0.39730003E+02 -0.76977E-04
 0.39780003E+02 -0.69169E-04
 0.39830006E+02 -0.13679E-03
 0.39880005E+02 -0.14508E-03
 0.39930004E+02 -0.11209E-03
 0.39980003E+02 -0.40315E-04
 0.40030003E+02  0.44700E-04
 0.40080006E+02  0.14196E-03
 0.40130005E+02  0.21331E-03
 0.40180004E+02  0.17852E-03
 0.40230003E+02  0.95707E-04
 0.40280003E+02  0.31088E-04
 0.40330006E+02  0.50836E-05
 0.40380005E+02  0.28412E-04
 0.40430004E+02  0.53588E-04
 0.40480003E+02  0.82015E-04
 0.40530003E+02  0.12050E-03
 0.40580006E+02  0.11474E-03
 0.40630005E+02  0.85486E-04
 0.40680004E+02  0.79456E-04
 0.40730003E+02  0.42835E-04
 0.40780003E+02 -0.28333E-04
 0.40830006E+02 -0.47692E-04
 0.40880005E+02 -0.89399E-04
 0.40930004E+02 -0.19939E-03
 0.40980003E+02 -0.23056E-03
 0.41030003E+02 -0.10719E-03
 0.41080006E+02  0.34148E-04
 0.41130005E+02  0.87864E-04
 0.41180004E+02  0.67421E-04
 0.41230003E+02 -0.16890E-04
 0.41280003E+02 -0.53995E-04
 0.41330006E+02  0.16273E-05
 0.41380005E+02  0.11888E-03
 0.41430004E+02  0.20978E-03
 0.41480003E+02  0.10486E-03
 0.41530003E+02 -0.18296E-03
 0.41580006E+02 -0.49474E-03
 0.41630005E+02 -0.67963E-03
 0.41680004E+02 -0.70021E-03
 0.41730003E+02 -0.59409E-03
 0.41780003E+02 -0.38247E-03
 0.41830006E+02 -0.15026E-03
 0.41880005E+02  0.57182E-04
 0.41930004E+02  0.24077E-03
 0.41980003E+02  0.36914E-03
 0.42030003E+02  0.46208E-03
 0.42080006E+02  0.55212E-03
 0.42130005E+02  0.60243E-03
 0.42180004E+02  0.57542E-03
 0.42230003E+02  0.58037E-03
 0.42280003E+02  0.57018E-03
 0.42330006E+02  0.48829E-03
 0.42380005E+02  0.45874E-03
 0.42430004E+02  0.36310E-03
 0.42480003E+02  0.17163E-03
 0.42530003E+02  0.11620E-04
 0.42580006E+02 -0.10324E-03
 0.42630005E+02 -0.19803E-03
 0.42680004E+02 -0.28849E-03
 0.42730003E+02 -0.29588E-03
 0.42780003E+02 -0.22983E-03
 0.42830006E+02 -0.18873E-03
 0.42880005E+02 -0.14317E-03
 0.42930004E+02 -0.59492E-04
 0.42980003E+02 -0.18978E-04
 0.43030003E+02 -0.86014E-04
 0.43080006E+02 -0.22575E-03
 0.43130005E+02 -0.34460E-03
 0.43180004E+02 -0.43473E-03
 0.43230003E+02 -0.52125E-03
 0.43280003E+02 -0.59148E-03
 0.43330006E+02 -0.60303E-03
 0.43380005E+02 -0.42706E-03
 0.43430004E+02 -0.17899E-03
 0.43480003E+02  0.29634E-05
 0.43530003E+02  0.16424E-03
 0.43580006E+02  0.25241E-03
 0.43630005E+02  0.26230E-03
 0.43680004E+02  0.22256E-03
 0.43730003E+02  0.21505E-03
 0.43780003E+02  0.24814E-03
 0.43830006E+02  0.23113E-03
 0.43880005E+02  0.16863E-03
 0.43930004E+02  0.57389E-04
 0.43980003E+02 -0.41685E-05
 0.44030003E+02  0.15916E-04
 0.44080006E+02  0.11009E-04
 0.44130005E+02  0.14928E-04
 0.44180004E+02  0.18548E-04
 0.44230003E+02  0.57251E-05
 0.44280003E+02  0.47414E-04
 0.44330006E+02  0.90860E-04
 0.44380005E+02  0.14282E-03
 0.44430004E+02  0.23122E-03
 0.44480003E+02  0.31186E-03
 0.44530003E+02  0.40113E-03
 0.44580006E+02  0.38294E-03
 0.44630005E+02  0.25448E-03
 0.44680004E+02  0.14976E-03
 0.44730003E+02  0.37368E-04
 0.44780003E+02 -0.70972E-04
 0.44830006E+02 -0.13221E-03
 0.44880005E+02 -0.11074E-03
 0.44930004E+02 -0.17642E-04
 0.44980003E+02 -0.84470E-05
 0.45030003E+02 -0.68293E-04
 0.45080006E+02 -0.78804E-04
 0.45130005E+02 -0.11157E-03
 0.45180004E+02 -0.15811E-03
 0.45230003E+02 -0.18492E-03
 0.45280003E+02 -0.21979E-03
 0.45330006E+02 -0.21976E-03
 0.45380005E+02 -0.23682E-03
 0.45430004E+02 -0.26124E-03
 0.45480003E+02 -0.23826E-03
 0.45530003E+02 -0.25764E-03
 0.45580006E+02 -0.32693E-03
 0.45630005E+02 -0.36215E-03
 0.45680004E+02 -0.32126E-03
 0.45730003E+02 -0.23066E-03
 0.45780003E+02 -0.16728E-03
 0.45830006E+02 -0.79546E-04
 0.45880005E+02  0.59381E-04
 0.45930004E+02  0.17789E-03
 0.45980003E+02  0.28045E-03
 0.46030003E+02  0.31739E-03
 0.46080006E+02  0.33877E-03
 0.46130005E+02  0.41709E-03
 0.46180004E+02  0.44994E-03
 0.46230003E+02  0.40072E-03
 0.46280003E+02  0.32454E-03
 0.46330006E+02  0.27764E-03
 0.46380005E+02  0.20639E-03
 0.46430004E+02  0.90670E-04
 0.46480003E+02  0.33060E-05
 0.46530003E+02 -0.96710E-04
 0.46580006E+02 -0.22338E-03
 0.46630005E+02 -0.32469E-03
 0.46680004E+02 -0.35210E-03
 0.46730003E+02 -0.25934E-03
 0.46780003E+02 -0.99691E-04
 0.46830006E+02  0.15085E-04
 0.46880005E+02  0.77591E-04
 0.46930004E+02  0.14586E-03
 0.46980003E+02  0.17479E-03
 0.47030003E+02  0.15207E-03
 0.47080006E+02  0.11030E-03
 0.47130005E+02  0.41163E-04
 0.47180004E+02 -0.91791E-05
 0.47230003E+02 -0.30330E-04
 0.47280003E+02 -0.14685E-04
 0.47330006E+02  0.33054E-04
 0.47380005E+02  0.68265E-04
 0.47430004E+02  0.99060E-04
 0.47480003E+02  0.13966E-03
 0.47530003E+02  0.16867E-03
 0.47580006E+02  0.12864E-03
 0.47630005E+02  0.43908E-04
 0.47680004E+02 -0.40459E-04
 0.47730003E+02 -0.12439E-03
 0.47780003E+02 -0.20964E-03
 0.47830006E+02 -0.26504E-03
 0.47880005E+02 -0.23612E-03
 0.47930004E+02 -0.18789E-03
 0.47980003E+02 -0.16186E-03
 0.48030003E+02 -0.14216E-03
 0.48080006E+02 -0.11301E-03
 0.48130005E+02 -0.72212E-04
 0.48180004E+02 -0.87871E-04
 0.48230003E+02 -0.13317E-03
 0.48280003E+02 -0.14019E-03
 0.48330006E+02 -0.11947E-03
 0.48380005E+02 -0.67611E-04
 0.48430004E+02  0.20693E-04
 0.48480003E+02  0.12647E-03
 0.48530003E+02  0.24290E-03
 0.48580006E+02  0.33867E-03
 0.48630005E+02  0.37915E-03
 0.48680004E+02  0.34063E-03
 0.48730003E+02  0.21591E-03
 0.48780003E+02  0.72344E-04
 0.48830006E+02 -0.27207E-04
 0.48880005E+02 -0.75368E-04
 0.48930004E+02 -0.11364E-03
 0.48980003E+02 -0.16903E-03
 0.49030003E+02 -0.18759E-03
 0.49080006E+02 -0.14913E-03
 0.49130005E+02 -0.98397E-04
 0.49180004E+02 -0.73226E-04
 0.49230003E+02 -0.92045E-04
 0.49280003E+02 -0.12423E-03
 0.49330006E+02 -0.10547E-03
 0.49380005E+02 -0.70255E-04
 0.49430004E+02 -0.87991E-04
 0.49480003E+02 -0.11971E-03
 0.49530003E+02 -0.12118E-03
 0.49580006E+02 -0.11966E-03
 0.49630005E+02 -0.14138E-03
 0.49680004E+02 -0.13862E-03
 0.49730003E+02 -0.71426E-04
 0.49780003E+02  0.59291E-04
 0.49830006E+02  0.20797E-03
 0.49880005E+02  0.30900E-03
 0.49930004E+02  0.33345E-03
 0.49980003E+02  0.25329E-03
 0.50030003E+02  0.11235E-03
 0.50080006E+02 -0.14445E-04
 0.50130005E+02 -0.62909E-04
 0.50180004E+02 -0.20581E-04
 0.50230003E+02  0.45483E-04
 0.50280003E+02  0.10774E-03
 0.50330006E+02  0.14082E-03
 0.50380005E+02  0.12894E-03
 0.50430004E+02  0.10778E-03
 0.50480003E+02  0.86686E-04
 0.50530003E+02  0.58145E-04
 0.50580006E+02  0.32746E-04
 0.50630005E+02  0.45083E-05
 0.50680004E+02 -0.18443E-04
 0.50730003E+02 -0.35075E-04
 0.50780003E+02 -0.37067E-04
 0.50830006E+02  0.19419E-05
 0.50880005E+02  0.22588E-04
 0.50930004E+02  0.15945E-05
 0.50980003E+02 -0.20332E-04
 0.51030003E+02 -0.20872E-04
 0.51080006E+02 -0.81267E-05
 0.51130005E+02 -0.33752E-04
 0.51180004E+02 -0.94088E-04
 0.51230003E+02 -0.14930E-03
 0.51280003E+02 -0.18483E-03
 0.51330006E+02 -0.22785E-03
 0.51380005E+02 -0.29468E-03
 0.51430004E+02 -0.30998E-03
 0.51480003E+02 -0.22496E-03
 0.51530003E+02 -0.85092E-04
 0.51580006E+02  0.47403E-04
 0.51630005E+02  0.15060E-03
 0.51680004E+02  0.19706E-03
 0.51730003E+02  0.16912E-03
 0.51780003E+02  0.15127E-03
 0.51830006E+02  0.17161E-03
 0.51880005E+02  0.18122E-03
 0.51930004E+02  0.17885E-03
 0.51980003E+02  0.15685E-03
 0.52030003E+02  0.13038E-03
 0.52080006E+02  0.12465E-03
 0.52130005E+02  0.14754E-03
 0.52180004E+02  0.19894E-03
 0.52230003E+02  0.24466E-03
 0.52280003E+02  0.24888E-03
 0.52330006E+02  0.20694E-03
 0.52380005E+02  0.13493E-03
 0.52430004E+02  0.27906E-04
 0.52480003E+02 -0.11492E-03
 0.52530003E+02 -0.27270E-03
 0.52580006E+02 -0.41079E-03
 0.52630005E+02 -0.48632E-03
 0.52680004E+02 -0.47843E-03
 0.52730003E+02 -0.40653E-03
 0.52780003E+02 -0.32491E-03
 0.52830006E+02 -0.26388E-03
 0.52880005E+02 -0.19564E-03
 0.52930004E+02 -0.96569E-04
 0.52980003E+02 -0.38841E-07
 0.53030003E+02  0.67221E-04
 0.53080006E+02  0.10663E-03
 0.53130005E+02  0.14194E-03
 0.53180004E+02  0.18754E-03
 0.53230003E+02  0.20858E-03
 0.53280003E+02  0.19668E-03
 0.53330006E+02  0.15567E-03
 0.53380005E+02  0.88500E-04
 0.53430004E+02  0.48575E-04
 0.53480003E+02  0.44840E-04
 0.53530003E+02  0.49836E-04
 0.53580006E+02  0.80628E-04
 0.53630005E+02  0.12325E-03
 0.53680004E+02  0.17372E-03
 0.53730003E+02  0.22570E-03
 0.53780003E+02  0.22666E-03
 0.53830006E+02  0.16757E-03
 0.53880005E+02  0.66378E-04
 0.53930004E+02 -0.43041E-04
 0.53980003E+02 -0.12933E-03
 0.54030003E+02 -0.18745E-03
 0.54080006E+02 -0.22734E-03
 0.54130005E+02 -0.25476E-03
 0.54180004E+02 -0.24007E-03
 0.54230003E+02 -0.17684E-03
 0.54280003E+02 -0.87405E-04
 0.54330006E+02 -0.94134E-06
 0.54380005E+02  0.42873E-04
 0.54430004E+02  0.53373E-04
 0.54480003E+02  0.46825E-04
 0.54530003E+02  0.18525E-04
 0.54580006E+02 -0.11890E-05
 0.54630005E+02 -0.38263E-05
 0.54680004E+02 -0.85683E-05
 0.54730003E+02 -0.86382E-05
 0.54780003E+02 -0.24886E-05
 0.54830006E+02  0.53204E-05
 0.54880005E+02  0.35666E-04
 0.54930004E+02  0.87339E-04
 0.54980003E+02  0.10158E-03
 0.55030003E+02  0.73820E-04
 0.55080006E+02  0.33450E-04
 0.55130005E+02 -0.32997E-04
 0.55180004E+02 -0.89484E-04
 0.55230003E+02 -0.10735E-03
 0.55280003E+02 -0.10121E-03
 0.55330006E+02 -0.61644E-04
 0.55380005E+02 -0.34350E-04
 0.55430004E+02 -0.76327E-04
 0.55480003E+02 -0.13776E-03
 0.55530003E+02 -0.16395E-03
 0.55580006E+02 -0.16687E-03
 0.55630005E+02 -0.15706E-03
 0.55680004E+02 -0.11118E-03
 0.55730003E+02 -0.10827E-04
 0.55780003E+02  0.12027E-03
 0.55830006E+02  0.24155E-03
 0.55880005E+02  0.32766E-03
 0.55930004E+02  0.36796E-03
 0.55980003E+02  0.34599E-03
 0.56030003E+02  0.27799E-03
 0.56080006E+02  0.21256E-03
 0.56130005E+02  0.16021E-03
 0.56180004E+02  0.11085E-03
 0.56230003E+02  0.69156E-04
 0.56280003E+02  0.35836E-04
 0.56330006E+02 -0.31984E-05
 0.56380005E+02 -0.52908E-04
 0.56430004E+02 -0.12332E-03
 0.56480003E+02 -0.19317E-03
 0.56530003E+02 -0.22366E-03
 0.56580006E+02 -0.23983E-03
 0.56630005E+02 -0.23964E-03
 0.56680004E+02 -0.21173E-03
 0.56730003E+02 -0.17887E-03
 0.56780003E+02 -0.14116E-03
 0.56830006E+02 -0.10472E-03
 0.56880005E+02 -0.82986E-04
 0.56930004E+02 -0.70890E-04
 0.56980003E+02 -0.37081E-04
 0.57030003E+02  0.20695E-04
 0.57080006E+02  0.78286E-04
 0.57130005E+02  0.12343E-03
 0.57180004E+02  0.15131E-03
 0.57230003E+02  0.16427E-03
 0.57280003E+02  0.13336E-03
 0.57330006E+02  0.53602E-04
 0.57380005E+02 -0.31896E-04
 0.57430004E+02 -0.78751E-04
 0.57480003E+02 -0.66389E-04
 0.57530003E+02 -0.27608E-04
 0.57580006E+02  0.50200E-05
 0.57630005E+02  0.30165E-04
 0.57680004E+02  0.66452E-04
 0.57730003E+02  0.10703E-03
 0.57780003E+02  0.10952E-03
 0.57830006E+02  0.89712E-04
 0.57880005E+02  0.73332E-04
 0.57930004E+02  0.39574E-04
 0.57980003E+02  0.88213E-05
 0.58030003E+02  0.38441E-05
 0.58080006E+02  0.80599E-07
 0.58130005E+02 -0.17269E-04
 0.58180004E+02 -0.47636E-04
 0.58230003E+02 -0.64888E-04
 0.58280003E+02 -0.45122E-04
 0.58330006E+02 -0.59888E-05
 0.58380005E+02  0.35463E-04
 0.58430004E+02  0.74753E-04
 0.58480003E+02  0.90681E-04
 0.58530003E+02  0.60841E-04
 0.58580006E+02 -0.10313E-04
 0.58630005E+02 -0.97154E-04
 0.58680004E+02 -0.16865E-03
 0.58730003E+02 -0.21698E-03
 0.58780003E+02 -0.23298E-03
 0.58830006E+02 -0.18602E-03
 0.58880005E+02 -0.88304E-04
 0.58930004E+02  0.18648E-04
 0.58980003E+02  0.12609E-03
 0.59030003E+02  0.22112E-03
 0.59080006E+02  0.27035E-03
 0.59130005E+02  0.26814E-03
 0.59180004E+02  0.23590E-03
 0.59230003E+02  0.18593E-03
 0.59280003E+02  0.11182E-03
 0.59330006E+02  0.18473E-04
 0.59380005E+02 -0.68161E-04
 0.59430004E+02 -0.12847E-03
 0.59480003E+02 -0.15737E-03
 0.59530003E+02 -0.16199E-03
 0.59580006E+02 -0.16442E-03
 0.59630005E+02 -0.18002E-03
 0.59680004E+02 -0.20538E-03
 0.59730003E+02 -0.21887E-03
 0.59780003E+02 -0.19279E-03
 0.59830006E+02 -0.14011E-03
 0.59880005E+02 -0.96731E-04
 0.59930004E+02 -0.66458E-04
 0.59980003E+02 -0.38652E-04
 0.60030003E+02 -0.17412E-04
 0.60080006E+02  0.42178E-05
 0.60130005E+02  0.44615E-04
 0.60180004E+02  0.10282E-03
 0.60230003E+02  0.15525E-03
 0.60280003E+02  0.18332E-03
 0.60330006E+02  0.19601E-03
 0.60380005E+02  0.18351E-03
 0.60430004E+02  0.11793E-03
 0.60480003E+02  0.29637E-04
 0.60530003E+02 -0.28677E-04
 0.60580006E+02 -0.54285E-04
 0.60630005E+02 -0.66244E-04
 0.60680004E+02 -0.68228E-04
 0.60730003E+02 -0.49371E-04
 0.60780003E+02 -0.16968E-05
 0.60830006E+02  0.70090E-04
 0.60880005E+02  0.14881E-03
 0.60930004E+02  0.20798E-03
 0.60980003E+02  0.22993E-03
 0.61030003E+02  0.21343E-03
 0.61080006E+02  0.15866E-03
 0.61130005E+02  0.66812E-04
 0.61180004E+02 -0.39962E-04
 0.61230003E+02 -0.12852E-03
 0.61280003E+02 -0.17563E-03
 0.61330006E+02 -0.17188E-03
 0.61380005E+02 -0.12721E-03
 0.61430004E+02 -0.52886E-04
 0.61480003E+02  0.29165E-04
 0.61530003E+02  0.91608E-04
 0.61580006E+02  0.12885E-03
 0.61630005E+02  0.11630E-03
 0.61680004E+02  0.38533E-04
 0.61730003E+02 -0.63927E-04
 0.61780003E+02 -0.15001E-03
 0.61830006E+02 -0.19466E-03
 0.61880005E+02 -0.19354E-03
 0.61930004E+02 -0.17380E-03
 0.61980003E+02 -0.15054E-03
 0.62030003E+02 -0.13809E-03
 0.62080006E+02 -0.13953E-03
 0.62130005E+02 -0.13307E-03
 0.62180004E+02 -0.11133E-03
 0.62230003E+02 -0.70221E-04
 0.62280003E+02 -0.49563E-05
 0.62330006E+02  0.76708E-04
 0.62380005E+02  0.15533E-03
 0.62430004E+02  0.22280E-03
 0.62480003E+02  0.27586E-03
 0.62530003E+02  0.30482E-03
 0.62580006E+02  0.31026E-03
 0.62630005E+02  0.28250E-03
 0.62680004E+02  0.22843E-03
 0.62730003E+02  0.18599E-03
 0.62780003E+02  0.15154E-03
 0.62830006E+02  0.10733E-03
 0.62880005E+02  0.54481E-04
 0.62930004E+02 -0.12786E-04
 0.62980003E+02 -0.81413E-04
 0.63030003E+02 -0.14851E-03
 0.63080006E+02 -0.23111E-03
 0.63130005E+02 -0.31849E-03
 0.63180004E+02 -0.37608E-03
 0.63230003E+02 -0.38846E-03
 0.63280003E+02 -0.35925E-03
 0.63330006E+02 -0.29165E-03
 0.63380005E+02 -0.20060E-03
 0.63430004E+02 -0.10115E-03
 0.63480003E+02 -0.12542E-04
 0.63530003E+02  0.51032E-04
 0.63580006E+02  0.98325E-04
 0.63630005E+02  0.14087E-03
 0.63680004E+02  0.18011E-03
 0.63730003E+02  0.20249E-03
 0.63780003E+02  0.20038E-03
 0.63830006E+02  0.17040E-03
 0.63880005E+02  0.11174E-03
 0.63930004E+02  0.55988E-04
 0.63980003E+02  0.26580E-04
 0.64030006E+02  0.10893E-04
 0.64080002E+02 -0.59818E-06
 0.64130005E+02 -0.19724E-04
 0.64180008E+02 -0.57898E-04
 0.64230003E+02 -0.10072E-03
 0.64280006E+02 -0.13835E-03
 0.64330002E+02 -0.16306E-03
 0.64380005E+02 -0.14695E-03
 0.64430008E+02 -0.87025E-04
 0.64480003E+02 -0.89300E-05
 0.64530006E+02  0.66803E-04
 0.64580002E+02  0.11126E-03
 0.64630005E+02  0.10667E-03
 0.64680008E+02  0.76679E-04
 0.64730003E+02  0.48575E-04
 0.64780006E+02  0.31916E-04
 0.64830002E+02  0.24461E-04
 0.64880005E+02  0.17270E-04
 0.64930008E+02  0.11086E-04
 0.64980003E+02  0.83345E-05
 0.65030006E+02  0.14445E-04
 0.65080002E+02  0.36122E-04
 0.65130005E+02  0.58612E-04
 0.65180008E+02  0.70699E-04
 0.65230003E+02  0.85351E-04
 0.65280006E+02  0.10377E-03
 0.65330002E+02  0.11628E-03
 0.65380005E+02  0.12090E-03
 0.65430008E+02  0.11237E-03
 0.65480003E+02  0.89330E-04
 0.65530006E+02  0.53839E-04
 0.65580002E+02  0.55061E-05
 0.65630005E+02 -0.47675E-04
 0.65680008E+02 -0.10232E-03
 0.65730003E+02 -0.16078E-03
 0.65780006E+02 -0.21524E-03
 0.65830002E+02 -0.25156E-03
 0.65880005E+02 -0.24396E-03
 0.65930008E+02 -0.19858E-03
 0.65980003E+02 -0.14517E-03
 0.66030006E+02 -0.91956E-04
 0.66080002E+02 -0.43879E-04
 0.66130005E+02  0.62452E-05
 0.66180008E+02  0.55735E-04
 0.66230003E+02  0.95065E-04
 0.66280006E+02  0.12408E-03
 0.66330002E+02  0.13852E-03
 0.66380005E+02  0.13974E-03
 0.66430008E+02  0.12912E-03
 0.66480003E+02  0.10754E-03
 0.66530006E+02  0.84205E-04
 0.66580002E+02  0.67350E-04
 0.66630005E+02  0.56600E-04
 0.66680008E+02  0.46387E-04
 0.66730003E+02  0.31955E-04
 0.66780006E+02  0.25785E-04
 0.66830002E+02  0.30328E-04
 0.66880005E+02  0.33508E-04
 0.66930008E+02  0.31845E-04
 0.66980003E+02  0.15684E-04
 0.67030006E+02 -0.17361E-04
 0.67080002E+02 -0.61291E-04
 0.67130005E+02 -0.10779E-03
 0.67180008E+02 -0.15088E-03
 0.67230003E+02 -0.18292E-03
 0.67280006E+02 -0.18983E-03
 0.67330002E+02 -0.16899E-03
 0.67380005E+02 -0.12195E-03
 0.67430008E+02 -0.61503E-04
 0.67480003E+02 -0.81857E-05
 0.67530006E+02  0.31844E-04
 0.67580002E+02  0.62958E-04
 0.67630005E+02  0.88279E-04
 0.67680008E+02  0.10144E-03
 0.67730003E+02  0.98143E-04
 0.67780006E+02  0.77969E-04
 0.67830002E+02  0.42102E-04
 0.67880005E+02  0.56187E-05
 0.67930008E+02 -0.18280E-04
 0.67980003E+02 -0.25236E-04
 0.68030006E+02 -0.15116E-04
 0.68080002E+02  0.64580E-06
 0.68130005E+02  0.89406E-05
 0.68180008E+02  0.13118E-04
 0.68230003E+02  0.37196E-04
 0.68280006E+02  0.77175E-04
 0.68330002E+02  0.98191E-04
 0.68380005E+02  0.10135E-03
 0.68430008E+02  0.93682E-04
 0.68480003E+02  0.61147E-04
 0.68530006E+02  0.19825E-04
 0.68580002E+02 -0.11191E-04
 0.68630005E+02 -0.31390E-04
 0.68680008E+02 -0.35145E-04
 0.68730003E+02 -0.32497E-04
 0.68780006E+02 -0.28340E-04
 0.68830002E+02 -0.14935E-04
 0.68880005E+02 -0.52680E-05
 0.68930008E+02 -0.86456E-05
 0.68980003E+02 -0.13547E-04
 0.69030006E+02 -0.20427E-04
 0.69080002E+02 -0.40545E-04
 0.69130005E+02 -0.68072E-04
 0.69180008E+02 -0.83768E-04
 0.69230003E+02 -0.79882E-04
 0.69280006E+02 -0.74943E-04
 0.69330002E+02 -0.82450E-04
 0.69380005E+02 -0.94277E-04
 0.69430008E+02 -0.10432E-03
 0.69480003E+02 -0.10460E-03
 0.69530006E+02 -0.87735E-04
 0.69580002E+02 -0.55702E-04
 0.69630005E+02 -0.82075E-05
 0.69680008E+02  0.46584E-04
 0.69730003E+02  0.98117E-04
 0.69780006E+02  0.13767E-03
 0.69830002E+02  0.15155E-03
 0.69880005E+02  0.14067E-03
 0.69930008E+02  0.11417E-03
 0.69980003E+02  0.73129E-04
 0.70030006E+02  0.18660E-04
 0.70080002E+02 -0.35560E-04
 0.70130005E+02 -0.71235E-04
 0.70180008E+02 -0.84804E-04
 0.70230003E+02 -0.86193E-04
 0.70280006E+02 -0.70081E-04
 0.70330002E+02 -0.27204E-04
 0.70380005E+02  0.26675E-04
 0.70430008E+02  0.68091E-04
 0.70480003E+02  0.91606E-04
 0.70530006E+02  0.11744E-03
 0.70580002E+02  0.14919E-03
 0.70630005E+02  0.17542E-03
 0.70680008E+02  0.19549E-03
 0.70730003E+02  0.20292E-03
 0.70780006E+02  0.19154E-03
 0.70830002E+02  0.15171E-03
 0.70880005E+02  0.88126E-04
 0.70930008E+02  0.21605E-04
 0.70980003E+02 -0.38879E-04
 0.71030006E+02 -0.96161E-04
 0.71080002E+02 -0.15167E-03
 0.71130005E+02 -0.19676E-03
 0.71180008E+02 -0.22097E-03
 0.71230003E+02 -0.20855E-03
 0.71280006E+02 -0.16367E-03
 0.71330002E+02 -0.11383E-03
 0.71380005E+02 -0.80880E-04
 0.71430008E+02 -0.77240E-04
 0.71480003E+02 -0.91660E-04
 0.71530006E+02 -0.11053E-03
 0.71580002E+02 -0.12893E-03
 0.71630005E+02 -0.12870E-03
 0.71680008E+02 -0.10379E-03
 0.71730003E+02 -0.62300E-04
 0.71780006E+02 -0.75115E-05
 0.71830002E+02  0.52117E-04
 0.71880005E+02  0.10988E-03
 0.71930008E+02  0.15320E-03
 0.71980003E+02  0.16895E-03
 0.72030006E+02  0.16518E-03
 0.72080002E+02  0.15148E-03
 0.72130005E+02  0.12733E-03
 0.72180008E+02  0.88580E-04
 0.72230003E+02  0.40352E-04
 0.72280006E+02  0.22947E-05
 0.72330002E+02 -0.14492E-04
 0.72380005E+02 -0.18862E-04
 0.72430008E+02 -0.15350E-04
 0.72480003E+02  0.11308E-06
 0.72530006E+02  0.21156E-04
 0.72580002E+02  0.30214E-04
 0.72630005E+02  0.15476E-04
 0.72680008E+02 -0.11754E-04
 0.72730003E+02 -0.42706E-04
 0.72780006E+02 -0.73537E-04
 0.72830002E+02 -0.97627E-04
 0.72880005E+02 -0.11598E-03
 0.72930008E+02 -0.12010E-03
 0.72980003E+02 -0.10938E-03
 0.73030006E+02 -0.92067E-04
 0.73080002E+02 -0.71840E-04
 0.73130005E+02 -0.54850E-04
 0.73180008E+02 -0.47168E-04
 0.73230003E+02 -0.48641E-04
 0.73280006E+02 -0.38285E-04
 0.73330002E+02 -0.66112E-06
 0.73380005E+02  0.47710E-04
 0.73430008E+02  0.79512E-04
 0.73480003E+02  0.86044E-04
 0.73530006E+02  0.80077E-04
 0.73580002E+02  0.71429E-04
 0.73630005E+02  0.64817E-04
 0.73680008E+02  0.57510E-04
 0.73730003E+02  0.46732E-04
 0.73780006E+02  0.35787E-04
 0.73830002E+02  0.14964E-04
 0.73880005E+02 -0.98770E-05
 0.73930008E+02 -0.17416E-04
 0.73980003E+02 -0.62035E-05
 0.74030006E+02  0.14801E-04
 0.74080002E+02  0.39086E-04
 0.74130005E+02  0.68505E-04
 0.74180008E+02  0.92890E-04
 0.74230003E+02  0.94646E-04
 0.74280006E+02  0.76667E-04
 0.74330002E+02  0.51521E-04
 0.74380005E+02  0.27536E-04
 0.74430008E+02 -0.40537E-05
 0.74480003E+02 -0.46560E-04
 0.74530006E+02 -0.87124E-04
 0.74580002E+02 -0.11058E-03
 0.74630005E+02 -0.10666E-03
 0.74680008E+02 -0.90656E-04
 0.74730003E+02 -0.77951E-04
 0.74780006E+02 -0.72217E-04
 0.74830002E+02 -0.64466E-04
 0.74880005E+02 -0.31717E-04
 0.74930008E+02  0.20097E-04
 0.74980003E+02  0.64334E-04
 0.75030006E+02  0.82886E-04
 0.75080002E+02  0.72399E-04
 0.75130005E+02  0.53722E-04
 0.75180008E+02  0.49439E-04
 0.75230003E+02  0.60161E-04
 0.75280006E+02  0.74857E-04
 0.75330002E+02  0.88294E-04
 0.75380005E+02  0.10586E-03
 0.75430008E+02  0.12693E-03
 0.75480003E+02  0.13954E-03
 0.75530006E+02  0.12982E-03
 0.75580002E+02  0.97084E-04
 0.75630005E+02  0.52705E-04
 0.75680008E+02 -0.66890E-05
 0.75730003E+02 -0.79005E-04
 0.75780006E+02 -0.15014E-03
 0.75830002E+02 -0.20916E-03
 0.75880005E+02 -0.24467E-03
 0.75930008E+02 -0.25672E-03
 0.75980003E+02 -0.24941E-03
 0.76030006E+02 -0.22487E-03
 0.76080002E+02 -0.18236E-03
 0.76130005E+02 -0.12526E-03
 0.76180008E+02 -0.58449E-04
 0.76230003E+02  0.91354E-05
 0.76280006E+02  0.52273E-04
 0.76330002E+02  0.66135E-04
 0.76380005E+02  0.61344E-04
 0.76430008E+02  0.53805E-04
 0.76480003E+02  0.57618E-04
 0.76530006E+02  0.65962E-04
 0.76580002E+02  0.79609E-04
 0.76630005E+02  0.95936E-04
 0.76680008E+02  0.11462E-03
 0.76730003E+02  0.13783E-03
 0.76780006E+02  0.14946E-03
 0.76830002E+02  0.14254E-03
 0.76880005E+02  0.12043E-03
 0.76930008E+02  0.97157E-04
 0.76980003E+02  0.83901E-04
 0.77030006E+02  0.75235E-04
 0.77080002E+02  0.66254E-04
 0.77130005E+02  0.51182E-04
 0.77180008E+02  0.24226E-04
 0.77230003E+02 -0.94273E-05
 0.77280006E+02 -0.37553E-04
 0.77330002E+02 -0.62889E-04
 0.77380005E+02 -0.87617E-04
 0.77430008E+02 -0.10336E-03
 0.77480003E+02 -0.10813E-03
 0.77530006E+02 -0.10015E-03
 0.77580002E+02 -0.86161E-04
 0.77630005E+02 -0.66933E-04
 0.77680008E+02 -0.33518E-04
 0.77730003E+02  0.24296E-05
 0.77780006E+02  0.24426E-04
 0.77830002E+02  0.28973E-04
 0.77880005E+02  0.19444E-04
 0.77930008E+02  0.37061E-05
 0.77980003E+02 -0.19577E-04
 0.78030006E+02 -0.53399E-04
 0.78080002E+02 -0.85511E-04
 0.78130005E+02 -0.10346E-03
 0.78180008E+02 -0.10376E-03
 0.78230003E+02 -0.87770E-04
 0.78280006E+02 -0.59832E-04
 0.78330002E+02 -0.30177E-04
 0.78380005E+02 -0.70996E-05
 0.78430008E+02  0.44838E-05
 0.78480003E+02  0.55392E-05
 0.78530006E+02  0.11725E-05
 0.78580002E+02 -0.38468E-05
 0.78630005E+02  0.13519E-05
 0.78680008E+02  0.18607E-04
 0.78730003E+02  0.44674E-04
 0.78780006E+02  0.72093E-04
 0.78830002E+02  0.87381E-04
 0.78880005E+02  0.83337E-04
 0.78930008E+02  0.65042E-04
 0.78980003E+02  0.47802E-04
 0.79030006E+02  0.36661E-04
 0.79080002E+02  0.24471E-04
 0.79130005E+02  0.78403E-05
 0.79180008E+02 -0.55260E-05
 0.79230003E+02 -0.14041E-04
 0.79280006E+02 -0.27443E-04
 0.79330002E+02 -0.48244E-04
 0.79380005E+02 -0.65867E-04
 0.79430008E+02 -0.61725E-04
 0.79480003E+02 -0.34508E-04
 0.79530006E+02 -0.12197E-05
 0.79580002E+02  0.28677E-04
 0.79630005E+02  0.47653E-04
 0.79680008E+02  0.54422E-04
 0.79730003E+02  0.60425E-04
 0.79780006E+02  0.64903E-04
 0.79830002E+02  0.63108E-04
 0.79880005E+02  0.57150E-04
 0.79930008E+02  0.46612E-04
 0.79980003E+02  0.38332E-04
 0.80030006E+02  0.32673E-04
 0.80080002E+02  0.22195E-04
 0.80130005E+02  0.83416E-05
 0.80180008E+02 -0.13221E-04
 0.80230003E+02 -0.49446E-04
 0.80280006E+02 -0.87314E-04
 0.80330002E+02 -0.10982E-03
 0.80380005E+02 -0.11260E-03
 0.80430008E+02 -0.99397E-04
 0.80480003E+02 -0.82245E-04
 0.80530006E+02 -0.62146E-04
 0.80580002E+02 -0.35132E-04
 0.80630005E+02 -0.12295E-04
 0.80680008E+02 -0.28162E-05
 0.80730003E+02  0.42193E-05
 0.80780006E+02  0.18263E-04
 0.80830002E+02  0.31102E-04
 0.80880005E+02  0.38298E-04
 0.80930008E+02  0.42527E-04
 0.80980003E+02  0.46831E-04
 0.81030006E+02  0.52083E-04
 0.81080002E+02  0.55374E-04
 0.81130005E+02  0.57040E-04
 0.81180008E+02  0.64267E-04
 0.81230003E+02  0.77237E-04
 0.81280006E+02  0.88005E-04
 0.81330002E+02  0.88476E-04
 0.81380005E+02  0.71745E-04
 0.81430008E+02  0.40704E-04
 0.81480003E+02  0.65318E-05
 0.81530006E+02 -0.18621E-04
 0.81580002E+02 -0.29761E-04
 0.81630005E+02 -0.27763E-04
 0.81680008E+02 -0.18580E-04
 0.81730003E+02 -0.13237E-04
 0.81780006E+02 -0.15146E-04
 0.81830002E+02 -0.15689E-04
 0.81880005E+02 -0.17361E-04
 0.81930008E+02 -0.27558E-04
 0.81980003E+02 -0.36816E-04
 0.82030006E+02 -0.46295E-04
 0.82080002E+02 -0.54496E-04
 0.82130005E+02 -0.52938E-04
 0.82180008E+02 -0.44626E-04
 0.82230003E+02 -0.31249E-04
 0.82280006E+02 -0.22001E-04
 0.82330002E+02 -0.15581E-04
 0.82380005E+02 -0.72023E-05
 0.82430008E+02  0.23677E-05
 0.82480003E+02  0.22434E-04
 0.82530006E+02  0.41965E-04
 0.82580002E+02  0.52224E-04
 0.82630005E+02  0.59699E-04
 0.82680008E+02  0.62618E-04
 0.82730003E+02  0.62706E-04
 0.82780006E+02  0.53392E-04
 0.82830002E+02  0.37622E-04
 0.82880005E+02  0.22561E-04
 0.82930008E+02 -0.81390E-07
 0.82980003E+02 -0.24999E-04
 0.83030006E+02 -0.58228E-04
 0.83080002E+02 -0.95009E-04
 0.83130005E+02 -0.11235E-03
 0.83180008E+02 -0.11456E-03
 0.83230003E+02 -0.10174E-03
 0.83280006E+02 -0.84753E-04
 0.83330002E+02 -0.80105E-04
 0.83380005E+02 -0.79544E-04
 0.83430008E+02 -0.78930E-04
 0.83480003E+02 -0.72718E-04
 0.83530006E+02 -0.56475E-04
 0.83580002E+02 -0.32230E-04
 0.83630005E+02 -0.53727E-05
 0.83680008E+02  0.19509E-04
 0.83730003E+02  0.46160E-04
 0.83780006E+02  0.69997E-04
 0.83830002E+02  0.85115E-04
 0.83880005E+02  0.91168E-04
 0.83930008E+02  0.81682E-04
 0.83980003E+02  0.58140E-04
 0.84030006E+02  0.32730E-04
 0.84080002E+02  0.77885E-05
 0.84130005E+02 -0.15033E-04
 0.84180008E+02 -0.26857E-04
 0.84230003E+02 -0.29079E-04
 0.84280006E+02 -0.23662E-04
 0.84330002E+02 -0.80486E-05
 0.84380005E+02  0.15180E-04
 0.84430008E+02  0.44853E-04
 0.84480003E+02  0.72029E-04
 0.84530006E+02  0.91607E-04
 0.84580002E+02  0.99367E-04
 0.84630005E+02  0.91067E-04
 0.84680008E+02  0.74428E-04
 0.84730003E+02  0.48090E-04
 0.84780006E+02  0.16266E-04
 0.84830002E+02 -0.13645E-04
 0.84880005E+02 -0.37323E-04
 0.84930008E+02 -0.50235E-04
 0.84980003E+02 -0.50344E-04
 0.85030006E+02 -0.37447E-04
 0.85080002E+02 -0.26024E-04
 0.85130005E+02 -0.16520E-04
 0.85180008E+02 -0.50843E-05
 0.85230003E+02  0.22466E-06
 0.85280006E+02  0.40601E-05
 0.85330002E+02  0.61564E-05
 0.85380005E+02  0.37237E-05
 0.85430008E+02  0.43984E-05
 0.85480003E+02  0.12359E-04
 0.85530006E+02  0.20040E-04
 0.85580002E+02  0.22488E-04
 0.85630005E+02  0.24352E-04
 0.85680008E+02  0.24329E-04
 0.85730003E+02  0.21099E-04
 0.85780006E+02  0.14131E-04
 0.85830002E+02  0.10123E-04
 0.85880005E+02  0.12350E-04
 0.85930008E+02  0.11109E-04
 0.85980003E+02  0.10793E-04
 0.86030006E+02  0.50170E-05
 0.86080002E+02 -0.13109E-04
 0.86130005E+02 -0.28963E-04
 0.86180008E+02 -0.41806E-04
 0.86230003E+02 -0.52655E-04
 0.86280006E+02 -0.54621E-04
 0.86330002E+02 -0.47880E-04
 0.86380005E+02 -0.35941E-04
 0.86430008E+02 -0.20630E-04
 0.86480003E+02 -0.61966E-05
 0.86530006E+02 -0.16661E-06
 0.86580002E+02 -0.70675E-05
 0.86630005E+02 -0.21910E-04
 0.86680008E+02 -0.34557E-04
 0.86730003E+02 -0.45250E-04
 0.86780006E+02 -0.56238E-04
 0.86830002E+02 -0.64748E-04
 0.86880005E+02 -0.64629E-04
 0.86930008E+02 -0.53780E-04
 0.86980003E+02 -0.34512E-04
 0.87030006E+02 -0.81148E-05
 0.87080002E+02  0.17384E-04
 0.87130005E+02  0.35698E-04
 0.87180008E+02  0.43638E-04
 0.87230003E+02  0.44783E-04
 0.87280006E+02  0.46097E-04
 0.87330002E+02  0.42754E-04
 0.87380005E+02  0.33264E-04
 0.87430008E+02  0.23551E-04
 0.87480003E+02  0.12022E-04
 0.87530006E+02  0.51917E-06
 0.87580002E+02 -0.40894E-05
 0.87630005E+02 -0.28386E-05
 0.87680008E+02 -0.23361E-06
 0.87730003E+02 -0.48330E-06
 0.87780006E+02 -0.26599E-05
 0.87830002E+02  0.25362E-05
 0.87880005E+02  0.17564E-04
 0.87930008E+02  0.35604E-04
 0.87980003E+02  0.58789E-04
 0.88030006E+02  0.82452E-04
 0.88080002E+02  0.93155E-04
 0.88130005E+02  0.89547E-04
 0.88180008E+02  0.72528E-04
 0.88230003E+02  0.52734E-04
 0.88280006E+02  0.40251E-04
 0.88330002E+02  0.28449E-04
 0.88380005E+02  0.21007E-04
 0.88430008E+02  0.19691E-04
 0.88480003E+02  0.15341E-04
 0.88530006E+02  0.66324E-05
 0.88580002E+02 -0.31692E-05
 0.88630005E+02 -0.10335E-04
 0.88680008E+02 -0.21216E-04
 0.88730003E+02 -0.38196E-04
 0.88780006E+02 -0.53784E-04
 0.88830002E+02 -0.64852E-04
 0.88880005E+02 -0.73901E-04
 0.88930008E+02 -0.82959E-04
 0.88980003E+02 -0.82737E-04
 0.89030006E+02 -0.72361E-04
 0.89080002E+02 -0.59592E-04
 0.89130005E+02 -0.49040E-04
 0.89180008E+02 -0.44207E-04
 0.89230003E+02 -0.45001E-04
 0.89280006E+02 -0.51831E-04
 0.89330002E+02 -0.59760E-04
 0.89380005E+02 -0.65903E-04
 0.89430008E+02 -0.69656E-04
 0.89480003E+02 -0.63856E-04
 0.89530006E+02 -0.45973E-04
 0.89580002E+02 -0.19972E-04
 0.89630005E+02  0.31837E-05
 0.89680008E+02  0.16371E-04
 0.89730003E+02  0.21138E-04
 0.89780006E+02  0.19297E-04
 0.89830002E+02  0.15792E-04
 0.89880005E+02  0.11326E-04
 0.89930008E+02  0.53380E-05
 0.89980003E+02  0.58314E-08
 0.90030006E+02 -0.36545E-05
 0.90080002E+02 -0.23059E-05
 0.90130005E+02  0.10328E-04
 0.90180008E+02  0.35052E-04
 0.90230003E+02  0.65812E-04
 0.90280006E+02  0.94130E-04
 0.90330002E+02  0.11794E-03
 0.90380005E+02  0.14046E-03
 0.90430008E+02  0.15646E-03
 0.90480003E+02  0.16298E-03
 0.90530006E+02  0.16097E-03
 0.90580002E+02  0.15182E-03
 0.90630005E+02  0.13327E-03
 0.90680008E+02  0.10309E-03
 0.90730003E+02  0.64798E-04
 0.90780006E+02  0.17810E-04
 0.90830002E+02 -0.35736E-04
 0.90880005E+02 -0.86565E-04
 0.90930008E+02 -0.12398E-03
 0.90980003E+02 -0.14404E-03
 0.91030006E+02 -0.14494E-03
 0.91080002E+02 -0.12902E-03
 0.91130005E+02 -0.10826E-03
 0.91180008E+02 -0.87273E-04
 0.91230003E+02 -0.70641E-04
 0.91280006E+02 -0.65104E-04
 0.91330002E+02 -0.70144E-04
 0.91380005E+02 -0.84438E-04
 0.91430008E+02 -0.99875E-04
 0.91480003E+02 -0.10985E-03
 0.91530006E+02 -0.11100E-03
 0.91580002E+02 -0.10012E-03
 0.91630005E+02 -0.79587E-04
 0.91680008E+02 -0.50500E-04
 0.91730003E+02 -0.14525E-04
 0.91780006E+02  0.26755E-04
 0.91830002E+02  0.72998E-04
 0.91880005E+02  0.11677E-03
 0.91930008E+02  0.15235E-03
 0.91980003E+02  0.17701E-03
 0.92030006E+02  0.18020E-03
 0.92080002E+02  0.16503E-03
 0.92130005E+02  0.14142E-03
 0.92180008E+02  0.11012E-03
 0.92230003E+02  0.74259E-04
 0.92280006E+02  0.35195E-04
 0.92330002E+02 -0.50226E-05
 0.92380005E+02 -0.40210E-04
 0.92430008E+02 -0.64207E-04
 0.92480003E+02 -0.77619E-04
 0.92530006E+02 -0.80749E-04
 0.92580002E+02 -0.72787E-04
 0.92630005E+02 -0.58547E-04
 0.92680008E+02 -0.37020E-04
 0.92730003E+02 -0.13803E-04
 0.92780006E+02  0.34899E-05
 0.92830002E+02  0.21862E-04
 0.92880005E+02  0.43111E-04
 0.92930008E+02  0.61028E-04
 0.92980003E+02  0.70168E-04
 0.93030006E+02  0.66590E-04
 0.93080002E+02  0.50777E-04
 0.93130005E+02  0.31076E-04
 0.93180008E+02  0.17156E-04
 0.93230003E+02  0.55665E-05
 0.93280006E+02 -0.97905E-05
 0.93330002E+02 -0.29286E-04
 0.93380005E+02 -0.51319E-04
 0.93430008E+02 -0.68312E-04
 0.93480003E+02 -0.75421E-04
 0.93530006E+02 -0.75481E-04
 0.93580002E+02 -0.71518E-04
 0.93630005E+02 -0.62706E-04
 0.93680008E+02 -0.47558E-04
 0.93730003E+02 -0.30562E-04
 0.93780006E+02 -0.16688E-04
 0.93830002E+02 -0.16233E-05
 0.93880005E+02  0.15699E-04
 0.93930008E+02  0.30976E-04
 0.93980003E+02  0.40011E-04
 0.94030006E+02  0.37433E-04
 0.94080002E+02  0.25866E-04
 0.94130005E+02  0.84388E-05
 0.94180008E+02 -0.14370E-04
 0.94230003E+02 -0.38347E-04
 0.94280006E+02 -0.53499E-04
 0.94330002E+02 -0.55510E-04
 0.94380005E+02 -0.47816E-04
 0.94430008E+02 -0.29357E-04
 0.94480003E+02 -0.59665E-05
 0.94530006E+02  0.17045E-04
 0.94580002E+02  0.40645E-04
 0.94630005E+02  0.56213E-04
 0.94680008E+02  0.59765E-04
 0.94730003E+02  0.58466E-04
 0.94780006E+02  0.53923E-04
 0.94830002E+02  0.46637E-04
 0.94880005E+02  0.36702E-04
 0.94930008E+02  0.20480E-04
 0.94980003E+02  0.10645E-05
 0.95030006E+02 -0.18716E-04
 0.95080002E+02 -0.39613E-04
 0.95130005E+02 -0.54750E-04
 0.95180008E+02 -0.59739E-04
 0.95230003E+02 -0.54916E-04
 0.95280006E+02 -0.40456E-04
 0.95330002E+02 -0.22671E-04
 0.95380005E+02 -0.31303E-05
 0.95430008E+02  0.18270E-04
 0.95480003E+02  0.31735E-04
 0.95530006E+02  0.34128E-04
 0.95580002E+02  0.28426E-04
 0.95630005E+02  0.18660E-04
 0.95680008E+02  0.13434E-04
 0.95730003E+02  0.10147E-04
 0.95780006E+02  0.96060E-05
 0.95830002E+02  0.14556E-04
 0.95880005E+02  0.20034E-04
 0.95930008E+02  0.29577E-04
 0.95980003E+02  0.41451E-04
 0.96030006E+02  0.47943E-04
 0.96080002E+02  0.44667E-04
 0.96130005E+02  0.32343E-04
 0.96180008E+02  0.11917E-04
 0.96230003E+02 -0.11297E-04
 0.96280006E+02 -0.26455E-04
 0.96330002E+02 -0.32363E-04
 0.96380005E+02 -0.31439E-04
 0.96430008E+02 -0.28131E-04
 0.96480003E+02 -0.26396E-04
 0.96530006E+02 -0.27835E-04
 0.96580002E+02 -0.33283E-04
 0.96630005E+02 -0.44262E-04
 0.96680008E+02 -0.62754E-04
 0.96730003E+02 -0.81843E-04
 0.96780006E+02 -0.95015E-04
 0.96830002E+02 -0.98236E-04
 0.96880005E+02 -0.92826E-04
 0.96930008E+02 -0.82192E-04
 0.96980003E+02 -0.62744E-04
 0.97030006E+02 -0.38127E-04
 0.97080002E+02 -0.10844E-04
 0.97130005E+02  0.19655E-04
 0.97180008E+02  0.47648E-04
 0.97230003E+02  0.67581E-04
 0.97280006E+02  0.74773E-04
 0.97330002E+02  0.68411E-04
 0.97380005E+02  0.56177E-04
 0.97430008E+02  0.48006E-04
 0.97480003E+02  0.44145E-04
 0.97530006E+02  0.41950E-04
 0.97580002E+02  0.42588E-04
 0.97630005E+02  0.47132E-04
 0.97680008E+02  0.57034E-04
 0.97730003E+02  0.69653E-04
 0.97780006E+02  0.80137E-04
 0.97830002E+02  0.83138E-04
 0.97880005E+02  0.76046E-04
 0.97930008E+02  0.59501E-04
 0.97980003E+02  0.31727E-04
 0.98030006E+02 -0.18296E-05
 0.98080002E+02 -0.31932E-04
 0.98130005E+02 -0.53760E-04
 0.98180008E+02 -0.63265E-04
 0.98230003E+02 -0.62336E-04
 0.98280006E+02 -0.58681E-04
 0.98330002E+02 -0.56086E-04
 0.98380005E+02 -0.52199E-04
 0.98430008E+02 -0.43189E-04
 0.98480003E+02 -0.28535E-04
 0.98530006E+02 -0.10439E-04
 0.98580002E+02  0.49926E-05
 0.98630005E+02  0.14426E-04
 0.98680008E+02  0.23608E-04
 0.98730003E+02  0.32136E-04
 0.98780006E+02  0.35105E-04
 0.98830002E+02  0.31784E-04
 0.98880005E+02  0.25097E-04
 0.98930008E+02  0.18526E-04
 0.98980003E+02  0.10568E-04
 0.99030006E+02  0.47988E-06
 0.99080002E+02 -0.10052E-04
 0.99130005E+02 -0.19817E-04
 0.99180008E+02 -0.24100E-04
 0.99230003E+02 -0.22300E-04
 0.99280006E+02 -0.20293E-04
 0.99330002E+02 -0.18778E-04
 0.99380005E+02 -0.18431E-04
 0.99430008E+02 -0.16618E-04
 0.99480003E+02 -0.94461E-05
 0.99530006E+02  0.11754E-05
 0.99580002E+02  0.14503E-04
 0.99630005E+02  0.27524E-04
 0.99680008E+02  0.37334E-04
 0.99730003E+02  0.41954E-04
 0.99780006E+02  0.39238E-04
 0.99830002E+02  0.29730E-04
 0.99880005E+02  0.15174E-04
 0.99930008E+02  0.20526E-05
 0.99980003E+02 -0.30209E-05
 0.10003001E+03 -0.19509E-05
 0.10008000E+03 -0.30747E-05
 0.10013000E+03 -0.11810E-04
 0.10018001E+03 -0.25769E-04
 0.10023000E+03 -0.39907E-04
 0.10028001E+03 -0.50756E-04
 0.10033000E+03 -0.58715E-04
 0.10038000E+03 -0.64874E-04
 0.10043001E+03 -0.69112E-04
 0.10048000E+03 -0.69619E-04
 0.10053001E+03 -0.62538E-04
 0.10058000E+03 -0.46622E-04
 0.10063000E+03 -0.24127E-04
 0.10068001E+03  0.20786E-05
 0.10073000E+03  0.29984E-04
 0.10078001E+03  0.54955E-04
 0.10083000E+03  0.72918E-04
 0.10088000E+03  0.82792E-04
 0.10093001E+03  0.83560E-04
 0.10098000E+03  0.73073E-04
 0.10103001E+03  0.51939E-04
 0.10108000E+03  0.28378E-04
 0.10113000E+03  0.10424E-04
 0.10118001E+03  0.49035E-06
 0.10123000E+03 -0.50310E-05
 0.10128001E+03 -0.68201E-05
 0.10133000E+03 -0.46005E-05
 0.10138000E+03 -0.39555E-05
 0.10143001E+03 -0.48493E-05
 0.10148000E+03 -0.59918E-05
 0.10153001E+03 -0.77696E-05
 0.10158000E+03 -0.10917E-04
 0.10163000E+03 -0.17343E-04
 0.10168001E+03 -0.25506E-04
 0.10173000E+03 -0.30837E-04
 0.10178001E+03 -0.30036E-04
 0.10183000E+03 -0.24392E-04
 0.10188000E+03 -0.15652E-04
 0.10193001E+03 -0.71362E-05
 0.10198000E+03 -0.17023E-05
 0.10203001E+03  0.36717E-06
 0.10208000E+03 -0.15335E-05
 0.10213000E+03 -0.73331E-05
 0.10218001E+03 -0.16614E-04
 0.10223000E+03 -0.25724E-04
 0.10228001E+03 -0.28755E-04
 0.10233000E+03 -0.22715E-04
 0.10238000E+03 -0.75715E-05
 0.10243001E+03  0.12165E-04
 0.10248000E+03  0.31762E-04
 0.10253001E+03  0.48853E-04
 0.10258000E+03  0.56644E-04
 0.10263000E+03  0.54957E-04
 0.10268001E+03  0.48191E-04
 0.10273000E+03  0.35302E-04
 0.10278001E+03  0.18945E-04
 0.10283000E+03  0.25939E-05
 0.10288000E+03 -0.10459E-04
 0.10293001E+03 -0.21348E-04
 0.10298000E+03 -0.33966E-04
 0.10303001E+03 -0.46788E-04
 0.10308000E+03 -0.58408E-04
 0.10313000E+03 -0.63419E-04
 0.10318001E+03 -0.60379E-04
 0.10323000E+03 -0.52670E-04
 0.10328001E+03 -0.41952E-04
 0.10333000E+03 -0.28640E-04
 0.10338000E+03 -0.10015E-04
 0.10343001E+03  0.10419E-04
 0.10348000E+03  0.32102E-04
 0.10353001E+03  0.55239E-04
 0.10358000E+03  0.75491E-04
 0.10363000E+03  0.93895E-04
 0.10368001E+03  0.10623E-03
 0.10373000E+03  0.10791E-03
 0.10378001E+03  0.99237E-04
 0.10383000E+03  0.78666E-04
 0.10388000E+03  0.52364E-04
 0.10393001E+03  0.27430E-04
 0.10398000E+03  0.56593E-05
 0.10403001E+03 -0.11887E-04
 0.10408000E+03 -0.27432E-04
 0.10413000E+03 -0.43824E-04
 0.10418001E+03 -0.65532E-04
 0.10423000E+03 -0.90143E-04
 0.10428001E+03 -0.11098E-03
 0.10433000E+03 -0.12457E-03
 0.10438000E+03 -0.12986E-03
 0.10443001E+03 -0.13196E-03
 0.10448000E+03 -0.12809E-03
 0.10453001E+03 -0.11467E-03
 0.10458000E+03 -0.92747E-04
 0.10463000E+03 -0.60950E-04
 0.10468001E+03 -0.22435E-04
 0.10473000E+03  0.17206E-04
 0.10478001E+03  0.50341E-04
 0.10483000E+03  0.73443E-04
 0.10488000E+03  0.88545E-04
 0.10493001E+03  0.97723E-04
 0.10498000E+03  0.10363E-03
 0.10503001E+03  0.10743E-03
 0.10508000E+03  0.10923E-03
 0.10513000E+03  0.10791E-03
 0.10518001E+03  0.10181E-03
 0.10523000E+03  0.91492E-04
 0.10528001E+03  0.77373E-04
 0.10533000E+03  0.59717E-04
 0.10538000E+03  0.39515E-04
 0.10543001E+03  0.18695E-04
 0.10548000E+03  0.19395E-05
 0.10553001E+03 -0.10071E-04
 0.10558000E+03 -0.20764E-04
 0.10563000E+03 -0.30515E-04
 0.10568001E+03 -0.37618E-04
 0.10573000E+03 -0.39858E-04
 0.10578001E+03 -0.39558E-04
 0.10583000E+03 -0.36899E-04
 0.10588000E+03 -0.30097E-04
 0.10593001E+03 -0.22208E-04
 0.10598000E+03 -0.14379E-04
 0.10603001E+03 -0.98446E-05
 0.10608000E+03 -0.10775E-04
 0.10613000E+03 -0.15249E-04
 0.10618001E+03 -0.22324E-04
 0.10623000E+03 -0.31010E-04
 0.10628001E+03 -0.38498E-04
 0.10633000E+03 -0.44221E-04
 0.10638000E+03 -0.46085E-04
 0.10643001E+03 -0.39307E-04
 0.10648000E+03 -0.27674E-04
 0.10653001E+03 -0.16026E-04
 0.10658000E+03 -0.63229E-05
 0.10663000E+03 -0.10464E-06
 0.10668001E+03  0.12748E-05
 0.10673000E+03  0.26492E-05
 0.10678001E+03  0.88225E-05
 0.10683000E+03  0.14834E-04
 0.10688000E+03  0.24528E-04
 0.10693001E+03  0.33421E-04
 0.10698000E+03  0.33997E-04
 0.10703001E+03  0.33437E-04
 0.10708000E+03  0.27957E-04
 0.10713000E+03  0.18949E-04
 0.10718001E+03  0.14917E-04
 0.10723000E+03  0.14091E-04
 0.10728001E+03  0.14007E-04
 0.10733000E+03  0.15851E-04
 0.10738000E+03  0.16728E-04
 0.10743001E+03  0.12906E-04
 0.10748000E+03  0.98696E-05
 0.10753001E+03  0.60979E-05
 0.10758000E+03 -0.12325E-05
 0.10763000E+03 -0.10859E-04
 0.10768001E+03 -0.23672E-04
 0.10773000E+03 -0.34176E-04
 0.10778001E+03 -0.42796E-04
 0.10783000E+03 -0.50587E-04
 0.10788000E+03 -0.51853E-04
 0.10793001E+03 -0.49232E-04
 0.10798000E+03 -0.46015E-04
 0.10803001E+03 -0.40737E-04
 0.10808000E+03 -0.35491E-04
 0.10813000E+03 -0.28609E-04
 0.10818001E+03 -0.18267E-04
 0.10823000E+03 -0.69318E-05
 0.10828001E+03  0.51587E-05
 0.10833000E+03  0.15519E-04
 0.10838000E+03  0.25413E-04
 0.10843001E+03  0.36480E-04
 0.10848000E+03  0.46273E-04
 0.10853001E+03  0.52852E-04
 0.10858000E+03  0.53948E-04
 0.10863000E+03  0.51344E-04
 0.10868001E+03  0.46439E-04
 0.10873000E+03  0.36498E-04
 0.10878001E+03  0.19401E-04
 0.10883000E+03  0.17007E-05
 0.10888000E+03 -0.10493E-04
 0.10893001E+03 -0.15433E-04
 0.10898000E+03 -0.10560E-04
 0.10903001E+03 -0.13253E-06
 0.10908000E+03  0.91632E-05
 0.10913000E+03  0.13707E-04
 0.10918001E+03  0.13566E-04
 0.10923000E+03  0.10994E-04
 0.10928001E+03  0.98640E-05
 0.10933000E+03  0.94178E-05
 0.10938000E+03  0.87878E-05
 0.10943001E+03  0.10849E-04
 0.10948000E+03  0.11169E-04
 0.10953001E+03  0.93638E-05
 0.10958000E+03  0.65331E-05
 0.10963000E+03  0.11687E-05
 0.10968001E+03 -0.56805E-05
 0.10973000E+03 -0.15325E-04
 0.10978001E+03 -0.23391E-04
 0.10983000E+03 -0.30390E-04
 0.10988000E+03 -0.37715E-04
 0.10993001E+03 -0.41984E-04
 0.10998000E+03 -0.45851E-04
 0.11003001E+03 -0.46234E-04
 0.11008000E+03 -0.43669E-04
 0.11013000E+03 -0.37350E-04
 0.11018001E+03 -0.26179E-04
 0.11023000E+03 -0.16800E-04
 0.11028001E+03 -0.93850E-05
 0.11033000E+03 -0.79275E-05
 0.11038000E+03 -0.95508E-05
 0.11043001E+03 -0.10337E-04
 0.11048000E+03 -0.12367E-04
 0.11053001E+03 -0.11963E-04
 0.11058000E+03 -0.10407E-04
 0.11063000E+03 -0.77117E-05
 0.11068001E+03 -0.52746E-05
 0.11073000E+03 -0.12786E-05
 0.11078001E+03  0.61810E-05
 0.11083000E+03  0.11456E-04
 0.11088000E+03  0.15324E-04
 0.11093001E+03  0.17367E-04
 0.11098000E+03  0.17271E-04
 0.11103001E+03  0.15548E-04
 0.11108000E+03  0.11755E-04
 0.11113000E+03  0.10861E-04
 0.11118001E+03  0.12464E-04
 0.11123000E+03  0.15954E-04
 0.11128001E+03  0.24947E-04
 0.11133000E+03  0.37917E-04
 0.11138000E+03  0.51556E-04
 0.11143001E+03  0.62356E-04
 0.11148000E+03  0.66827E-04
 0.11153001E+03  0.63572E-04
 0.11158000E+03  0.55635E-04
 0.11163000E+03  0.45064E-04
 0.11168001E+03  0.31840E-04
 0.11173000E+03  0.18345E-04
 0.11178001E+03  0.80070E-05
 0.11183000E+03  0.24717E-05
 0.11188000E+03 -0.16719E-05
 0.11193001E+03 -0.64628E-05
 0.11198000E+03 -0.13520E-04
 0.11203001E+03 -0.23354E-04
 0.11208000E+03 -0.32435E-04
 0.11213000E+03 -0.36973E-04
 0.11218001E+03 -0.35975E-04
 0.11223000E+03 -0.34161E-04
 0.11228001E+03 -0.32160E-04
 0.11233000E+03 -0.26257E-04
 0.11238000E+03 -0.18875E-04
 0.11243001E+03 -0.13172E-04
 0.11248000E+03 -0.81717E-05
 0.11253001E+03 -0.60362E-05
 0.11258000E+03 -0.67852E-05
 0.11263000E+03 -0.60977E-05
 0.11268001E+03 -0.49154E-05
 0.11273000E+03 -0.31879E-05
 0.11278001E+03 -0.70990E-06
 0.11283000E+03  0.45387E-06
 0.11288000E+03  0.34487E-05
 0.11293001E+03  0.67802E-05
 0.11298000E+03  0.83411E-05
 0.11303001E+03  0.95018E-05
 0.11308000E+03  0.77684E-05
 0.11313000E+03  0.61802E-05
 0.11318001E+03  0.64059E-05
 0.11323000E+03  0.74876E-05
 0.11328001E+03  0.84778E-05
 0.11333000E+03  0.68419E-05
 0.11338000E+03  0.43594E-05
 0.11343001E+03  0.55669E-06
 0.11348000E+03 -0.65544E-05
 0.11353001E+03 -0.16637E-04
 0.11358000E+03 -0.27094E-04
 0.11363000E+03 -0.36422E-04
 0.11368001E+03 -0.44670E-04
 0.11373000E+03 -0.51606E-04
 0.11378001E+03 -0.56531E-04
 0.11383000E+03 -0.57264E-04
 0.11388000E+03 -0.54162E-04
 0.11393001E+03 -0.45119E-04
 0.11398000E+03 -0.29527E-04
 0.11403001E+03 -0.12014E-04
 0.11408000E+03  0.53605E-05
 0.11413000E+03  0.19875E-04
 0.11418001E+03  0.30216E-04
 0.11423000E+03  0.37762E-04
 0.11428001E+03  0.42550E-04
 0.11433000E+03  0.44405E-04
 0.11438000E+03  0.44104E-04
 0.11443001E+03  0.43299E-04
 0.11448000E+03  0.42451E-04
 0.11453001E+03  0.41189E-04
 0.11458000E+03  0.38288E-04
 0.11463000E+03  0.31595E-04
 0.11468001E+03  0.21499E-04
 0.11473000E+03  0.10703E-04
 0.11478001E+03  0.91930E-06
 0.11483000E+03 -0.83522E-05
 0.11488000E+03 -0.18608E-04
 0.11493001E+03 -0.29143E-04
 0.11498000E+03 -0.36549E-04
 0.11503001E+03 -0.39802E-04
 0.11508000E+03 -0.40456E-04
 0.11513000E+03 -0.38365E-04
 0.11518001E+03 -0.32952E-04
 0.11523000E+03 -0.24762E-04
 0.11528001E+03 -0.15773E-04
 0.11533000E+03 -0.79487E-05
 0.11538000E+03 -0.21842E-05
 0.11543001E+03  0.18995E-05
 0.11548000E+03  0.55809E-05
 0.11553001E+03  0.91044E-05
 0.11558000E+03  0.13531E-04
 0.11563000E+03  0.16996E-04
 0.11568001E+03  0.14786E-04
 0.11573000E+03  0.71364E-05
 0.11578001E+03 -0.31112E-05
 0.11583000E+03 -0.12077E-04
 0.11588000E+03 -0.15795E-04
 0.11593001E+03 -0.12332E-04
 0.11598000E+03 -0.37904E-05
 0.11603001E+03  0.50087E-05
 0.11608000E+03  0.13062E-04
 0.11613000E+03  0.20262E-04
 0.11618001E+03  0.27440E-04
 0.11623000E+03  0.35404E-04
 0.11628001E+03  0.42388E-04
 0.11633000E+03  0.48351E-04
 0.11638000E+03  0.53672E-04
 0.11643001E+03  0.56296E-04
 0.11648000E+03  0.53368E-04
 0.11653001E+03  0.45486E-04
 0.11658000E+03  0.35995E-04
 0.11663000E+03  0.27536E-04
 0.11668001E+03  0.20593E-04
 0.11673000E+03  0.13470E-04
 0.11678001E+03  0.57402E-05
 0.11683000E+03 -0.25432E-05
 0.11688000E+03 -0.12024E-04
 0.11693001E+03 -0.20676E-04
 0.11698000E+03 -0.26060E-04
 0.11703001E+03 -0.27650E-04
 0.11708000E+03 -0.26016E-04
 0.11713000E+03 -0.21360E-04
 0.11718001E+03 -0.15089E-04
 0.11723000E+03 -0.10616E-04
 0.11728001E+03 -0.89500E-05
 0.11733000E+03 -0.97566E-05
 0.11738000E+03 -0.13609E-04
 0.11743001E+03 -0.19737E-04
 0.11748000E+03 -0.25503E-04
 0.11753001E+03 -0.30570E-04
 0.11758000E+03 -0.36496E-04
 0.11763000E+03 -0.44605E-04
 0.11768001E+03 -0.53861E-04
 0.11773000E+03 -0.59594E-04
 0.11778001E+03 -0.60721E-04
 0.11783000E+03 -0.58578E-04
 0.11788000E+03 -0.52972E-04
 0.11793001E+03 -0.43403E-04
 0.11798000E+03 -0.29656E-04
 0.11803001E+03 -0.14947E-04
 0.11808000E+03 -0.10853E-05
 0.11813000E+03  0.12186E-04
 0.11818001E+03  0.24090E-04
 0.11823000E+03  0.35453E-04
 0.11828001E+03  0.45926E-04
 0.11833000E+03  0.54549E-04
 0.11838000E+03  0.61177E-04
 0.11843001E+03  0.64672E-04
 0.11848000E+03  0.63989E-04
 0.11853001E+03  0.59360E-04
 0.11858000E+03  0.51456E-04
 0.11863000E+03  0.41236E-04
 0.11868001E+03  0.29696E-04
 0.11873000E+03  0.17908E-04
 0.11878001E+03  0.78796E-05
 0.11883000E+03 -0.94826E-07
 0.11888000E+03 -0.57127E-05
 0.11893001E+03 -0.89486E-05
 0.11898000E+03 -0.11189E-04
 0.11903001E+03 -0.12809E-04
 0.11908000E+03 -0.14855E-04
 0.11913000E+03 -0.16410E-04
 0.11918001E+03 -0.16915E-04
 0.11923000E+03 -0.17137E-04
 0.11928001E+03 -0.16478E-04
 0.11933000E+03 -0.16256E-04
 0.11938000E+03 -0.17022E-04
 0.11943001E+03 -0.18474E-04
 0.11948000E+03 -0.19944E-04
 0.11953001E+03 -0.20845E-04
 0.11958000E+03 -0.21633E-04
 0.11963000E+03 -0.19882E-04
 0.11968001E+03 -0.16491E-04
 0.11973000E+03 -0.12880E-04
 0.11978001E+03 -0.89531E-05
 0.11983000E+03 -0.81444E-05
 0.11988000E+03 -0.86680E-05
 0.11993001E+03 -0.90237E-05
 0.11998000E+03 -0.93062E-05
 0.12003001E+03 -0.68375E-05
 0.12008000E+03 -0.32522E-05
 0.12013000E+03 -0.36453E-06
 0.12018001E+03  0.16832E-05
 0.12023000E+03  0.26549E-05
 0.12028001E+03  0.49795E-05
 0.12033000E+03  0.98866E-05
 0.12038000E+03  0.14884E-04
 0.12043001E+03  0.19201E-04
 0.12048000E+03  0.23125E-04
 0.12053001E+03  0.27092E-04
 0.12058000E+03  0.31037E-04
 0.12063000E+03  0.33274E-04
 0.12068001E+03  0.35912E-04
 0.12073000E+03  0.38894E-04
 0.12078001E+03  0.39947E-04
 0.12083000E+03  0.40822E-04
 0.12088000E+03  0.40729E-04
 0.12093001E+03  0.37100E-04
 0.12098000E+03  0.30280E-04
 0.12103001E+03  0.22271E-04
 0.12108000E+03  0.14851E-04
 0.12113000E+03  0.83816E-05
 0.12118001E+03  0.13384E-05
 0.12123000E+03 -0.71505E-05
 0.12128001E+03 -0.15653E-04
 0.12133000E+03 -0.21667E-04
 0.12138000E+03 -0.23489E-04
 0.12143001E+03 -0.22660E-04
 0.12148000E+03 -0.20740E-04
 0.12153001E+03 -0.18076E-04
 0.12158000E+03 -0.16064E-04
 0.12163000E+03 -0.16726E-04
 0.12168001E+03 -0.22177E-04
 0.12173000E+03 -0.30764E-04
 0.12178001E+03 -0.37859E-04
 0.12183000E+03 -0.41146E-04
 0.12188000E+03 -0.41282E-04
 0.12193001E+03 -0.40820E-04
 0.12198000E+03 -0.41902E-04
 0.12203001E+03 -0.44808E-04
 0.12208000E+03 -0.47578E-04
 0.12213000E+03 -0.48835E-04
 0.12218001E+03 -0.49797E-04
 0.12223000E+03 -0.50218E-04
 0.12228001E+03 -0.49906E-04
 0.12233000E+03 -0.48967E-04
 0.12238000E+03 -0.43753E-04
 0.12243001E+03 -0.32856E-04
 0.12248000E+03 -0.18037E-04
 0.12253001E+03 -0.89654E-06
 0.12258000E+03  0.16334E-04
 0.12263000E+03  0.33063E-04
 0.12268001E+03  0.48144E-04
 0.12273000E+03  0.61542E-04
 0.12278001E+03  0.72921E-04
 0.12283000E+03  0.80871E-04
 0.12288000E+03  0.85637E-04
 0.12293001E+03  0.84207E-04
 0.12298000E+03  0.76381E-04
 0.12303001E+03  0.64322E-04
 0.12308000E+03  0.48704E-04
 0.12313000E+03  0.33631E-04
 0.12318001E+03  0.22428E-04
 0.12323000E+03  0.15752E-04
 0.12328001E+03  0.13781E-04
 0.12333000E+03  0.14452E-04
 0.12338000E+03  0.14756E-04
 0.12343001E+03  0.14319E-04
 0.12348000E+03  0.13215E-04
 0.12353001E+03  0.11300E-04
 0.12358000E+03  0.85785E-05
 0.12363000E+03  0.51244E-05
 0.12368001E+03  0.32073E-06
 0.12373000E+03 -0.72168E-05
 0.12378001E+03 -0.16910E-04
 0.12383000E+03 -0.28779E-04
 0.12388000E+03 -0.40824E-04
 0.12393001E+03 -0.48961E-04
 0.12398000E+03 -0.52006E-04
 0.12403001E+03 -0.50423E-04
 0.12408000E+03 -0.45813E-04
 0.12413000E+03 -0.39210E-04
 0.12418001E+03 -0.32422E-04
 0.12423000E+03 -0.27610E-04
 0.12428001E+03 -0.23852E-04
 0.12433000E+03 -0.20775E-04
 0.12438000E+03 -0.18106E-04
 0.12443001E+03 -0.14700E-04
 0.12448000E+03 -0.10058E-04
 0.12453001E+03 -0.49106E-05
 0.12458000E+03 -0.59673E-06
 0.12463000E+03  0.29705E-05
 0.12468001E+03  0.52307E-05
 0.12473000E+03  0.78697E-05
 0.12478001E+03  0.12812E-04
 0.12483000E+03  0.18322E-04
 0.12488000E+03  0.22685E-04
 0.12493001E+03  0.23737E-04
 0.12498000E+03  0.20295E-04
 0.12503001E+03  0.12857E-04
 0.12508000E+03  0.35040E-05
 0.12513000E+03 -0.41613E-05
 0.12518001E+03 -0.73227E-05
 0.12523000E+03 -0.50890E-05
 0.12528001E+03  0.84247E-06
 0.12533000E+03  0.78200E-05
 0.12538000E+03  0.13420E-04
 0.12543001E+03  0.16011E-04
 0.12548000E+03  0.14110E-04
 0.12553001E+03  0.90952E-05
 0.12558000E+03  0.44004E-05
 0.12563000E+03  0.66180E-06
 0.12568001E+03 -0.70440E-06
 0.12573000E+03  0.11735E-05
 0.12578001E+03  0.55387E-05
 0.12583000E+03  0.10863E-04
 0.12588000E+03  0.14543E-04
 0.12593001E+03  0.16460E-04
 0.12598000E+03  0.17979E-04
 0.12603001E+03  0.19848E-04
 0.12608000E+03  0.20165E-04
 0.12613000E+03  0.17323E-04
 0.12618001E+03  0.10933E-04
 0.12623000E+03  0.42910E-06
 0.12628001E+03 -0.12202E-04
 0.12633000E+03 -0.23592E-04
 0.12638000E+03 -0.31040E-04
 0.12643001E+03 -0.34764E-04
 0.12648000E+03 -0.35171E-04
 0.12653001E+03 -0.33190E-04
 0.12658000E+03 -0.30024E-04
 0.12663000E+03 -0.24686E-04
 0.12668001E+03 -0.17735E-04
 0.12673000E+03 -0.10581E-04
 0.12678001E+03 -0.49817E-05
 0.12683000E+03 -0.62194E-06
 0.12688000E+03  0.25536E-05
 0.12693001E+03  0.29885E-05
 0.12698000E+03  0.22265E-05
 0.12703001E+03  0.14607E-05
 0.12708000E+03  0.18287E-05
 0.12713000E+03  0.35642E-05
 0.12718001E+03  0.54676E-05
 0.12723000E+03  0.74113E-05
 0.12728001E+03  0.75308E-05
 0.12733000E+03  0.60378E-05
 0.12738000E+03  0.53635E-05
 0.12743001E+03  0.59960E-05
 0.12748000E+03  0.85883E-05
 0.12753001E+03  0.12727E-04
 0.12758000E+03  0.17127E-04
 0.12763000E+03  0.21030E-04
 0.12768001E+03  0.23864E-04
 0.12773000E+03  0.26436E-04
 0.12778001E+03  0.28655E-04
 0.12783000E+03  0.29757E-04
 0.12788000E+03  0.30720E-04
 0.12793001E+03  0.31188E-04
 0.12798000E+03  0.28935E-04
 0.12803000E+03  0.23466E-04
 0.12808000E+03  0.16445E-04
 0.12813000E+03  0.82988E-05
 0.12818001E+03  0.38609E-06
 0.12823001E+03 -0.73794E-05
 0.12828000E+03 -0.15793E-04
 0.12833000E+03 -0.20505E-04
 0.12838000E+03 -0.23306E-04
 0.12843001E+03 -0.25419E-04
 0.12848001E+03 -0.24852E-04
 0.12853000E+03 -0.23571E-04
 0.12858000E+03 -0.20878E-04
 0.12863000E+03 -0.19408E-04
 0.12868001E+03 -0.19907E-04
 0.12873001E+03 -0.19235E-04
 0.12878000E+03 -0.16782E-04
 0.12883000E+03 -0.12535E-04
 0.12888000E+03 -0.77510E-05
 0.12893001E+03 -0.40102E-05
 0.12898001E+03 -0.18403E-05
 0.12903000E+03 -0.85202E-06
 0.12908000E+03 -0.14432E-05
 0.12913000E+03 -0.26593E-05
 0.12918001E+03 -0.42470E-05
 0.12923001E+03 -0.68372E-05
 0.12928000E+03 -0.95945E-05
 0.12933000E+03 -0.11644E-04
 0.12938000E+03 -0.12889E-04
 0.12943001E+03 -0.15870E-04
 0.12948001E+03 -0.20485E-04
 0.12953000E+03 -0.24772E-04
 0.12958000E+03 -0.29503E-04
 0.12963000E+03 -0.35508E-04
 0.12968001E+03 -0.40715E-04
 0.12973001E+03 -0.42332E-04
 0.12978000E+03 -0.39123E-04
 0.12983000E+03 -0.29364E-04
 0.12988000E+03 -0.14321E-04
 0.12993001E+03  0.30207E-05
 0.12998001E+03  0.19924E-04
 0.13003000E+03  0.33704E-04
 0.13008000E+03  0.44728E-04
 0.13013000E+03  0.53845E-04
 0.13018001E+03  0.60278E-04
 0.13023001E+03  0.62265E-04
 0.13028000E+03  0.60176E-04
 0.13033000E+03  0.55599E-04
 0.13038000E+03  0.48565E-04
 0.13043001E+03  0.40121E-04
 0.13048001E+03  0.31397E-04
 0.13053000E+03  0.22527E-04
 0.13058000E+03  0.13039E-04
 0.13063000E+03  0.36567E-05
 0.13068001E+03 -0.48790E-05
 0.13073001E+03 -0.13648E-04
 0.13078000E+03 -0.20782E-04
 0.13083000E+03 -0.25244E-04
 0.13088000E+03 -0.26909E-04
 0.13093001E+03 -0.24452E-04
 0.13098001E+03 -0.19916E-04
 0.13103000E+03 -0.14811E-04
 0.13108000E+03 -0.10836E-04
 0.13113000E+03 -0.89187E-05
 0.13118001E+03 -0.77316E-05
 0.13123001E+03 -0.75033E-05
 0.13128000E+03 -0.73341E-05
 0.13133000E+03 -0.67975E-05
 0.13138000E+03 -0.68545E-05
 0.13143001E+03 -0.68096E-05
 0.13148001E+03 -0.54348E-05
 0.13153000E+03 -0.27322E-05
 0.13158000E+03  0.60869E-06
 0.13163000E+03  0.32626E-05
 0.13168001E+03  0.53298E-05
 0.13173001E+03  0.74459E-05
 0.13178000E+03  0.85467E-05
 0.13183000E+03  0.95612E-05
 0.13188000E+03  0.10518E-04
 0.13193001E+03  0.10130E-04
 0.13198001E+03  0.81529E-05
 0.13203000E+03  0.49776E-05
 0.13208000E+03  0.19487E-05
 0.13213000E+03 -0.61454E-06
 0.13218001E+03 -0.19725E-05
 0.13223001E+03 -0.23061E-05
 0.13228000E+03 -0.31305E-05
 0.13233000E+03 -0.49990E-05
 0.13238000E+03 -0.76735E-05
 0.13243001E+03 -0.10405E-04
 0.13248001E+03 -0.12700E-04
 0.13253000E+03 -0.14801E-04
 0.13258000E+03 -0.15988E-04
 0.13263000E+03 -0.15521E-04
 0.13268001E+03 -0.13954E-04
 0.13273001E+03 -0.11568E-04
 0.13278000E+03 -0.91125E-05
 0.13283000E+03 -0.62813E-05
 0.13288000E+03 -0.35508E-05
 0.13293001E+03 -0.90964E-06
 0.13298001E+03  0.21167E-05
 0.13303000E+03  0.43881E-05
 0.13308000E+03  0.57019E-05
 0.13313000E+03  0.51746E-05
 0.13318001E+03  0.44356E-05
 0.13323001E+03  0.42747E-05
 0.13328000E+03  0.37419E-05
 0.13333000E+03  0.48221E-05
 0.13338000E+03  0.75077E-05
 0.13343001E+03  0.11128E-04
 0.13348001E+03  0.15472E-04
 0.13353000E+03  0.19665E-04
 0.13358000E+03  0.23518E-04
 0.13363000E+03  0.26101E-04
 0.13368001E+03  0.26841E-04
 0.13373001E+03  0.25031E-04
 0.13378000E+03  0.19595E-04
 0.13383000E+03  0.11117E-04
 0.13388000E+03  0.86088E-06
 0.13393001E+03 -0.89981E-05
 0.13398001E+03 -0.17153E-04
 0.13403000E+03 -0.23696E-04
 0.13408000E+03 -0.27570E-04
 0.13413000E+03 -0.29153E-04
 0.13418001E+03 -0.28892E-04
 0.13423001E+03 -0.25240E-04
 0.13428000E+03 -0.17577E-04
 0.13433000E+03 -0.71861E-05
 0.13438000E+03  0.42381E-05
 0.13443001E+03  0.16347E-04
 0.13448001E+03  0.27105E-04
 0.13453000E+03  0.33288E-04
 0.13458000E+03  0.33287E-04
 0.13463000E+03  0.27426E-04
 0.13468001E+03  0.19258E-04
 0.13473001E+03  0.11120E-04
 0.13478000E+03  0.23338E-05
 0.13483000E+03 -0.69636E-05
 0.13488000E+03 -0.15108E-04
 0.13493001E+03 -0.20476E-04
 0.13498001E+03 -0.22830E-04
 0.13503000E+03 -0.22628E-04
 0.13508000E+03 -0.21826E-04
 0.13513000E+03 -0.21652E-04
 0.13518001E+03 -0.21282E-04
 0.13523001E+03 -0.20588E-04
 0.13528000E+03 -0.18945E-04
 0.13533000E+03 -0.16003E-04
 0.13538000E+03 -0.11522E-04
 0.13543001E+03 -0.47986E-05
 0.13548001E+03  0.25713E-05
 0.13553000E+03  0.96359E-05
 0.13558000E+03  0.16197E-04
 0.13563000E+03  0.20088E-04
 0.13568001E+03  0.21543E-04
 0.13573001E+03  0.20891E-04
 0.13578000E+03  0.18291E-04
 0.13583000E+03  0.14760E-04
 0.13588000E+03  0.88967E-05
 0.13593001E+03  0.24000E-06
 0.13598001E+03 -0.95784E-05
 0.13603000E+03 -0.17533E-04
 0.13608000E+03 -0.23629E-04
 0.13613000E+03 -0.28670E-04
 0.13618001E+03 -0.31314E-04
 0.13623001E+03 -0.31877E-04
 0.13628000E+03 -0.30297E-04
 0.13633000E+03 -0.27293E-04
 0.13638000E+03 -0.23646E-04
 0.13643001E+03 -0.17736E-04
 0.13648001E+03 -0.88319E-05
 0.13653000E+03  0.95347E-06
 0.13658000E+03  0.10400E-04
 0.13663000E+03  0.19108E-04
 0.13668001E+03  0.25842E-04
 0.13673001E+03  0.31282E-04
 0.13678000E+03  0.35323E-04
 0.13683000E+03  0.36779E-04
 0.13688000E+03  0.36036E-04
 0.13693001E+03  0.33638E-04
 0.13698001E+03  0.30387E-04
 0.13703000E+03  0.27366E-04
 0.13708000E+03  0.23918E-04
 0.13713000E+03  0.20157E-04
 0.13718001E+03  0.17379E-04
 0.13723001E+03  0.14638E-04
 0.13728000E+03  0.11681E-04
 0.13733000E+03  0.79586E-05
 0.13738000E+03  0.38416E-05
 0.13743001E+03  0.12672E-07
 0.13748001E+03 -0.27026E-05
 0.13753000E+03 -0.35551E-05
 0.13758000E+03 -0.35565E-05
 0.13763000E+03 -0.23614E-05
 0.13768001E+03 -0.20637E-05
 0.13773001E+03 -0.25131E-05
 0.13778000E+03 -0.70514E-05
 0.13783000E+03 -0.11615E-04
 0.13788000E+03 -0.13578E-04
 0.13793001E+03 -0.16444E-04
 0.13798001E+03 -0.13668E-04
 0.13803000E+03 -0.11885E-04
 0.13808000E+03 -0.10540E-04
 0.13813000E+03 -0.94932E-05
 0.13818001E+03 -0.10874E-04
 0.13823001E+03 -0.10234E-04
 0.13828000E+03 -0.13056E-04
 0.13833000E+03 -0.14653E-04
 0.13838000E+03 -0.15672E-04
 0.13843001E+03 -0.18476E-04
 0.13848001E+03 -0.17997E-04
 0.13853000E+03 -0.15939E-04
 0.13858000E+03 -0.11454E-04
 0.13863000E+03 -0.55658E-05
 0.13868001E+03 -0.13819E-05
 0.13873001E+03  0.20976E-05
 0.13878000E+03  0.50834E-05
 0.13883000E+03  0.70004E-05
 0.13888000E+03  0.83855E-05
 0.13893001E+03  0.10391E-04
 0.13898001E+03  0.10569E-04
 0.13903000E+03  0.97394E-05
 0.13908000E+03  0.83402E-05
 0.13913000E+03  0.48664E-05
 0.13918001E+03  0.24701E-05
 0.13923001E+03 -0.12079E-05
 0.13928000E+03 -0.55162E-05
 0.13933000E+03 -0.63910E-05
 0.13938000E+03 -0.49345E-05
 0.13943001E+03 -0.88011E-06
 0.13948001E+03  0.50717E-05
 0.13953000E+03  0.12039E-04
 0.13958000E+03  0.19733E-04
 0.13963000E+03  0.24558E-04
 0.13968001E+03  0.25300E-04
 0.13973001E+03  0.24475E-04
 0.13978000E+03  0.23314E-04
 0.13983000E+03  0.19743E-04
 0.13988000E+03  0.14769E-04
 0.13993001E+03  0.99525E-05
 0.13998001E+03  0.18583E-05
 0.14003000E+03 -0.76342E-05
 0.14008000E+03 -0.16507E-04
 0.14013000E+03 -0.24545E-04
 0.14018001E+03 -0.28524E-04
 0.14023001E+03 -0.30120E-04
 0.14028000E+03 -0.30184E-04
 0.14033000E+03 -0.27832E-04
 0.14038000E+03 -0.26602E-04
 0.14043001E+03 -0.24373E-04
 0.14048001E+03 -0.20034E-04
 0.14053000E+03 -0.18987E-04
 0.14058000E+03 -0.18777E-04
 0.14063000E+03 -0.17353E-04
 0.14068001E+03 -0.17322E-04
 0.14073001E+03 -0.17024E-04
 0.14078000E+03 -0.15586E-04
 0.14083000E+03 -0.14643E-04
 0.14088000E+03 -0.12767E-04
 0.14093001E+03 -0.79906E-05
 0.14098001E+03 -0.21180E-05
 0.14103000E+03  0.61433E-05
 0.14108000E+03  0.17007E-04
 0.14113000E+03  0.26346E-04
 0.14118001E+03  0.34037E-04
 0.14123001E+03  0.38416E-04
 0.14128000E+03  0.39885E-04
 0.14133000E+03  0.37616E-04
 0.14138000E+03  0.32069E-04
 0.14143001E+03  0.26162E-04
 0.14148001E+03  0.20084E-04
 0.14153000E+03  0.16441E-04
 0.14158000E+03  0.12105E-04
 0.14163000E+03  0.93260E-05
 0.14168001E+03  0.75487E-05
 0.14173001E+03  0.31561E-05
 0.14178000E+03  0.65968E-06
 0.14183000E+03 -0.14869E-05
 0.14188000E+03 -0.32206E-05
 0.14193001E+03 -0.41851E-05
 0.14198001E+03 -0.42042E-05
 0.14203000E+03 -0.18653E-05
 0.14208000E+03  0.98154E-07
 0.14213000E+03  0.28723E-05
 0.14218001E+03  0.49528E-05
 0.14223001E+03  0.46272E-05
 0.14228000E+03  0.56423E-05
 0.14233000E+03  0.43456E-05
 0.14238000E+03  0.19591E-05
 0.14243001E+03  0.29913E-05
 0.14248001E+03  0.16842E-05
 0.14253000E+03  0.90770E-06
 0.14258000E+03  0.74680E-06
 0.14263000E+03  0.11762E-05
 0.14268001E+03  0.67655E-05
 0.14273001E+03  0.78565E-05
 0.14278000E+03  0.51533E-05
 0.14283000E+03  0.31426E-05
 0.14288000E+03  0.22551E-05
 0.14293001E+03  0.30900E-05
 0.14298001E+03  0.11433E-05
 0.14303000E+03  0.12967E-05
 0.14308000E+03 -0.12467E-05
 0.14313000E+03 -0.75895E-05
 0.14318001E+03 -0.10720E-04
 0.14323001E+03 -0.14555E-04
 0.14328000E+03 -0.16581E-04
 0.14333000E+03 -0.22157E-04
 0.14338000E+03 -0.29988E-04
 0.14343001E+03 -0.32372E-04
 0.14348001E+03 -0.33290E-04
 0.14353000E+03 -0.35402E-04
 0.14358000E+03 -0.34119E-04
 0.14363000E+03 -0.26412E-04
 0.14368001E+03 -0.23666E-04
 0.14373001E+03 -0.24612E-04
 0.14378000E+03 -0.22266E-04
 0.14383000E+03 -0.16552E-04
 0.14388000E+03 -0.10214E-04
 0.14393001E+03 -0.30558E-05
 0.14398001E+03  0.57816E-05
 0.14403000E+03  0.13428E-04
 0.14408000E+03  0.22387E-04
 0.14413000E+03  0.22177E-04
 0.14418001E+03  0.19019E-04
 0.14423001E+03  0.21039E-04
 0.14428000E+03  0.19071E-04
 0.14433000E+03  0.16716E-04
 0.14438000E+03  0.13969E-04
 0.14443001E+03  0.12283E-04
 0.14448001E+03  0.12963E-04
 0.14453000E+03  0.15933E-04
 0.14458000E+03  0.16022E-04
 0.14463000E+03  0.13407E-04
 0.14468001E+03  0.16480E-04
 0.14473001E+03  0.12370E-04
 0.14478000E+03  0.52784E-05
 0.14483000E+03  0.26508E-05
 0.14488000E+03 -0.32552E-05
 0.14493001E+03 -0.85703E-05
 0.14498001E+03 -0.15785E-04
 0.14503000E+03 -0.17799E-04
 0.14508000E+03 -0.14993E-04
 0.14513000E+03 -0.14094E-04
 0.14518001E+03 -0.12059E-04
 0.14523001E+03 -0.11364E-04
 0.14528000E+03 -0.72729E-05
 0.14533000E+03 -0.38936E-05
 0.14538000E+03 -0.54975E-06
 0.14543001E+03  0.66357E-05
 0.14548001E+03  0.14058E-04
 0.14553000E+03  0.18750E-04
 0.14558000E+03  0.21307E-04
 0.14563000E+03  0.26235E-04
 0.14568001E+03  0.27887E-04
 0.14573001E+03  0.27633E-04
 0.14578000E+03  0.23792E-04
 0.14583000E+03  0.16526E-04
 0.14588000E+03  0.98776E-05
 0.14593001E+03  0.40905E-06
 0.14598001E+03 -0.81046E-05
 0.14603000E+03 -0.13588E-04
 0.14608000E+03 -0.16693E-04
 0.14613000E+03 -0.21411E-04
 0.14618001E+03 -0.24345E-04
 0.14623001E+03 -0.23415E-04
 0.14628000E+03 -0.21229E-04
 0.14633000E+03 -0.17202E-04
 0.14638000E+03 -0.13917E-04
 0.14643001E+03 -0.10042E-04
 0.14648001E+03 -0.96339E-05
 0.14653000E+03 -0.81821E-05
 0.14658000E+03 -0.53427E-05
 0.14663000E+03 -0.77039E-05
 0.14668001E+03 -0.60922E-05
 0.14673001E+03 -0.11565E-05
 0.14678000E+03  0.23657E-05
 0.14683000E+03  0.80812E-05
 0.14688000E+03  0.13850E-04
 0.14693001E+03  0.16975E-04
 0.14698001E+03  0.20647E-04
 0.14703000E+03  0.24025E-04
 0.14708000E+03  0.24804E-04
 0.14713000E+03  0.25238E-04
 0.14718001E+03  0.22460E-04
 0.14723001E+03  0.15952E-04
 0.14728000E+03  0.93905E-05
 0.14733000E+03 -0.20297E-06
 0.14738000E+03 -0.12254E-04
 0.14743001E+03 -0.22146E-04
 0.14748001E+03 -0.27354E-04
 0.14753000E+03 -0.30242E-04
 0.14758000E+03 -0.31411E-04
 0.14763000E+03 -0.28489E-04
 0.14768001E+03 -0.24863E-04
 0.14773001E+03 -0.19609E-04
 0.14778000E+03 -0.10874E-04
 0.14783000E+03 -0.90986E-06
 0.14788000E+03  0.75762E-05
 0.14793001E+03  0.12650E-04
 0.14798001E+03  0.15587E-04
 0.14803000E+03  0.16228E-04
 0.14808000E+03  0.16182E-04
 0.14813000E+03  0.16533E-04
 0.14818001E+03  0.16160E-04
 0.14823001E+03  0.15577E-04
 0.14828000E+03  0.13396E-04
 0.14833000E+03  0.11309E-04
 0.14838000E+03  0.93671E-05
 0.14843001E+03  0.62478E-05
 0.14848001E+03  0.45459E-05
 0.14853000E+03  0.27592E-05
 0.14858000E+03  0.19685E-05
 0.14863000E+03  0.10938E-05
 0.14868001E+03 -0.22899E-05
 0.14873001E+03 -0.39797E-05
 0.14878000E+03 -0.60700E-05
 0.14883000E+03 -0.70082E-05
 0.14888000E+03 -0.36501E-05
 0.14893001E+03  0.86489E-06
 0.14898001E+03  0.58659E-05
 0.14903000E+03  0.87937E-05
 0.14908000E+03  0.12121E-04
 0.14913000E+03  0.16513E-04
 0.14918001E+03  0.18246E-04
 0.14923001E+03  0.19175E-04
 0.14928000E+03  0.19514E-04
 0.14933000E+03  0.16978E-04
 0.14938000E+03  0.83391E-05
 0.14943001E+03 -0.39110E-05
 0.14948001E+03 -0.15416E-04
 0.14953000E+03 -0.24776E-04
 0.14958000E+03 -0.32378E-04
 0.14963000E+03 -0.37417E-04
 0.14968001E+03 -0.38087E-04
 0.14973001E+03 -0.34937E-04
 0.14978000E+03 -0.29061E-04
 0.14983000E+03 -0.24141E-04
 0.14988000E+03 -0.17047E-04
 0.14993001E+03 -0.11077E-04
 0.14998001E+03 -0.83971E-05
