-0.19999981E-01 -0.14746E-03
 0.30000020E-01  0.72103E-04
 0.80000021E-01  0.78413E-04
 0.13000003E+00  0.27661E-04
 0.18000002E+00  0.35793E-04
 0.23000002E+00 -0.53271E-04
 0.28000003E+00  0.95414E-05
 0.33000001E+00 -0.31713E-05
 0.38000003E+00 -0.17429E-05
 0.43000004E+00  0.44082E-04
 0.48000002E+00 -0.73703E-04
 0.53000003E+00  0.43214E-04
 0.58000004E+00  0.93895E-06
 0.63000005E+00 -0.16056E-03
 0.68000001E+00  0.82669E-04
 0.73000002E+00  0.36156E-04
 0.78000003E+00  0.35132E-04
 0.83000004E+00  0.10254E-03
 0.88000005E+00 -0.11803E-03
 0.93000001E+00 -0.54139E-04
 0.98000002E+00  0.61073E-05
 0.10300001E+01  0.13522E-05
 0.10800000E+01 -0.18595E-04
 0.11300000E+01 -0.52278E-04
 0.11800001E+01  0.83280E-04
 0.12300000E+01  0.53472E-04
 0.12800001E+01  0.82290E-04
 0.13300000E+01  0.43797E-04
 0.13800000E+01 -0.18774E-03
 0.14300001E+01 -0.48803E-04
 0.14800000E+01  0.88992E-04
 0.15300001E+01  0.46813E-06
 0.15800000E+01 -0.43287E-04
 0.16300000E+01  0.81359E-04
 0.16800001E+01  0.74553E-04
 0.17300000E+01 -0.16338E-03
 0.17800001E+01 -0.41696E-04
 0.18300000E+01  0.10871E-03
 0.18800000E+01  0.34157E-04
 0.19300001E+01 -0.36923E-04
 0.19800000E+01 -0.64621E-04
 0.20300000E+01  0.10479E-04
 0.20800002E+01  0.74591E-04
 0.21300001E+01 -0.17129E-04
 0.21800001E+01 -0.83904E-04
 0.22300000E+01 -0.26721E-04
 0.22800000E+01  0.11096E-03
 0.23300002E+01  0.13999E-03
 0.23800001E+01 -0.15297E-03
 0.24300001E+01 -0.30105E-04
 0.24800000E+01 -0.16043E-04
 0.25300000E+01 -0.13818E-03
 0.25800002E+01  0.17513E-03
 0.26300001E+01  0.33693E-04
 0.26800001E+01  0.78314E-04
 0.27300000E+01 -0.39262E-04
 0.27800000E+01 -0.24769E-03
 0.28300002E+01  0.10488E-03
 0.28800001E+01  0.10059E-03
 0.29300001E+01  0.46860E-04
 0.29800000E+01 -0.11821E-03
 0.30300000E+01  0.27914E-04
 0.30800002E+01  0.91410E-04
 0.31300001E+01 -0.84133E-04
 0.31800001E+01  0.50675E-04
 0.32300000E+01 -0.10571E-03
 0.32800000E+01 -0.14701E-04
 0.33300002E+01 -0.31635E-04
 0.33800001E+01  0.11114E-03
 0.34300001E+01  0.20684E-03
 0.34800000E+01 -0.21661E-03
 0.35300000E+01 -0.13502E-03
 0.35800002E+01  0.10163E-03
 0.36300001E+01  0.15807E-04
 0.36800001E+01  0.98563E-05
 0.37300000E+01  0.70537E-04
 0.37800000E+01 -0.10001E-04
 0.38300002E+01  0.47342E-04
 0.38800001E+01 -0.15472E-03
 0.39300001E+01  0.13516E-04
 0.39800000E+01  0.34523E-04
 0.40300002E+01 -0.53643E-04
 0.40799999E+01  0.16460E-03
 0.41300001E+01 -0.10784E-03
 0.41800003E+01  0.86108E-04
 0.42300000E+01 -0.93015E-04
 0.42800002E+01 -0.86635E-04
 0.43299999E+01  0.21355E-03
 0.43800001E+01 -0.20800E-03
 0.44300003E+01  0.11475E-03
 0.44800000E+01  0.11852E-03
 0.45300002E+01 -0.33440E-03
 0.45799999E+01  0.19850E-03
 0.46300001E+01  0.14192E-03
 0.46800003E+01 -0.16692E-03
 0.47300000E+01 -0.51255E-04
 0.47800002E+01 -0.43843E-04
 0.48299999E+01  0.70760E-04
 0.48800001E+01 -0.27442E-04
 0.49300003E+01  0.23449E-03
 0.49800000E+01  0.11689E-03
 0.50300002E+01 -0.21042E-03
 0.50799999E+01 -0.20570E-03
 0.51300001E+01 -0.19921E-03
 0.51800003E+01  0.18284E-03
 0.52300000E+01  0.20052E-03
 0.52800002E+01  0.19576E-03
 0.53299999E+01  0.72262E-05
 0.53800001E+01 -0.28962E-03
 0.54300003E+01 -0.12096E-03
 0.54800000E+01 -0.32923E-04
 0.55300002E+01  0.13251E-03
 0.55799999E+01  0.22797E-03
 0.56300001E+01 -0.49969E-04
 0.56800003E+01 -0.17198E-03
 0.57300000E+01  0.11054E-03
 0.57800002E+01 -0.81375E-05
 0.58299999E+01 -0.83601E-04
 0.58800001E+01  0.23947E-04
 0.59300003E+01 -0.63827E-04
 0.59800000E+01  0.69679E-04
 0.60300002E+01  0.23403E-05
 0.60799999E+01  0.65291E-04
 0.61300001E+01 -0.13368E-04
 0.61800003E+01 -0.11870E-03
 0.62300000E+01  0.95620E-04
 0.62800002E+01 -0.33892E-04
 0.63299999E+01  0.10775E-03
 0.63800001E+01 -0.96626E-05
 0.64300003E+01 -0.18492E-03
 0.64800000E+01  0.21593E-04
 0.65300002E+01 -0.10139E-03
 0.65799999E+01  0.98365E-04
 0.66300001E+01  0.26334E-03
 0.66800003E+01 -0.97829E-04
 0.67300000E+01 -0.95897E-04
 0.67800002E+01 -0.67435E-05
 0.68299999E+01 -0.11318E-03
 0.68800001E+01  0.17462E-03
 0.69300003E+01  0.93337E-04
 0.69800000E+01 -0.13231E-03
 0.70300002E+01 -0.91051E-04
 0.70799999E+01  0.39724E-04
 0.71300001E+01  0.47513E-05
 0.71800003E+01 -0.57233E-04
 0.72300000E+01  0.17623E-03
 0.72800002E+01  0.31991E-04
 0.73299999E+01  0.18993E-04
 0.73800001E+01 -0.12145E-03
 0.74300003E+01 -0.14207E-03
 0.74800000E+01  0.48252E-04
 0.75300002E+01 -0.96580E-04
 0.75799999E+01  0.26039E-03
 0.76300001E+01  0.16249E-03
 0.76800003E+01 -0.13534E-03
 0.77300000E+01 -0.14013E-03
 0.77800002E+01 -0.11888E-03
 0.78299999E+01  0.11881E-03
 0.78800001E+01 -0.57271E-04
 0.79300003E+01  0.15525E-03
 0.79800000E+01 -0.16116E-03
 0.80299997E+01  0.20475E-03
 0.80799999E+01  0.12265E-03
 0.81300001E+01 -0.60580E-03
 0.81800003E+01  0.49409E-03
 0.82300005E+01  0.14164E-05
 0.82799997E+01 -0.12068E-03
 0.83299999E+01  0.17633E-03
 0.83800001E+01 -0.17712E-03
 0.84300003E+01 -0.20117E-03
 0.84800005E+01  0.86831E-04
 0.85299997E+01  0.12280E-03
 0.85799999E+01 -0.23708E-03
 0.86300001E+01  0.28053E-03
 0.86800003E+01  0.12548E-03
 0.87300005E+01  0.77514E-04
 0.87799997E+01 -0.20011E-03
 0.88299999E+01  0.37104E-04
 0.88800001E+01 -0.30060E-03
 0.89300003E+01  0.81492E-04
 0.89800005E+01  0.19316E-03
 0.90299997E+01 -0.24880E-03
 0.90799999E+01  0.45027E-03
 0.91300001E+01 -0.48995E-03
 0.91800003E+01  0.40699E-03
 0.92300005E+01 -0.11558E-03
 0.92799997E+01 -0.96353E-04
 0.93299999E+01  0.17928E-03
 0.93800001E+01 -0.44741E-03
 0.94300003E+01  0.45507E-03
 0.94800005E+01 -0.34203E-03
 0.95299997E+01  0.23377E-03
 0.95799999E+01  0.35852E-04
 0.96300001E+01 -0.17231E-03
 0.96800003E+01  0.15572E-03
 0.97300005E+01 -0.21535E-03
 0.97799997E+01  0.17208E-03
 0.98299999E+01 -0.42820E-04
 0.98800001E+01  0.33580E-04
 0.99300003E+01 -0.33907E-04
 0.99800005E+01 -0.17162E-05
 0.10030000E+02  0.10861E-03
 0.10080000E+02 -0.47613E-04
 0.10130000E+02 -0.43249E-04
 0.10180000E+02 -0.12726E-04
 0.10230000E+02 -0.55550E-04
 0.10280000E+02  0.52023E-04
 0.10330000E+02  0.10005E-03
 0.10380000E+02 -0.13461E-03
 0.10430000E+02  0.89453E-04
 0.10480000E+02 -0.31451E-04
 0.10530000E+02 -0.26256E-04
 0.10580000E+02  0.81782E-04
 0.10630000E+02 -0.28634E-05
 0.10680000E+02 -0.51324E-04
 0.10730000E+02 -0.16782E-03
 0.10780000E+02  0.12164E-03
 0.10830000E+02  0.27031E-04
 0.10880000E+02 -0.65663E-04
 0.10930000E+02  0.18795E-03
 0.10980000E+02  0.31450E-04
 0.11030000E+02 -0.20016E-03
 0.11080000E+02 -0.11778E-04
 0.11130000E+02  0.68949E-04
 0.11180000E+02  0.16319E-04
 0.11230000E+02  0.61465E-04
 0.11280000E+02 -0.63748E-04
 0.11330000E+02 -0.66183E-04
 0.11380000E+02 -0.32582E-04
 0.11430000E+02  0.41951E-04
 0.11480000E+02  0.11063E-03
 0.11530000E+02 -0.61263E-04
 0.11580000E+02  0.92701E-04
 0.11630000E+02  0.72076E-04
 0.11680000E+02 -0.19690E-03
 0.11730000E+02 -0.11669E-03
 0.11780000E+02 -0.36433E-05
 0.11830000E+02  0.10086E-03
 0.11880000E+02  0.55327E-04
 0.11930000E+02  0.88830E-04
 0.11980000E+02  0.26701E-04
 0.12030000E+02 -0.15706E-03
 0.12080000E+02 -0.77625E-04
 0.12130000E+02  0.97076E-04
 0.12180000E+02  0.35303E-04
 0.12230000E+02 -0.64978E-04
 0.12280000E+02  0.13148E-03
 0.12330000E+02 -0.29154E-04
 0.12380000E+02 -0.79472E-04
 0.12430000E+02  0.15890E-04
 0.12480000E+02 -0.65994E-04
 0.12530000E+02  0.80790E-04
 0.12580000E+02  0.32267E-04
 0.12630000E+02 -0.51755E-05
 0.12680000E+02 -0.53024E-04
 0.12730000E+02 -0.10433E-04
 0.12780001E+02  0.73683E-04
 0.12830000E+02 -0.13198E-03
 0.12880000E+02  0.88084E-04
 0.12930000E+02  0.16432E-03
 0.12980000E+02 -0.15627E-03
 0.13030001E+02 -0.34084E-04
 0.13080000E+02 -0.14796E-05
 0.13130000E+02 -0.17757E-04
 0.13180000E+02  0.77691E-04
 0.13230000E+02 -0.46411E-04
 0.13280001E+02 -0.10353E-04
 0.13330000E+02  0.28528E-04
 0.13380000E+02 -0.85196E-05
 0.13430000E+02 -0.22269E-04
 0.13480000E+02 -0.42356E-04
 0.13530001E+02  0.61952E-04
 0.13580000E+02  0.25008E-04
 0.13630000E+02  0.27286E-04
 0.13680000E+02 -0.12618E-04
 0.13730000E+02 -0.14539E-03
 0.13780001E+02  0.68486E-05
 0.13830000E+02  0.16263E-04
 0.13880000E+02  0.65764E-04
 0.13930000E+02  0.10529E-03
 0.13980000E+02 -0.55035E-04
 0.14030001E+02 -0.76956E-04
 0.14080000E+02 -0.89066E-06
 0.14130000E+02  0.66619E-04
 0.14180000E+02 -0.36269E-05
 0.14230000E+02  0.15035E-04
 0.14280001E+02  0.44450E-04
 0.14330000E+02 -0.87621E-04
 0.14380000E+02 -0.83209E-04
 0.14430000E+02  0.12590E-03
 0.14480000E+02  0.14862E-04
 0.14530001E+02 -0.57547E-04
 0.14580000E+02  0.90905E-04
 0.14630000E+02 -0.93533E-04
 0.14680000E+02 -0.86790E-04
 0.14730000E+02  0.97987E-04
 0.14780001E+02  0.37007E-04
 0.14830000E+02 -0.72228E-04
 0.14880000E+02  0.55649E-04
 0.14930000E+02  0.12200E-03
 0.14980000E+02 -0.91475E-04
 0.15030001E+02 -0.10539E-03
 0.15080000E+02  0.35927E-04
 0.15130000E+02  0.22942E-04
 0.15180000E+02 -0.77487E-05
 0.15230000E+02  0.34748E-04
 0.15280001E+02  0.20039E-04
 0.15330000E+02 -0.43235E-04
 0.15380000E+02  0.55830E-04
 0.15430000E+02  0.29575E-05
 0.15480000E+02 -0.18042E-03
 0.15530001E+02  0.16790E-04
 0.15580000E+02  0.11581E-03
 0.15630000E+02  0.39899E-05
 0.15680000E+02 -0.25141E-04
 0.15730000E+02  0.16022E-04
 0.15780001E+02  0.10829E-03
 0.15830000E+02 -0.55754E-04
 0.15880000E+02 -0.17141E-03
 0.15930000E+02 -0.19158E-04
 0.15980000E+02  0.11920E-03
 0.16030001E+02  0.73378E-04
 0.16080000E+02 -0.47711E-04
 0.16130001E+02 -0.18943E-04
 0.16180000E+02 -0.77317E-04
 0.16230000E+02 -0.69371E-04
 0.16280001E+02  0.88663E-04
 0.16330000E+02  0.15865E-03
 0.16380001E+02  0.98428E-05
 0.16430000E+02 -0.34152E-04
 0.16480000E+02 -0.73943E-05
 0.16530001E+02 -0.15566E-03
 0.16580000E+02 -0.51704E-04
 0.16630001E+02  0.11052E-03
 0.16680000E+02  0.75113E-04
 0.16730000E+02  0.18388E-04
 0.16780001E+02  0.34626E-04
 0.16830000E+02 -0.60337E-04
 0.16880001E+02 -0.12572E-03
 0.16930000E+02 -0.21384E-04
 0.16980000E+02  0.19271E-04
 0.17030001E+02  0.14453E-03
 0.17080000E+02  0.16475E-03
 0.17130001E+02 -0.63091E-04
 0.17180000E+02 -0.22280E-03
 0.17230000E+02 -0.96548E-04
 0.17280001E+02  0.57470E-04
 0.17330000E+02  0.30384E-04
 0.17380001E+02  0.16353E-03
 0.17430000E+02  0.71636E-04
 0.17480000E+02 -0.73267E-04
 0.17530001E+02 -0.10435E-03
 0.17580000E+02 -0.13456E-03
 0.17630001E+02  0.86315E-04
 0.17680000E+02  0.40099E-04
 0.17730000E+02  0.46410E-04
 0.17780001E+02  0.11575E-03
 0.17830000E+02 -0.28156E-04
 0.17880001E+02 -0.92072E-04
 0.17930000E+02 -0.11075E-03
 0.17980000E+02 -0.82114E-04
 0.18030001E+02 -0.70212E-04
 0.18080000E+02  0.10162E-03
 0.18130001E+02  0.67487E-04
 0.18180000E+02  0.17790E-04
 0.18230000E+02  0.21796E-04
 0.18280001E+02 -0.61721E-03
 0.18330000E+02 -0.16415E-03
 0.18380001E+02  0.98089E-03
 0.18430000E+02 -0.28487E-03
 0.18480000E+02  0.91284E-03
 0.18530001E+02  0.26970E-02
 0.18580000E+02 -0.24844E-02
 0.18630001E+02 -0.19574E-02
 0.18680000E+02  0.16213E-02
 0.18730000E+02  0.17111E-03
 0.18780001E+02  0.39504E-03
 0.18830000E+02 -0.48691E-02
 0.18880001E+02  0.42895E-02
 0.18930000E+02  0.32993E-02
 0.18980000E+02 -0.38983E-02
 0.19030001E+02  0.68634E-02
 0.19080000E+02 -0.90100E-02
 0.19130001E+02  0.68279E-02
 0.19180000E+02 -0.40728E-02
 0.19230000E+02 -0.80730E-02
 0.19280001E+02  0.15034E-01
 0.19330000E+02 -0.23398E-01
 0.19380001E+02  0.81268E-02
 0.19430000E+02 -0.16629E-02
 0.19480000E+02 -0.94477E-02
 0.19530001E+02  0.19037E-01
 0.19580000E+02 -0.87018E-04
 0.19630001E+02  0.16587E-01
 0.19680000E+02 -0.60415E-02
 0.19730000E+02 -0.50749E-02
 0.19780001E+02  0.29405E-02
 0.19830000E+02 -0.12098E-01
 0.19880001E+02 -0.40496E-02
 0.19930000E+02  0.42729E-02
 0.19980000E+02 -0.24250E-02
 0.20030001E+02  0.74533E-02
 0.20080000E+02  0.16889E-01
 0.20130001E+02 -0.15537E-01
 0.20180000E+02  0.11084E-02
 0.20230000E+02 -0.23363E-02
 0.20280001E+02 -0.49810E-02
 0.20330000E+02  0.85732E-02
 0.20380001E+02 -0.22862E-01
 0.20430000E+02  0.26535E-02
 0.20480000E+02  0.17893E-01
 0.20530001E+02 -0.14259E-01
 0.20580000E+02  0.40919E-02
 0.20630001E+02  0.27799E-01
 0.20680000E+02 -0.76412E-02
 0.20730000E+02 -0.87251E-02
 0.20780001E+02  0.12593E-01
 0.20830000E+02 -0.28820E-01
 0.20880001E+02  0.61864E-02
 0.20930000E+02  0.35517E-02
 0.20980000E+02  0.37311E-02
 0.21030001E+02  0.26007E-01
 0.21080000E+02 -0.50352E-01
 0.21130001E+02  0.11711E-01
 0.21180000E+02  0.91306E-02
 0.21230000E+02 -0.16836E-01
 0.21280001E+02  0.25259E-01
 0.21330000E+02 -0.23935E-02
 0.21380001E+02 -0.14086E-01
 0.21430000E+02  0.22500E-01
 0.21480000E+02 -0.71383E-02
 0.21530001E+02 -0.23759E-01
 0.21580000E+02  0.32659E-01
 0.21630001E+02 -0.42928E-01
 0.21680000E+02  0.49486E-01
 0.21730000E+02  0.72546E-02
 0.21780001E+02 -0.41419E-01
 0.21830000E+02  0.37530E-01
 0.21880001E+02 -0.54828E-01
 0.21930000E+02  0.60021E-01
 0.21980000E+02 -0.34529E-01
 0.22030001E+02 -0.24116E-01
 0.22080000E+02  0.53294E-01
 0.22130001E+02 -0.57878E-01
 0.22180000E+02  0.37411E-01
 0.22230000E+02 -0.21124E-01
 0.22280001E+02  0.10765E-01
 0.22330000E+02  0.43175E-02
 0.22380001E+02 -0.21699E-02
 0.22430000E+02  0.36387E-01
 0.22480000E+02 -0.44196E-01
 0.22530001E+02  0.35593E-01
 0.22580000E+02 -0.21911E-01
 0.22630001E+02 -0.90596E-02
 0.22680000E+02  0.22860E-01
 0.22730000E+02  0.70853E-02
 0.22780001E+02 -0.96637E-02
 0.22830000E+02 -0.40307E-01
 0.22880001E+02  0.17730E-01
 0.22930000E+02 -0.27479E-01
 0.22980000E+02  0.26879E-01
 0.23030001E+02  0.49864E-02
 0.23080000E+02  0.86224E-02
 0.23130001E+02  0.36440E-01
 0.23180000E+02 -0.27050E-01
 0.23230000E+02  0.29921E-02
 0.23280001E+02  0.20606E-04
 0.23330000E+02  0.24987E-02
 0.23380001E+02 -0.89782E-02
 0.23430000E+02  0.36722E-02
 0.23480000E+02 -0.18994E-01
 0.23530001E+02 -0.52343E-02
 0.23580000E+02 -0.48779E-02
 0.23630001E+02 -0.22540E-01
 0.23680000E+02  0.38544E-01
 0.23730000E+02 -0.20363E-01
 0.23780001E+02 -0.40678E-02
 0.23830000E+02  0.30964E-01
 0.23880001E+02 -0.24880E-01
 0.23930000E+02  0.19714E-01
 0.23980000E+02  0.18075E-01
 0.24030001E+02 -0.89541E-02
 0.24080000E+02  0.12081E-01
 0.24130001E+02 -0.18818E-01
 0.24180000E+02  0.26269E-02
 0.24230000E+02 -0.65660E-02
 0.24280001E+02 -0.19695E-02
 0.24330000E+02  0.18175E-01
 0.24380001E+02 -0.33951E-01
 0.24430000E+02  0.57305E-02
 0.24480000E+02  0.18617E-01
 0.24530001E+02  0.51563E-02
 0.24580000E+02 -0.18596E-02
 0.24630001E+02 -0.19348E-01
 0.24680000E+02  0.50989E-02
 0.24730000E+02  0.19020E-01
 0.24780001E+02 -0.14441E-01
 0.24830000E+02 -0.22224E-02
 0.24880001E+02  0.20014E-01
 0.24930000E+02 -0.11584E-01
 0.24980000E+02  0.11244E-01
 0.25030001E+02 -0.25917E-01
 0.25080000E+02 -0.15935E-01
 0.25130001E+02  0.11539E-01
 0.25180000E+02 -0.12108E-01
 0.25230000E+02  0.33379E-01
 0.25280001E+02 -0.12666E-01
 0.25330000E+02 -0.75466E-02
 0.25380001E+02  0.83876E-02
 0.25430000E+02 -0.88014E-02
 0.25480000E+02  0.22679E-01
 0.25530001E+02 -0.73763E-02
 0.25580000E+02  0.58401E-02
 0.25630001E+02 -0.16773E-01
 0.25680000E+02  0.13602E-01
 0.25730000E+02  0.27672E-01
 0.25780001E+02 -0.18961E-01
 0.25830000E+02  0.11787E-01
 0.25880001E+02 -0.18324E-01
 0.25930000E+02 -0.10871E-01
 0.25980000E+02 -0.24124E-02
 0.26030001E+02 -0.80305E-02
 0.26080000E+02 -0.45856E-03
 0.26130001E+02  0.13436E-02
 0.26180000E+02  0.24699E-02
 0.26230000E+02 -0.19625E-02
 0.26280001E+02  0.89063E-02
 0.26330000E+02 -0.12730E-01
 0.26380001E+02  0.23424E-01
 0.26430000E+02  0.14305E-01
 0.26480000E+02 -0.34775E-01
 0.26530001E+02  0.26084E-01
 0.26580000E+02 -0.11982E-01
 0.26630001E+02  0.79255E-02
 0.26680000E+02  0.29046E-01
 0.26730000E+02 -0.53386E-01
 0.26780001E+02  0.38071E-01
 0.26830000E+02 -0.24430E-01
 0.26880001E+02 -0.12427E-01
 0.26930000E+02  0.44389E-01
 0.26980000E+02 -0.60710E-01
 0.27030001E+02  0.35180E-01
 0.27080000E+02  0.14745E-02
 0.27130001E+02 -0.24251E-01
 0.27180000E+02  0.17980E-01
 0.27230000E+02 -0.35868E-02
 0.27280001E+02  0.19707E-01
 0.27330000E+02 -0.47963E-01
 0.27380001E+02  0.15535E-01
 0.27430000E+02  0.41620E-01
 0.27480000E+02 -0.23032E-01
 0.27530001E+02  0.27353E-01
 0.27580000E+02 -0.18578E-01
 0.27630001E+02 -0.30955E-01
 0.27680000E+02  0.30230E-02
 0.27730000E+02 -0.14456E-01
 0.27780001E+02  0.10718E-01
 0.27830000E+02  0.36637E-02
 0.27880001E+02  0.13498E-01
 0.27930000E+02  0.16943E-01
 0.27980000E+02  0.30008E-02
 0.28030001E+02 -0.11310E-01
 0.28080000E+02 -0.67888E-02
 0.28130001E+02 -0.38244E-04
 0.28180000E+02  0.45125E-02
 0.28230000E+02  0.61782E-01
 0.28280001E+02 -0.57961E-01
 0.28330000E+02 -0.12803E-01
 0.28380001E+02  0.27810E-01
 0.28430000E+02 -0.56919E-01
 0.28480000E+02  0.53683E-01
 0.28530001E+02 -0.20205E-01
 0.28580000E+02 -0.69844E-02
 0.28630001E+02  0.44900E-01
 0.28680000E+02 -0.13931E-01
 0.28730000E+02 -0.15069E-01
 0.28780001E+02 -0.23978E-01
 0.28830000E+02  0.88620E-03
 0.28880001E+02  0.16724E-01
 0.28930000E+02  0.14682E-01
 0.28980000E+02 -0.17345E-01
 0.29030001E+02 -0.19326E-01
 0.29080000E+02 -0.44280E-02
 0.29130001E+02 -0.10707E-01
 0.29180000E+02 -0.86420E-02
 0.29230000E+02  0.24368E-01
 0.29280001E+02  0.27993E-01
 0.29330000E+02  0.40975E-01
 0.29380001E+02 -0.12309E-01
 0.29430000E+02 -0.25710E-01
 0.29480000E+02  0.10919E-01
 0.29530001E+02 -0.59964E-01
 0.29580000E+02  0.28449E-01
 0.29630001E+02  0.11516E-01
 0.29680000E+02 -0.27843E-01
 0.29730000E+02  0.24915E-01
 0.29780001E+02 -0.28860E-02
 0.29830000E+02  0.33121E-02
 0.29880001E+02  0.12349E-01
 0.29930000E+02  0.16688E-01
 0.29980000E+02 -0.22487E-01
 0.30030001E+02 -0.18289E-01
 0.30080000E+02 -0.41994E-02
 0.30130001E+02  0.91753E-02
 0.30180000E+02  0.15701E-01
 0.30230000E+02  0.19019E-01
 0.30280001E+02 -0.12671E-01
 0.30330000E+02  0.17546E-01
 0.30380001E+02 -0.17031E-01
 0.30430000E+02 -0.68773E-02
 0.30480000E+02  0.34993E-01
 0.30530001E+02 -0.84531E-01
 0.30580000E+02  0.34881E-01
 0.30630001E+02  0.11759E-01
 0.30680000E+02 -0.26273E-01
 0.30730000E+02 -0.14856E-01
 0.30780001E+02 -0.16249E-01
 0.30830000E+02  0.49237E-01
 0.30880001E+02 -0.23366E-01
 0.30930000E+02  0.38184E-01
 0.30980000E+02 -0.68916E-02
 0.31030001E+02 -0.47372E-02
 0.31080000E+02  0.35590E-01
 0.31130001E+02 -0.33236E-01
 0.31180000E+02  0.29440E-01
 0.31230000E+02  0.96474E-02
 0.31280001E+02 -0.16122E-01
 0.31330000E+02  0.10792E-01
 0.31380001E+02 -0.31375E-01
 0.31430000E+02 -0.26319E-01
 0.31480000E+02 -0.17784E-01
 0.31530001E+02  0.23683E-01
 0.31580000E+02  0.38770E-01
 0.31630001E+02 -0.25350E-01
 0.31680000E+02  0.39964E-01
 0.31730000E+02 -0.25778E-01
 0.31780001E+02 -0.37484E-01
 0.31830000E+02  0.14278E-01
 0.31880001E+02 -0.37645E-01
 0.31930000E+02  0.59453E-01
 0.31980000E+02 -0.21211E-02
 0.32029999E+02 -0.23472E-01
 0.32080002E+02  0.45673E-01
 0.32130001E+02 -0.19713E-01
 0.32180000E+02  0.20544E-02
 0.32230000E+02 -0.11750E-01
 0.32279999E+02 -0.55563E-01
 0.32330002E+02  0.33028E-01
 0.32380001E+02  0.33677E-01
 0.32430000E+02  0.17243E-02
 0.32480000E+02  0.33154E-01
 0.32529999E+02 -0.24695E-01
 0.32580002E+02 -0.49148E-01
 0.32630001E+02 -0.46913E-01
 0.32680000E+02  0.40952E-01
 0.32730000E+02 -0.47672E-02
 0.32779999E+02 -0.40748E-01
 0.32830002E+02  0.76303E-01
 0.32880001E+02  0.51344E-01
 0.32930000E+02  0.44242E-01
 0.32980000E+02 -0.69670E-01
 0.33029999E+02 -0.26547E-01
 0.33080002E+02 -0.17558E-01
 0.33130001E+02  0.20974E-01
 0.33180000E+02  0.62266E-01
 0.33230000E+02 -0.76956E-01
 0.33279999E+02  0.62862E-01
 0.33330002E+02 -0.92858E-01
 0.33380001E+02 -0.58579E-01
 0.33430000E+02  0.51777E-01
 0.33480000E+02 -0.42087E-01
 0.33529999E+02  0.17357E+00
 0.33580002E+02  0.32087E-01
 0.33630001E+02 -0.20248E-01
 0.33680000E+02  0.98380E-01
 0.33730000E+02 -0.83708E-01
 0.33779999E+02 -0.14196E+00
 0.33830002E+02 -0.59089E-01
 0.33880001E+02 -0.30038E-01
 0.33930000E+02 -0.46537E-01
 0.33980000E+02  0.12162E+00
 0.34029999E+02  0.94547E-01
 0.34080002E+02 -0.20925E-01
 0.34130001E+02  0.35115E-01
 0.34180000E+02 -0.83930E-01
 0.34230000E+02  0.31623E-01
 0.34279999E+02 -0.25687E-01
 0.34330002E+02 -0.11997E+00
 0.34380001E+02  0.97205E-01
 0.34430000E+02 -0.53901E-02
 0.34480000E+02  0.75167E-02
 0.34529999E+02  0.99832E-01
 0.34580002E+02  0.75592E-01
 0.34630001E+02  0.10576E+00
 0.34680000E+02  0.45498E-02
 0.34730000E+02 -0.14909E+00
 0.34779999E+02 -0.20308E+00
 0.34830002E+02 -0.12723E+00
 0.34880001E+02 -0.79941E-01
 0.34930000E+02  0.18737E+00
 0.34980000E+02  0.20449E+00
 0.35029999E+02 -0.90361E-01
 0.35080002E+02  0.10056E+00
 0.35130001E+02  0.38284E-01
 0.35180000E+02 -0.66662E-01
 0.35230000E+02 -0.12405E-01
 0.35279999E+02 -0.25629E-01
 0.35330002E+02  0.89388E-01
 0.35380001E+02 -0.10872E+00
 0.35430000E+02 -0.10278E+00
 0.35480000E+02  0.14809E-02
 0.35529999E+02 -0.90704E-02
 0.35580002E+02  0.62946E-01
 0.35630001E+02  0.76242E-01
 0.35680000E+02  0.84351E-01
 0.35730000E+02 -0.30832E-01
 0.35779999E+02  0.11818E-01
 0.35830002E+02 -0.10332E-01
 0.35880001E+02 -0.20060E+00
 0.35930000E+02 -0.14463E+00
 0.35980000E+02  0.65970E-02
 0.36029999E+02  0.12709E+00
 0.36080002E+02  0.15014E+00
 0.36130001E+02  0.71134E-01
 0.36180000E+02  0.47069E-01
 0.36230000E+02 -0.34556E-01
 0.36279999E+02 -0.13911E+00
 0.36330002E+02 -0.13224E-02
 0.36380001E+02  0.26446E-01
 0.36430000E+02 -0.47000E-02
 0.36480000E+02  0.25484E-01
 0.36529999E+02 -0.75396E-01
 0.36580002E+02 -0.17963E-01
 0.36630001E+02  0.11783E+00
 0.36680000E+02  0.16645E+00
 0.36730000E+02 -0.43704E-01
 0.36779999E+02 -0.13735E+00
 0.36830002E+02 -0.36560E-01
 0.36880001E+02 -0.30558E-02
 0.36930000E+02  0.40212E-02
 0.36980000E+02 -0.18281E-01
 0.37029999E+02  0.98436E-01
 0.37080002E+02 -0.53157E-01
 0.37130001E+02 -0.92877E-01
 0.37180000E+02  0.37506E-01
 0.37230000E+02  0.91541E-02
 0.37279999E+02  0.13963E-01
 0.37330002E+02  0.15240E-01
 0.37380001E+02  0.13298E-01
 0.37430000E+02 -0.70038E-01
 0.37480000E+02  0.54343E-01
 0.37529999E+02  0.80061E-01
 0.37580002E+02 -0.59953E-01
 0.37630001E+02 -0.13844E-01
 0.37680000E+02 -0.36877E-01
 0.37730000E+02 -0.32620E-01
 0.37779999E+02  0.75535E-01
 0.37830002E+02 -0.82078E-02
 0.37880001E+02 -0.10631E+00
 0.37930000E+02 -0.43808E-01
 0.37980000E+02  0.46370E-01
 0.38029999E+02  0.94248E-01
 0.38080002E+02 -0.50293E-03
 0.38130001E+02  0.28960E-01
 0.38180000E+02  0.57265E-01
 0.38230000E+02 -0.74163E-02
 0.38279999E+02  0.10260E-01
 0.38330002E+02 -0.24075E-01
 0.38380001E+02 -0.11624E-01
 0.38430000E+02 -0.53253E-01
 0.38480000E+02 -0.19873E-01
 0.38529999E+02  0.76084E-01
 0.38580002E+02  0.21991E-01
 0.38630001E+02 -0.46323E-01
 0.38680000E+02 -0.93373E-01
 0.38730000E+02  0.26195E-01
 0.38779999E+02  0.52597E-01
 0.38830002E+02  0.12550E-01
 0.38880001E+02  0.35062E-01
 0.38930000E+02 -0.25137E-01
 0.38980000E+02 -0.29177E-01
 0.39029999E+02 -0.40792E-01
 0.39080002E+02  0.68257E-02
 0.39130001E+02 -0.14716E-01
 0.39180000E+02 -0.55727E-01
 0.39230000E+02  0.59127E-03
 0.39279999E+02  0.30765E-01
 0.39330002E+02  0.12642E+00
 0.39380001E+02  0.12973E+00
 0.39430000E+02 -0.62215E-01
 0.39480000E+02 -0.12581E+00
 0.39529999E+02 -0.43138E-01
 0.39580002E+02 -0.13557E-01
 0.39630001E+02  0.20934E-01
 0.39680000E+02 -0.16426E-01
 0.39730000E+02  0.52986E-01
 0.39779999E+02  0.64994E-01
 0.39830002E+02 -0.60527E-01
 0.39880001E+02 -0.57743E-01
 0.39930000E+02 -0.27636E-01
 0.39980000E+02  0.28283E-01
 0.40029999E+02  0.47301E-01
 0.40080002E+02  0.11280E-01
 0.40130001E+02 -0.17110E-01
 0.40180000E+02  0.64716E-01
 0.40230000E+02  0.20347E-01
 0.40279999E+02 -0.83492E-01
 0.40330002E+02  0.11423E-02
 0.40380001E+02  0.19124E-01
 0.40430000E+02 -0.23948E-01
 0.40480000E+02 -0.21358E-01
 0.40529999E+02  0.42274E-01
 0.40580002E+02  0.52066E-01
 0.40630001E+02 -0.20047E-01
 0.40680000E+02 -0.50163E-02
 0.40730000E+02  0.42657E-01
 0.40779999E+02  0.11982E-01
 0.40830002E+02 -0.20170E-01
 0.40880001E+02 -0.56114E-01
 0.40930000E+02 -0.85458E-01
 0.40980000E+02 -0.11521E-01
 0.41029999E+02  0.46770E-01
 0.41080002E+02  0.36829E-01
 0.41130001E+02  0.12485E-01
 0.41180000E+02 -0.14342E-01
 0.41230000E+02  0.22218E-01
 0.41279999E+02 -0.21614E-01
 0.41330002E+02 -0.70531E-01
 0.41380001E+02 -0.16727E-01
 0.41430000E+02  0.23683E-02
 0.41480000E+02  0.23058E-01
 0.41529999E+02 -0.55195E-02
 0.41580002E+02  0.31634E-01
 0.41630001E+02  0.65460E-01
 0.41680000E+02  0.14414E-01
 0.41730000E+02  0.97800E-02
 0.41779999E+02 -0.43298E-01
 0.41830002E+02 -0.23448E-01
 0.41880001E+02  0.54649E-01
 0.41930000E+02  0.83092E-01
 0.41980000E+02  0.90243E-01
 0.42029999E+02  0.13124E-01
 0.42080002E+02 -0.11840E+00
 0.42130001E+02 -0.12838E+00
 0.42180000E+02 -0.42044E-01
 0.42230000E+02 -0.27733E-01
 0.42279999E+02  0.32414E-02
 0.42330002E+02  0.24187E-02
 0.42380001E+02 -0.38677E-02
 0.42430000E+02  0.38163E-01
 0.42480000E+02 -0.11613E-01
 0.42529999E+02  0.43488E-02
 0.42580002E+02  0.66078E-01
 0.42630001E+02 -0.22053E-01
 0.42680000E+02 -0.68051E-01
 0.42730000E+02  0.43803E-01
 0.42779999E+02  0.51741E-01
 0.42830002E+02 -0.10425E-01
 0.42880001E+02  0.36387E-02
 0.42930000E+02 -0.28980E-01
 0.42980000E+02 -0.12831E-01
 0.43029999E+02  0.41587E-01
 0.43080002E+02  0.32340E-01
 0.43130001E+02  0.36236E-01
 0.43180000E+02  0.35724E-01
 0.43230000E+02  0.26575E-01
 0.43279999E+02 -0.62384E-02
 0.43330002E+02 -0.51995E-01
 0.43380001E+02 -0.33318E-01
 0.43430000E+02 -0.18356E-02
 0.43480000E+02 -0.36024E-01
 0.43529999E+02 -0.46276E-01
 0.43580002E+02 -0.11183E-01
 0.43630001E+02  0.76320E-02
 0.43680000E+02  0.28525E-01
 0.43730000E+02  0.17351E-01
 0.43779999E+02 -0.20171E-01
 0.43830002E+02 -0.26626E-01
 0.43880001E+02 -0.54281E-01
 0.43930000E+02 -0.83166E-01
 0.43980000E+02 -0.12503E-01
 0.44029999E+02  0.49629E-01
 0.44080002E+02  0.73276E-01
 0.44130001E+02  0.84736E-01
 0.44180000E+02  0.18075E-01
 0.44230000E+02 -0.46228E-01
 0.44279999E+02 -0.25050E-01
 0.44330002E+02  0.96168E-02
 0.44380001E+02  0.45316E-01
 0.44430000E+02  0.11815E+00
 0.44480000E+02  0.99365E-01
 0.44529999E+02  0.54547E-01
 0.44580002E+02 -0.18821E-01
 0.44630001E+02 -0.12604E+00
 0.44680000E+02 -0.13173E+00
 0.44730000E+02 -0.12612E+00
 0.44779999E+02 -0.37894E-01
 0.44830002E+02  0.45884E-01
 0.44880001E+02  0.43881E-01
 0.44930000E+02  0.50627E-01
 0.44980000E+02 -0.17906E-01
 0.45030003E+02 -0.56684E-01
 0.45080002E+02  0.45300E-02
 0.45130001E+02  0.35298E-01
 0.45180000E+02  0.78763E-02
 0.45230000E+02 -0.18617E-02
 0.45280003E+02  0.20629E-01
 0.45330002E+02  0.20511E-01
 0.45380001E+02  0.14569E-01
 0.45430000E+02  0.15442E-01
 0.45480000E+02 -0.19564E-01
 0.45530003E+02 -0.53329E-02
 0.45580002E+02  0.24682E-01
 0.45630001E+02 -0.11908E-01
 0.45680000E+02 -0.18100E-01
 0.45730000E+02 -0.83170E-02
 0.45780003E+02 -0.55063E-02
 0.45830002E+02 -0.12262E-02
 0.45880001E+02  0.17466E-01
 0.45930000E+02  0.30485E-01
 0.45980000E+02  0.23317E-01
 0.46030003E+02  0.66655E-02
 0.46080002E+02 -0.12656E-01
 0.46130001E+02  0.20034E-02
 0.46180000E+02 -0.88550E-02
 0.46230000E+02 -0.19635E-01
 0.46280003E+02 -0.26736E-01
 0.46330002E+02 -0.25720E-01
 0.46380001E+02  0.13301E-03
 0.46430000E+02 -0.11629E-01
 0.46480000E+02  0.71166E-02
 0.46530003E+02  0.10863E-01
 0.46580002E+02 -0.66066E-03
 0.46630001E+02  0.28805E-02
 0.46680000E+02 -0.30964E-01
 0.46730000E+02  0.99682E-02
 0.46780003E+02  0.20282E-01
 0.46830002E+02 -0.25027E-01
 0.46880001E+02 -0.10612E-01
 0.46930000E+02  0.37454E-01
 0.46980000E+02  0.90087E-01
 0.47030003E+02  0.22752E-01
 0.47080002E+02 -0.30016E-01
 0.47130001E+02  0.82836E-03
 0.47180000E+02  0.12446E-01
 0.47230000E+02  0.77538E-02
 0.47280003E+02 -0.38165E-01
 0.47330002E+02 -0.46244E-01
 0.47380001E+02 -0.53092E-01
 0.47430000E+02 -0.37349E-01
 0.47480000E+02  0.25500E-01
 0.47530003E+02  0.33058E-01
 0.47580002E+02  0.19306E-01
 0.47630001E+02 -0.46803E-02
 0.47680000E+02 -0.64423E-03
 0.47730000E+02  0.78328E-02
 0.47780003E+02  0.97322E-02
 0.47830002E+02 -0.52544E-02
 0.47880001E+02 -0.25526E-01
 0.47930000E+02  0.15129E-01
 0.47980000E+02  0.14622E-01
 0.48030003E+02  0.15430E-01
 0.48080002E+02  0.19322E-01
 0.48130001E+02 -0.37569E-02
 0.48180000E+02  0.38463E-02
 0.48230000E+02 -0.30995E-02
 0.48280003E+02 -0.44008E-02
 0.48330002E+02 -0.20047E-01
 0.48380001E+02 -0.47126E-01
 0.48430000E+02 -0.23421E-01
 0.48480000E+02  0.22832E-01
 0.48530003E+02  0.26373E-01
 0.48580002E+02 -0.16620E-02
 0.48630001E+02 -0.58836E-03
 0.48680000E+02  0.86835E-02
 0.48730000E+02  0.18829E-01
 0.48780003E+02  0.32220E-02
 0.48830002E+02 -0.28922E-02
 0.48880001E+02 -0.10829E-01
 0.48930000E+02 -0.26400E-01
 0.48980000E+02  0.35110E-01
 0.49030003E+02  0.37942E-01
 0.49080002E+02 -0.28155E-02
 0.49130001E+02 -0.35622E-01
 0.49180000E+02 -0.55856E-01
 0.49230000E+02 -0.11097E-01
 0.49280003E+02  0.18904E-01
 0.49330002E+02  0.16247E-01
 0.49380001E+02  0.49309E-02
 0.49430000E+02  0.21662E-01
 0.49480000E+02  0.21079E-01
 0.49530003E+02 -0.23751E-02
 0.49580002E+02 -0.57655E-02
 0.49630001E+02  0.12643E-02
 0.49680000E+02  0.21775E-02
 0.49730000E+02 -0.11475E-01
 0.49780003E+02 -0.84748E-02
 0.49830002E+02 -0.10681E-01
 0.49880001E+02  0.10606E-01
 0.49930000E+02  0.54502E-02
 0.49980000E+02 -0.19451E-01
 0.50030003E+02 -0.73451E-02
 0.50080002E+02 -0.88020E-03
 0.50130001E+02  0.20758E-01
 0.50180000E+02  0.15313E-01
 0.50230000E+02  0.92673E-02
 0.50280003E+02  0.72622E-02
 0.50330002E+02 -0.33222E-02
 0.50380001E+02 -0.16115E-01
 0.50430000E+02 -0.28843E-01
 0.50480000E+02  0.96618E-02
 0.50530003E+02  0.64005E-02
 0.50580002E+02 -0.25744E-01
 0.50630001E+02 -0.11765E-01
 0.50680000E+02  0.80604E-02
 0.50730000E+02  0.14800E-01
 0.50780003E+02  0.91516E-02
 0.50830002E+02  0.10442E-01
 0.50880001E+02  0.12309E-01
 0.50930000E+02  0.24576E-01
 0.50980000E+02  0.22241E-01
 0.51030003E+02  0.22348E-02
 0.51080002E+02  0.15119E-02
 0.51130001E+02 -0.20659E-01
 0.51180000E+02 -0.37230E-01
 0.51230000E+02 -0.34557E-01
 0.51280003E+02 -0.22010E-01
 0.51330002E+02 -0.10294E-01
 0.51380001E+02  0.91372E-02
 0.51430000E+02  0.17571E-01
 0.51480000E+02 -0.57764E-02
 0.51530003E+02  0.11966E-01
 0.51580002E+02  0.23007E-01
 0.51630001E+02  0.16376E-01
 0.51680000E+02  0.94296E-02
 0.51730000E+02 -0.29389E-02
 0.51780003E+02  0.26947E-02
 0.51830002E+02  0.53358E-02
 0.51880001E+02  0.78248E-02
 0.51930000E+02 -0.78822E-02
 0.51980000E+02 -0.12402E-01
 0.52030003E+02  0.27846E-02
 0.52080002E+02 -0.31278E-02
 0.52130001E+02 -0.25125E-02
 0.52180000E+02  0.60772E-02
 0.52230000E+02  0.44294E-03
 0.52280003E+02 -0.27852E-01
 0.52330002E+02 -0.27403E-01
 0.52380001E+02 -0.21513E-02
 0.52430000E+02  0.54124E-02
 0.52480000E+02  0.19139E-01
 0.52530003E+02  0.18338E-02
 0.52580002E+02 -0.15023E-01
 0.52630001E+02 -0.47182E-02
 0.52680000E+02  0.11073E-01
 0.52730000E+02  0.22441E-01
 0.52780003E+02 -0.30586E-02
 0.52830002E+02 -0.42943E-02
 0.52880001E+02  0.10804E-01
 0.52930000E+02  0.59409E-02
 0.52980000E+02  0.72449E-02
 0.53030003E+02  0.65702E-04
 0.53080002E+02  0.37010E-02
 0.53130001E+02  0.59740E-02
 0.53180000E+02 -0.58037E-02
 0.53230000E+02 -0.94662E-02
 0.53280003E+02 -0.22803E-03
 0.53330002E+02  0.11610E-01
 0.53380001E+02 -0.39100E-02
 0.53430000E+02 -0.10926E-02
 0.53480000E+02  0.12890E-02
 0.53530003E+02 -0.24538E-01
 0.53580002E+02 -0.15298E-01
 0.53630001E+02 -0.11957E-01
 0.53680000E+02 -0.14090E-01
 0.53730000E+02  0.17201E-02
 0.53780003E+02 -0.83802E-03
 0.53830002E+02 -0.70804E-02
 0.53880001E+02  0.81704E-02
 0.53930000E+02  0.24361E-01
 0.53980000E+02  0.13731E-01
 0.54030003E+02  0.11928E-01
 0.54080002E+02  0.10583E-01
 0.54130001E+02  0.96798E-02
 0.54180000E+02  0.13220E-01
 0.54230000E+02  0.38382E-02
 0.54280003E+02 -0.22687E-02
 0.54330002E+02 -0.11351E-01
 0.54380001E+02 -0.16003E-01
 0.54430000E+02 -0.16910E-01
 0.54480000E+02 -0.22495E-02
 0.54530003E+02 -0.75812E-03
 0.54580002E+02 -0.17162E-01
 0.54630001E+02 -0.96584E-02
 0.54680000E+02 -0.45200E-02
 0.54730000E+02 -0.39783E-02
 0.54780003E+02  0.80059E-02
 0.54830002E+02  0.51660E-02
 0.54880001E+02  0.46309E-02
 0.54930000E+02  0.15865E-01
 0.54980000E+02  0.88895E-02
 0.55030003E+02  0.12569E-01
 0.55080002E+02  0.62773E-02
 0.55130001E+02  0.28960E-02
 0.55180000E+02  0.12608E-01
 0.55230000E+02 -0.16853E-02
 0.55280003E+02 -0.45820E-02
 0.55330002E+02 -0.86067E-02
 0.55380001E+02 -0.12819E-01
 0.55430000E+02 -0.14541E-01
 0.55480000E+02 -0.66914E-02
 0.55530003E+02  0.72133E-02
 0.55580002E+02 -0.25482E-02
 0.55630001E+02 -0.26945E-02
 0.55680000E+02 -0.13003E-01
 0.55730000E+02 -0.10219E-01
 0.55780003E+02  0.67739E-02
 0.55830002E+02 -0.10166E-01
 0.55880001E+02 -0.54703E-02
 0.55930000E+02  0.18237E-01
 0.55980000E+02  0.25875E-01
 0.56030003E+02  0.13569E-01
 0.56080002E+02  0.66567E-02
 0.56130001E+02  0.59363E-02
 0.56180000E+02 -0.91627E-02
 0.56230000E+02  0.55221E-02
 0.56280003E+02  0.12281E-01
 0.56330002E+02 -0.42956E-02
 0.56380001E+02 -0.10838E-02
 0.56430000E+02 -0.92299E-02
 0.56480000E+02 -0.86355E-02
 0.56530003E+02  0.13462E-01
 0.56580002E+02  0.19023E-02
 0.56630001E+02 -0.14570E-01
 0.56680000E+02  0.21148E-03
 0.56730000E+02  0.64829E-02
 0.56780003E+02 -0.22601E-02
 0.56830002E+02 -0.95121E-02
 0.56880001E+02 -0.98474E-02
 0.56930000E+02 -0.16071E-01
 0.56980000E+02 -0.26798E-01
 0.57030003E+02 -0.17044E-01
 0.57080002E+02 -0.42585E-03
 0.57130001E+02  0.96619E-02
 0.57180000E+02  0.18905E-01
 0.57230000E+02  0.16810E-01
 0.57280003E+02  0.13189E-01
 0.57330002E+02  0.75649E-02
 0.57380001E+02 -0.38316E-02
 0.57430000E+02  0.80112E-02
 0.57480000E+02  0.85703E-02
 0.57530003E+02  0.51886E-02
 0.57580002E+02  0.16616E-01
 0.57630001E+02  0.45845E-02
 0.57680000E+02 -0.86447E-02
 0.57730000E+02 -0.56921E-02
 0.57780003E+02 -0.10076E-02
 0.57830002E+02 -0.23227E-02
 0.57880001E+02 -0.11131E-01
 0.57930000E+02 -0.21473E-01
 0.57980000E+02 -0.74791E-02
 0.58030003E+02 -0.31393E-02
 0.58080002E+02 -0.85054E-02
 0.58130001E+02  0.21409E-02
 0.58180000E+02 -0.18507E-02
 0.58230000E+02  0.30914E-02
 0.58280003E+02  0.18994E-02
 0.58330002E+02 -0.20638E-02
 0.58380001E+02  0.30684E-02
 0.58430000E+02  0.51546E-02
 0.58480000E+02  0.10865E-01
 0.58530003E+02  0.60998E-02
 0.58580002E+02  0.10373E-01
 0.58630001E+02  0.10777E-01
 0.58680000E+02  0.35127E-03
 0.58730000E+02 -0.74960E-02
 0.58780003E+02 -0.86175E-02
 0.58830002E+02  0.11923E-01
 0.58880001E+02  0.11800E-01
 0.58930000E+02  0.60436E-03
 0.58980000E+02  0.48198E-02
 0.59030003E+02 -0.60036E-02
 0.59080002E+02 -0.12978E-01
 0.59130001E+02 -0.19661E-01
 0.59180000E+02 -0.29733E-01
 0.59230000E+02 -0.17683E-01
 0.59280003E+02 -0.23190E-02
 0.59330002E+02  0.88263E-03
 0.59380001E+02  0.10222E-01
 0.59430000E+02  0.19213E-01
 0.59480000E+02  0.17780E-01
 0.59530003E+02  0.64901E-02
 0.59580002E+02 -0.68590E-02
 0.59630001E+02 -0.34085E-02
 0.59680000E+02 -0.42496E-02
 0.59730000E+02 -0.72802E-03
 0.59780003E+02  0.66815E-02
 0.59830002E+02  0.51627E-02
 0.59880001E+02  0.10055E-01
 0.59930000E+02  0.12685E-01
 0.59980000E+02  0.35069E-03
 0.60030003E+02 -0.72334E-02
 0.60080002E+02  0.20635E-02
 0.60130001E+02 -0.27742E-02
 0.60180000E+02 -0.66016E-02
 0.60230000E+02 -0.39539E-02
 0.60280003E+02 -0.88774E-02
 0.60330002E+02 -0.54143E-02
 0.60380001E+02 -0.13928E-03
 0.60430000E+02 -0.56652E-02
 0.60480000E+02 -0.31617E-02
 0.60530003E+02  0.32214E-02
 0.60580002E+02 -0.13676E-02
 0.60630001E+02  0.95152E-02
 0.60680000E+02  0.12591E-01
 0.60730000E+02  0.27273E-03
 0.60780003E+02 -0.53608E-02
 0.60830002E+02 -0.95337E-02
 0.60880001E+02 -0.13375E-01
 0.60930000E+02 -0.42170E-02
 0.60980000E+02  0.13294E-01
 0.61030003E+02  0.58229E-02
 0.61080002E+02  0.48485E-02
 0.61130001E+02  0.79397E-02
 0.61180000E+02  0.33451E-02
 0.61230000E+02  0.12180E-01
 0.61280003E+02  0.85109E-02
 0.61330002E+02 -0.67617E-03
 0.61380001E+02 -0.78757E-02
 0.61430000E+02 -0.10926E-01
 0.61480000E+02 -0.22560E-02
 0.61530003E+02  0.23106E-02
 0.61580002E+02 -0.18706E-02
 0.61630001E+02 -0.39468E-02
 0.61680000E+02 -0.26986E-02
 0.61730000E+02 -0.32799E-02
 0.61780003E+02 -0.76777E-02
 0.61830002E+02 -0.49811E-02
 0.61880001E+02  0.12693E-01
 0.61930000E+02  0.17082E-01
 0.61980000E+02  0.10300E-01
 0.62030003E+02 -0.43001E-03
 0.62080002E+02 -0.14200E-01
 0.62130001E+02 -0.12330E-02
 0.62180000E+02  0.97118E-02
 0.62230000E+02  0.15410E-02
 0.62280003E+02 -0.10996E-01
 0.62330002E+02 -0.13258E-01
 0.62380001E+02 -0.39213E-02
 0.62430000E+02 -0.75627E-02
 0.62480000E+02  0.30079E-02
 0.62530003E+02  0.10497E-01
 0.62580002E+02 -0.26131E-02
 0.62630001E+02 -0.11127E-01
 0.62680000E+02 -0.44895E-02
 0.62730000E+02  0.98409E-02
 0.62780003E+02  0.91680E-02
 0.62830002E+02  0.89046E-02
 0.62880001E+02  0.25697E-02
 0.62930000E+02  0.44935E-02
 0.62980000E+02  0.95149E-02
 0.63030003E+02 -0.39463E-02
 0.63080002E+02 -0.76327E-02
 0.63130001E+02 -0.62108E-02
 0.63180000E+02  0.58350E-03
 0.63230000E+02 -0.71457E-04
 0.63280003E+02 -0.37203E-02
 0.63330002E+02  0.32505E-03
 0.63380001E+02  0.26326E-03
 0.63430000E+02  0.27096E-02
 0.63480000E+02 -0.45386E-02
 0.63530003E+02 -0.12247E-01
 0.63580002E+02 -0.53865E-02
 0.63630001E+02  0.21456E-02
 0.63680000E+02 -0.31801E-03
 0.63730000E+02  0.33236E-03
 0.63780003E+02 -0.10885E-02
 0.63830002E+02 -0.76167E-02
 0.63880001E+02 -0.37656E-02
 0.63930000E+02 -0.38503E-03
 0.63980000E+02  0.31851E-02
 0.64029999E+02  0.36650E-02
 0.64080002E+02  0.46838E-02
 0.64129997E+02  0.10302E-01
 0.64180000E+02  0.31923E-02
 0.64230003E+02  0.82372E-03
 0.64279999E+02 -0.23807E-02
 0.64330002E+02 -0.10850E-01
 0.64379997E+02 -0.49637E-03
 0.64430000E+02  0.63479E-02
 0.64480003E+02  0.26486E-02
 0.64529999E+02  0.12141E-02
 0.64580002E+02  0.67404E-02
 0.64629997E+02  0.21846E-02
 0.64680000E+02 -0.45409E-02
 0.64730003E+02  0.40279E-03
 0.64779999E+02 -0.41648E-02
 0.64830002E+02  0.11364E-02
 0.64879997E+02  0.70131E-03
 0.64930000E+02 -0.97718E-03
 0.64980003E+02  0.23208E-02
 0.65029999E+02 -0.95095E-02
 0.65080002E+02 -0.25198E-02
 0.65129997E+02  0.13502E-02
 0.65180000E+02 -0.30736E-02
 0.65230003E+02  0.64070E-02
 0.65279999E+02  0.92044E-02
 0.65330002E+02  0.84162E-02
 0.65379997E+02  0.32874E-02
 0.65430000E+02 -0.40043E-02
 0.65480003E+02  0.14173E-02
 0.65529999E+02  0.55473E-02
 0.65580002E+02  0.22140E-04
 0.65629997E+02  0.23807E-02
 0.65680000E+02  0.13033E-02
 0.65730003E+02 -0.81235E-02
 0.65779999E+02 -0.39381E-02
 0.65830002E+02 -0.45339E-02
 0.65879997E+02 -0.67366E-03
 0.65930000E+02  0.48707E-02
 0.65980003E+02  0.18204E-03
 0.66029999E+02  0.78229E-02
 0.66080002E+02  0.27307E-02
 0.66129997E+02  0.28904E-02
 0.66180000E+02  0.70995E-02
 0.66230003E+02 -0.34298E-02
 0.66279999E+02 -0.20615E-02
 0.66330002E+02 -0.32940E-02
 0.66379997E+02 -0.87221E-02
 0.66430000E+02 -0.83839E-02
 0.66480003E+02 -0.84186E-02
 0.66529999E+02 -0.10475E-01
 0.66580002E+02 -0.48172E-02
 0.66629997E+02  0.63669E-03
 0.66680000E+02  0.63243E-03
 0.66730003E+02  0.12122E-01
 0.66779999E+02  0.13824E-01
 0.66830002E+02 -0.52915E-03
 0.66879997E+02 -0.59759E-02
 0.66930000E+02 -0.55494E-02
 0.66980003E+02 -0.23304E-02
 0.67029999E+02  0.89686E-03
 0.67080002E+02 -0.19143E-02
 0.67129997E+02 -0.14983E-03
 0.67180000E+02  0.43478E-02
 0.67230003E+02  0.76479E-02
 0.67279999E+02  0.48802E-02
 0.67330002E+02 -0.72387E-02
 0.67379997E+02 -0.10331E-01
 0.67430000E+02 -0.43294E-02
 0.67480003E+02  0.78423E-02
 0.67529999E+02  0.14838E-01
 0.67580002E+02  0.63497E-03
 0.67629997E+02 -0.11062E-01
 0.67680000E+02 -0.92025E-02
 0.67730003E+02 -0.11690E-02
 0.67779999E+02  0.14283E-02
 0.67830002E+02 -0.18520E-02
 0.67879997E+02  0.35016E-02
 0.67930000E+02  0.34714E-02
 0.67980003E+02  0.24886E-02
 0.68029999E+02  0.27795E-02
 0.68080002E+02  0.37930E-02
 0.68129997E+02  0.92774E-02
 0.68180000E+02  0.23812E-02
 0.68230003E+02 -0.33726E-02
 0.68279999E+02 -0.61074E-02
 0.68330002E+02 -0.17409E-02
 0.68379997E+02  0.28259E-02
 0.68430000E+02 -0.43661E-02
 0.68480003E+02 -0.53188E-02
 0.68529999E+02 -0.69165E-02
 0.68580002E+02 -0.17465E-02
 0.68629997E+02  0.56101E-02
 0.68680000E+02 -0.11841E-02
 0.68730003E+02  0.18882E-02
 0.68779999E+02  0.10279E-01
 0.68830002E+02  0.25656E-02
 0.68879997E+02 -0.48108E-02
 0.68930000E+02 -0.62546E-02
 0.68980003E+02 -0.17330E-02
 0.69029999E+02  0.38767E-02
 0.69080002E+02  0.14755E-02
 0.69129997E+02 -0.42962E-02
 0.69180000E+02 -0.74364E-02
 0.69230003E+02  0.35276E-02
 0.69279999E+02  0.29413E-02
 0.69330002E+02 -0.43555E-03
 0.69379997E+02  0.44158E-02
 0.69430000E+02 -0.15653E-03
 0.69480003E+02  0.18985E-02
 0.69529999E+02  0.61663E-03
 0.69580002E+02 -0.65424E-03
 0.69629997E+02 -0.42801E-02
 0.69680000E+02 -0.87054E-02
 0.69730003E+02 -0.44497E-02
 0.69779999E+02 -0.51594E-03
 0.69830002E+02  0.14496E-02
 0.69879997E+02  0.11705E-02
 0.69930000E+02  0.37310E-02
 0.69980003E+02  0.59838E-03
 0.70029999E+02  0.39508E-02
 0.70080002E+02  0.70389E-02
 0.70129997E+02  0.39435E-02
 0.70180000E+02  0.79707E-02
 0.70230003E+02  0.53505E-02
 0.70279999E+02  0.34025E-02
 0.70330002E+02  0.37450E-03
 0.70380005E+02 -0.45487E-02
 0.70430000E+02  0.16858E-02
 0.70480003E+02 -0.43786E-02
 0.70529999E+02 -0.69911E-02
 0.70580002E+02  0.31432E-02
 0.70630005E+02 -0.46969E-02
 0.70680000E+02 -0.36529E-02
 0.70730003E+02  0.29137E-02
 0.70779999E+02  0.31010E-03
 0.70830002E+02  0.82957E-03
 0.70880005E+02  0.22340E-02
 0.70930000E+02  0.40521E-02
 0.70980003E+02  0.30104E-02
 0.71029999E+02  0.45852E-02
 0.71080002E+02  0.11100E-02
 0.71130005E+02 -0.25754E-02
 0.71180000E+02 -0.69355E-03
 0.71230003E+02  0.72764E-03
 0.71279999E+02  0.14762E-02
 0.71330002E+02 -0.36726E-02
 0.71380005E+02 -0.66462E-02
 0.71430000E+02 -0.73106E-02
 0.71480003E+02 -0.84682E-02
 0.71529999E+02 -0.57286E-02
 0.71580002E+02 -0.48006E-03
 0.71630005E+02  0.41757E-03
 0.71680000E+02  0.67992E-03
 0.71730003E+02  0.43937E-02
 0.71779999E+02 -0.10296E-02
 0.71830002E+02 -0.63856E-02
 0.71880005E+02 -0.34225E-02
 0.71930000E+02 -0.22114E-03
 0.71980003E+02  0.36032E-02
 0.72029999E+02  0.18866E-02
 0.72080002E+02  0.54710E-02
 0.72130005E+02  0.53213E-02
 0.72180000E+02 -0.20220E-02
 0.72230003E+02  0.44589E-02
 0.72279999E+02  0.13181E-02
 0.72330002E+02 -0.31582E-02
 0.72380005E+02  0.10557E-02
 0.72430000E+02  0.37574E-02
 0.72480003E+02  0.43340E-02
 0.72529999E+02  0.18765E-02
 0.72580002E+02 -0.11841E-02
 0.72630005E+02 -0.69655E-02
 0.72680000E+02 -0.38163E-02
 0.72730003E+02 -0.38795E-02
 0.72779999E+02 -0.38005E-02
 0.72830002E+02 -0.24932E-02
 0.72880005E+02 -0.10292E-02
 0.72930000E+02  0.45943E-02
 0.72980003E+02  0.25566E-02
 0.73029999E+02 -0.74828E-03
 0.73080002E+02 -0.60927E-02
 0.73130005E+02 -0.14948E-02
 0.73180000E+02 -0.29120E-02
 0.73230003E+02 -0.73719E-02
 0.73279999E+02 -0.81870E-03
 0.73330002E+02  0.11463E-02
 0.73380005E+02  0.69182E-02
 0.73430000E+02  0.10767E-01
 0.73480003E+02  0.85547E-02
 0.73529999E+02  0.51891E-02
 0.73580002E+02  0.42963E-02
 0.73630005E+02 -0.33162E-03
 0.73680000E+02 -0.74964E-02
 0.73730003E+02 -0.89374E-02
 0.73779999E+02 -0.10871E-02
 0.73830002E+02  0.26808E-02
 0.73880005E+02 -0.51645E-03
 0.73930000E+02  0.13004E-02
 0.73980003E+02 -0.44438E-03
 0.74029999E+02  0.49993E-02
 0.74080002E+02  0.34983E-02
 0.74130005E+02  0.11204E-02
 0.74180000E+02  0.16263E-02
 0.74230003E+02 -0.58988E-02
 0.74279999E+02  0.43472E-02
 0.74330002E+02  0.10049E-01
 0.74380005E+02  0.53026E-02
 0.74430000E+02  0.10062E-02
 0.74480003E+02 -0.15112E-02
 0.74529999E+02 -0.20734E-02
 0.74580002E+02 -0.63527E-02
 0.74630005E+02 -0.27277E-02
 0.74680000E+02 -0.10436E-02
 0.74730003E+02  0.19185E-02
 0.74779999E+02  0.74192E-02
 0.74830002E+02  0.51578E-02
 0.74880005E+02  0.20023E-02
 0.74930000E+02  0.21494E-02
 0.74980003E+02  0.57365E-02
 0.75029999E+02  0.36888E-02
 0.75080002E+02 -0.36550E-02
 0.75130005E+02 -0.11444E-01
 0.75180000E+02 -0.13634E-01
 0.75230003E+02 -0.12673E-01
 0.75279999E+02 -0.13059E-01
 0.75330002E+02 -0.11045E-01
 0.75380005E+02 -0.67487E-02
 0.75430000E+02  0.36727E-02
 0.75480003E+02  0.53104E-02
 0.75529999E+02  0.14739E-02
 0.75580002E+02  0.51012E-02
 0.75630005E+02  0.54731E-02
 0.75680000E+02  0.28060E-02
 0.75730003E+02 -0.12248E-02
 0.75779999E+02 -0.15365E-02
 0.75830002E+02  0.12279E-02
 0.75880005E+02  0.37380E-02
 0.75930000E+02  0.49748E-02
 0.75980003E+02  0.46240E-03
 0.76029999E+02 -0.12339E-02
 0.76080002E+02  0.32839E-02
 0.76130005E+02  0.68820E-02
 0.76180000E+02  0.39472E-02
 0.76230003E+02  0.12890E-02
 0.76279999E+02 -0.10106E-04
 0.76330002E+02 -0.37802E-03
 0.76380005E+02  0.12295E-02
 0.76430000E+02 -0.21156E-02
 0.76480003E+02 -0.34885E-02
 0.76529999E+02 -0.54243E-02
 0.76580002E+02 -0.52490E-02
 0.76630005E+02 -0.33718E-02
 0.76680000E+02 -0.44936E-02
 0.76730003E+02  0.16397E-03
 0.76779999E+02  0.16810E-02
 0.76830002E+02  0.19090E-02
 0.76880005E+02  0.49350E-02
 0.76930000E+02  0.57928E-02
 0.76980003E+02  0.43964E-02
 0.77029999E+02  0.16778E-02
 0.77080002E+02 -0.17321E-02
 0.77130005E+02 -0.46323E-02
 0.77180000E+02 -0.55084E-02
 0.77230003E+02 -0.66836E-02
 0.77279999E+02 -0.10431E-02
 0.77330002E+02  0.30966E-02
 0.77380005E+02  0.35684E-02
 0.77430000E+02  0.62053E-02
 0.77480003E+02  0.34843E-02
 0.77529999E+02  0.15918E-02
 0.77580002E+02  0.82242E-04
 0.77630005E+02 -0.20005E-02
 0.77680000E+02 -0.14091E-02
 0.77730003E+02 -0.23530E-02
 0.77779999E+02 -0.51905E-02
 0.77830002E+02 -0.52783E-02
 0.77880005E+02 -0.26237E-02
 0.77930000E+02  0.77078E-03
 0.77980003E+02  0.12649E-02
 0.78029999E+02  0.28755E-02
 0.78080002E+02  0.76749E-02
 0.78130005E+02  0.61801E-02
 0.78180000E+02  0.28837E-02
 0.78230003E+02 -0.21277E-02
 0.78279999E+02 -0.25686E-02
 0.78330002E+02  0.55965E-03
 0.78380005E+02 -0.84927E-04
 0.78430000E+02  0.11090E-02
 0.78480003E+02 -0.26652E-02
 0.78529999E+02 -0.28328E-02
 0.78580002E+02  0.27751E-03
 0.78630005E+02 -0.43988E-03
 0.78680000E+02  0.13552E-02
 0.78730003E+02  0.44449E-03
 0.78779999E+02  0.18848E-03
 0.78830002E+02  0.37119E-02
 0.78880005E+02  0.39536E-02
 0.78930000E+02 -0.12069E-03
 0.78980003E+02 -0.21421E-02
 0.79029999E+02  0.19287E-02
 0.79080002E+02  0.31105E-02
 0.79130005E+02  0.51084E-03
 0.79180000E+02  0.35760E-02
 0.79230003E+02  0.24845E-02
 0.79279999E+02 -0.30319E-02
 0.79330002E+02 -0.40357E-02
 0.79380005E+02 -0.70358E-02
 0.79430000E+02 -0.82716E-02
 0.79480003E+02 -0.69652E-02
 0.79529999E+02 -0.58998E-02
 0.79580002E+02 -0.22710E-02
 0.79630005E+02 -0.24990E-03
 0.79680000E+02  0.20065E-02
 0.79730003E+02  0.44845E-02
 0.79779999E+02  0.29863E-02
 0.79830002E+02  0.26753E-02
 0.79880005E+02  0.26135E-02
 0.79930000E+02  0.15823E-02
 0.79980003E+02  0.55694E-03
 0.80029999E+02  0.95213E-04
 0.80080002E+02  0.32741E-02
 0.80130005E+02  0.59117E-02
 0.80180000E+02  0.68075E-02
 0.80230003E+02  0.46938E-02
 0.80279999E+02  0.16627E-02
 0.80330002E+02 -0.16672E-03
 0.80380005E+02 -0.99221E-04
 0.80430000E+02 -0.68592E-03
 0.80480003E+02 -0.62339E-02
 0.80529999E+02 -0.66630E-02
 0.80580002E+02 -0.55635E-02
 0.80630005E+02 -0.57228E-02
 0.80680000E+02 -0.21791E-02
 0.80730003E+02 -0.53718E-03
 0.80779999E+02  0.12873E-05
 0.80830002E+02 -0.31755E-03
 0.80880005E+02  0.35409E-03
 0.80930000E+02 -0.10362E-02
 0.80980003E+02 -0.38929E-02
 0.81029999E+02 -0.15528E-02
 0.81080002E+02 -0.16116E-02
 0.81130005E+02 -0.14416E-02
 0.81180000E+02  0.46027E-03
 0.81230003E+02  0.18370E-02
 0.81279999E+02  0.30369E-02
 0.81330002E+02  0.35140E-02
 0.81380005E+02  0.63041E-02
 0.81430000E+02  0.17204E-02
 0.81480003E+02 -0.26439E-03
 0.81529999E+02  0.48989E-02
 0.81580002E+02  0.32635E-02
 0.81630005E+02  0.22173E-02
 0.81680000E+02  0.15193E-02
 0.81730003E+02 -0.94750E-03
 0.81779999E+02 -0.23322E-02
 0.81830002E+02 -0.51707E-02
 0.81880005E+02 -0.72212E-02
 0.81930000E+02 -0.56562E-02
 0.81980003E+02 -0.35134E-02
 0.82029999E+02 -0.16163E-02
 0.82080002E+02 -0.17136E-02
 0.82130005E+02 -0.27874E-02
 0.82180000E+02  0.16986E-02
 0.82230003E+02  0.21187E-02
 0.82279999E+02 -0.18672E-04
 0.82330002E+02  0.37996E-02
 0.82380005E+02  0.48371E-02
 0.82430000E+02  0.48509E-02
 0.82480003E+02  0.55725E-02
 0.82529999E+02  0.21703E-02
 0.82580002E+02 -0.28125E-03
 0.82630005E+02  0.91863E-03
 0.82680000E+02  0.23437E-02
 0.82730003E+02  0.10772E-02
 0.82779999E+02 -0.10471E-02
 0.82830002E+02 -0.20681E-02
 0.82880005E+02 -0.21911E-02
 0.82930000E+02 -0.58836E-04
 0.82980003E+02 -0.16134E-02
 0.83029999E+02 -0.73104E-03
 0.83080002E+02  0.44693E-02
 0.83130005E+02  0.36645E-02
 0.83180000E+02  0.30889E-02
 0.83230003E+02  0.39919E-02
 0.83279999E+02  0.30957E-02
 0.83330002E+02  0.24662E-02
 0.83380005E+02  0.23662E-02
 0.83430000E+02 -0.17904E-02
 0.83480003E+02 -0.51873E-02
 0.83529999E+02 -0.43862E-02
 0.83580002E+02 -0.39080E-02
 0.83630005E+02 -0.19051E-02
 0.83680000E+02 -0.21147E-02
 0.83730003E+02 -0.38867E-02
 0.83779999E+02 -0.55560E-02
 0.83830002E+02 -0.45873E-02
 0.83880005E+02 -0.13086E-02
 0.83930000E+02  0.31914E-03
 0.83980003E+02  0.12442E-02
 0.84029999E+02 -0.12545E-02
 0.84080002E+02  0.12010E-03
 0.84130005E+02 -0.27079E-03
 0.84180000E+02 -0.50401E-02
 0.84230003E+02 -0.25548E-02
 0.84279999E+02 -0.22517E-02
 0.84330002E+02 -0.28901E-03
 0.84380005E+02  0.43432E-02
 0.84430000E+02  0.27177E-02
 0.84480003E+02  0.43296E-02
 0.84529999E+02  0.77353E-02
 0.84580002E+02  0.46085E-02
 0.84630005E+02  0.21882E-02
 0.84680000E+02  0.21297E-02
 0.84730003E+02 -0.44427E-03
 0.84779999E+02  0.26862E-03
 0.84830002E+02  0.17022E-02
 0.84880005E+02 -0.43626E-03
 0.84930000E+02 -0.19593E-02
 0.84980003E+02 -0.23440E-02
 0.85029999E+02 -0.30628E-02
 0.85080002E+02 -0.46480E-03
 0.85130005E+02  0.19999E-02
 0.85180000E+02 -0.62421E-03
 0.85230003E+02 -0.21209E-02
 0.85279999E+02 -0.29010E-02
 0.85330002E+02 -0.35899E-02
 0.85380005E+02 -0.26073E-02
 0.85430000E+02 -0.16651E-02
 0.85480003E+02  0.36568E-03
 0.85529999E+02  0.89633E-03
 0.85580002E+02 -0.19282E-02
 0.85630005E+02 -0.17529E-02
 0.85680000E+02  0.59717E-04
 0.85730003E+02  0.19095E-02
 0.85779999E+02  0.34424E-02
 0.85830002E+02  0.21139E-02
 0.85880005E+02  0.20900E-02
 0.85930000E+02  0.12016E-02
 0.85980003E+02 -0.25182E-03
 0.86029999E+02  0.94971E-03
 0.86080002E+02  0.31213E-03
 0.86130005E+02 -0.18343E-02
 0.86180000E+02  0.10235E-02
 0.86230003E+02  0.28954E-02
 0.86279999E+02 -0.22999E-02
 0.86330002E+02 -0.23468E-02
 0.86380005E+02  0.18482E-02
 0.86430000E+02  0.25342E-02
 0.86480003E+02  0.29833E-02
 0.86529999E+02  0.13092E-03
 0.86580002E+02 -0.82289E-03
 0.86630005E+02  0.45397E-03
 0.86680000E+02  0.15636E-03
 0.86730003E+02  0.16168E-02
 0.86779999E+02 -0.15552E-02
 0.86830002E+02 -0.53417E-03
 0.86880005E+02  0.29673E-02
 0.86930000E+02 -0.17427E-02
 0.86980003E+02 -0.15866E-02
 0.87029999E+02  0.10044E-02
 0.87080002E+02  0.56525E-03
 0.87130005E+02  0.17137E-02
 0.87180000E+02 -0.92942E-03
 0.87230003E+02 -0.32569E-02
 0.87279999E+02 -0.50170E-03
 0.87330002E+02 -0.20483E-02
 0.87380005E+02 -0.34521E-02
 0.87430000E+02 -0.28832E-03
 0.87480003E+02  0.41337E-03
 0.87529999E+02  0.27814E-02
 0.87580002E+02  0.40151E-02
 0.87630005E+02  0.20252E-02
 0.87680000E+02  0.11572E-02
 0.87730003E+02 -0.93263E-03
 0.87779999E+02 -0.23136E-02
 0.87830002E+02 -0.49777E-02
 0.87880005E+02 -0.46823E-02
 0.87930000E+02  0.13919E-02
 0.87980003E+02  0.21202E-02
 0.88029999E+02 -0.15910E-03
 0.88080002E+02 -0.66613E-03
 0.88130005E+02 -0.72888E-03
 0.88180000E+02  0.12798E-02
 0.88230003E+02 -0.89057E-03
 0.88279999E+02 -0.28881E-02
 0.88330002E+02 -0.76797E-03
 0.88380005E+02  0.92583E-03
 0.88430000E+02  0.44020E-02
 0.88480003E+02  0.39871E-02
 0.88529999E+02  0.43651E-02
 0.88580002E+02  0.40946E-02
 0.88630005E+02  0.59260E-03
 0.88680000E+02  0.14235E-02
 0.88730003E+02  0.10866E-02
 0.88779999E+02  0.27381E-02
 0.88830002E+02  0.32398E-02
 0.88880005E+02 -0.24236E-02
 0.88930000E+02 -0.53892E-02
 0.88980003E+02 -0.44874E-02
 0.89029999E+02 -0.32855E-02
 0.89080002E+02 -0.42914E-02
 0.89130005E+02 -0.54182E-02
 0.89180000E+02 -0.27154E-02
 0.89230003E+02 -0.15734E-02
 0.89279999E+02 -0.46617E-02
 0.89330002E+02 -0.64116E-02
 0.89380005E+02 -0.32190E-02
 0.89430000E+02  0.16260E-02
 0.89480003E+02  0.28361E-02
 0.89529999E+02  0.28957E-02
 0.89580002E+02  0.21063E-02
 0.89630005E+02  0.33521E-02
 0.89680000E+02  0.56110E-02
 0.89730003E+02  0.31692E-02
 0.89779999E+02  0.24977E-02
 0.89830002E+02  0.31628E-02
 0.89880005E+02  0.35069E-02
 0.89930000E+02  0.23639E-02
 0.89980003E+02 -0.21536E-02
 0.90029999E+02 -0.37736E-02
 0.90080002E+02 -0.44386E-02
 0.90130005E+02 -0.35086E-02
 0.90180000E+02 -0.29304E-03
 0.90230003E+02  0.40685E-03
 0.90279999E+02  0.25224E-03
 0.90330002E+02 -0.76630E-03
 0.90380005E+02 -0.53535E-03
 0.90430000E+02  0.20606E-03
 0.90480003E+02  0.18663E-02
 0.90529999E+02  0.51614E-02
 0.90580002E+02  0.44650E-02
 0.90630005E+02  0.17364E-02
 0.90680000E+02 -0.72947E-03
 0.90730003E+02 -0.99509E-03
 0.90779999E+02 -0.69938E-03
 0.90830002E+02  0.30008E-03
 0.90880005E+02  0.25380E-02
 0.90930000E+02  0.42663E-03
 0.90980003E+02 -0.18833E-02
 0.91029999E+02 -0.24169E-02
 0.91080002E+02 -0.25352E-02
 0.91130005E+02 -0.15903E-02
 0.91180000E+02 -0.11644E-02
 0.91230003E+02 -0.23056E-03
 0.91279999E+02 -0.85735E-03
 0.91330002E+02 -0.56930E-03
 0.91380005E+02  0.21608E-02
 0.91430000E+02  0.17340E-03
 0.91480003E+02 -0.60403E-03
 0.91529999E+02 -0.51874E-03
 0.91580002E+02 -0.92975E-03
 0.91630005E+02  0.27706E-02
 0.91680000E+02  0.53209E-03
 0.91730003E+02 -0.14668E-02
 0.91779999E+02  0.26369E-02
 0.91830002E+02  0.43071E-02
 0.91880005E+02  0.34989E-02
 0.91930000E+02  0.21828E-02
 0.91980003E+02  0.91153E-03
 0.92029999E+02 -0.10947E-03
 0.92080002E+02  0.14175E-03
 0.92130005E+02  0.57503E-03
 0.92180000E+02  0.27508E-03
 0.92230003E+02 -0.34604E-03
 0.92279999E+02 -0.13937E-02
 0.92330002E+02 -0.22895E-02
 0.92380005E+02 -0.14955E-02
 0.92430000E+02 -0.89789E-03
 0.92480003E+02 -0.19031E-02
 0.92529999E+02 -0.20013E-02
 0.92580002E+02 -0.17300E-02
 0.92630005E+02 -0.87607E-03
 0.92680000E+02 -0.10359E-02
 0.92730003E+02 -0.28534E-02
 0.92779999E+02 -0.42935E-02
 0.92830002E+02 -0.26654E-02
 0.92880005E+02 -0.11073E-03
 0.92930000E+02 -0.83986E-03
 0.92980003E+02  0.50826E-04
 0.93029999E+02  0.62172E-03
 0.93080002E+02  0.18090E-02
 0.93130005E+02  0.34997E-02
 0.93180000E+02  0.21781E-02
 0.93230003E+02  0.86274E-03
 0.93279999E+02 -0.21749E-02
 0.93330002E+02 -0.28011E-02
 0.93380005E+02 -0.32128E-02
 0.93430000E+02 -0.27095E-02
 0.93480003E+02 -0.59648E-03
 0.93529999E+02 -0.12117E-02
 0.93580002E+02  0.74812E-03
 0.93630005E+02 -0.34192E-04
 0.93680000E+02 -0.13745E-02
 0.93730003E+02 -0.69857E-04
 0.93779999E+02 -0.29453E-03
 0.93830002E+02  0.94677E-03
 0.93880005E+02  0.70988E-03
 0.93930000E+02  0.19970E-02
 0.93980003E+02  0.55366E-02
 0.94029999E+02  0.57857E-02
 0.94080002E+02  0.56448E-02
 0.94130005E+02  0.31629E-02
 0.94180000E+02  0.25744E-03
 0.94230003E+02  0.10819E-02
 0.94279999E+02  0.11693E-02
 0.94330002E+02  0.10979E-02
 0.94380005E+02  0.20010E-02
 0.94430000E+02  0.26657E-02
 0.94480003E+02  0.29525E-02
 0.94529999E+02  0.10208E-02
 0.94580002E+02 -0.10649E-02
 0.94630005E+02 -0.21622E-02
 0.94680000E+02 -0.37014E-02
 0.94730003E+02 -0.40238E-02
 0.94779999E+02 -0.43419E-02
 0.94830002E+02 -0.38483E-02
 0.94880005E+02 -0.26984E-02
 0.94930000E+02 -0.26079E-02
 0.94980003E+02 -0.10718E-02
 0.95029999E+02  0.12213E-02
 0.95080002E+02  0.21611E-02
 0.95130005E+02  0.13049E-02
 0.95180000E+02  0.15147E-02
 0.95230003E+02  0.12294E-03
 0.95279999E+02 -0.27363E-02
 0.95330002E+02 -0.29270E-02
 0.95380005E+02 -0.33458E-02
 0.95430000E+02 -0.24074E-02
 0.95480003E+02 -0.94614E-03
 0.95529999E+02  0.12086E-02
 0.95580002E+02  0.34784E-02
 0.95630005E+02  0.34833E-02
 0.95680000E+02  0.32793E-02
 0.95730003E+02  0.21818E-02
 0.95779999E+02  0.80086E-03
 0.95830002E+02  0.25191E-03
 0.95880005E+02  0.75633E-03
 0.95930000E+02  0.34195E-03
 0.95980003E+02 -0.49037E-03
 0.96029999E+02  0.72762E-03
 0.96080002E+02  0.13347E-02
 0.96130005E+02 -0.52093E-03
 0.96180000E+02 -0.13987E-02
 0.96230003E+02 -0.92220E-03
 0.96279999E+02  0.88823E-03
 0.96330002E+02  0.38602E-02
 0.96380005E+02  0.37344E-02
 0.96430000E+02  0.22065E-02
 0.96480003E+02  0.76766E-03
 0.96529999E+02  0.60583E-03
 0.96580002E+02 -0.53902E-03
 0.96630005E+02 -0.38247E-02
 0.96680000E+02 -0.42015E-02
 0.96730003E+02 -0.37101E-02
 0.96779999E+02 -0.23862E-02
 0.96830002E+02 -0.10414E-02
 0.96880005E+02 -0.19905E-02
 0.96930000E+02 -0.18722E-02
 0.96980003E+02 -0.61247E-03
 0.97029999E+02 -0.86900E-03
 0.97080002E+02 -0.10887E-02
 0.97130005E+02 -0.82876E-03
 0.97180000E+02 -0.64770E-03
 0.97230003E+02 -0.63250E-03
 0.97279999E+02 -0.11166E-02
 0.97330002E+02 -0.73678E-03
 0.97380005E+02 -0.13368E-02
 0.97430000E+02 -0.17672E-02
 0.97480003E+02 -0.15562E-02
 0.97529999E+02 -0.12175E-02
 0.97580002E+02 -0.21414E-03
 0.97630005E+02 -0.30970E-04
 0.97680000E+02 -0.19641E-03
 0.97730003E+02  0.89778E-03
 0.97779999E+02  0.29414E-02
 0.97830002E+02  0.30028E-02
 0.97880005E+02  0.36517E-02
 0.97930000E+02  0.52462E-02
 0.97980003E+02  0.44465E-02
 0.98029999E+02  0.32463E-02
 0.98080002E+02  0.20161E-02
 0.98130005E+02  0.54287E-03
 0.98180000E+02  0.27444E-03
 0.98230003E+02  0.15484E-03
 0.98279999E+02  0.71486E-03
 0.98330002E+02  0.16061E-02
 0.98380005E+02  0.22053E-03
 0.98430000E+02  0.51035E-04
 0.98480003E+02  0.51276E-03
 0.98529999E+02 -0.15603E-02
 0.98580002E+02 -0.30033E-02
 0.98630005E+02 -0.43142E-02
 0.98680000E+02 -0.42861E-02
 0.98730003E+02 -0.30676E-02
 0.98779999E+02 -0.37614E-02
 0.98830002E+02 -0.40795E-02
 0.98880005E+02 -0.30866E-02
 0.98930000E+02 -0.85687E-03
 0.98980003E+02  0.71289E-03
 0.99029999E+02  0.23712E-02
 0.99080002E+02  0.47142E-02
 0.99130005E+02  0.56144E-02
 0.99180000E+02  0.64961E-02
 0.99230003E+02  0.40756E-02
 0.99279999E+02  0.18097E-02
 0.99330002E+02  0.19328E-02
 0.99380005E+02 -0.41742E-03
 0.99430000E+02 -0.24034E-03
 0.99480003E+02  0.82896E-03
 0.99529999E+02  0.73186E-03
 0.99580002E+02  0.98386E-03
 0.99630005E+02 -0.13672E-03
 0.99680000E+02 -0.35010E-03
 0.99730003E+02  0.34702E-03
 0.99779999E+02 -0.59922E-03
 0.99830002E+02 -0.36184E-02
 0.99880005E+02 -0.38837E-02
 0.99930000E+02 -0.27121E-02
 0.99980003E+02 -0.30990E-02
 0.10003000E+03 -0.20480E-02
 0.10008000E+03  0.96191E-03
 0.10013000E+03  0.30277E-02
 0.10018000E+03  0.19866E-02
 0.10023000E+03  0.17394E-02
 0.10028000E+03  0.55133E-03
 0.10033000E+03  0.18345E-03
 0.10038000E+03  0.14922E-02
 0.10043000E+03  0.12624E-03
 0.10048000E+03 -0.13134E-03
 0.10053000E+03 -0.17373E-02
 0.10058000E+03 -0.31966E-02
 0.10063000E+03 -0.22379E-02
 0.10068000E+03 -0.43160E-02
 0.10073000E+03 -0.58225E-02
 0.10078000E+03 -0.50376E-02
 0.10083000E+03 -0.55061E-02
 0.10088000E+03 -0.35306E-02
 0.10093000E+03 -0.12320E-02
 0.10098000E+03 -0.89369E-03
 0.10103000E+03  0.33897E-03
 0.10108000E+03 -0.67284E-04
 0.10113000E+03  0.55989E-03
 0.10118000E+03  0.24262E-02
 0.10123000E+03  0.42622E-02
 0.10128000E+03  0.58863E-02
 0.10133000E+03  0.35133E-02
 0.10138000E+03  0.21793E-02
 0.10143000E+03  0.25383E-02
 0.10148000E+03  0.15331E-02
 0.10153000E+03  0.12298E-02
 0.10158000E+03  0.88232E-03
 0.10163000E+03  0.19485E-02
 0.10168000E+03  0.39456E-02
 0.10173000E+03  0.54971E-02
 0.10178000E+03  0.55414E-02
 0.10183000E+03  0.30969E-02
 0.10188000E+03  0.17243E-02
 0.10193000E+03  0.12073E-02
 0.10198000E+03 -0.11613E-02
 0.10203000E+03 -0.25778E-02
 0.10208000E+03 -0.14716E-02
 0.10213000E+03 -0.11644E-02
 0.10218000E+03 -0.19501E-02
 0.10223000E+03 -0.25194E-02
 0.10228000E+03 -0.22717E-02
 0.10233000E+03 -0.24676E-02
 0.10238000E+03 -0.31188E-02
 0.10243000E+03 -0.22412E-02
 0.10248000E+03 -0.13492E-02
 0.10253000E+03 -0.12338E-02
 0.10258000E+03 -0.14450E-02
 0.10263000E+03 -0.19774E-02
 0.10268000E+03 -0.23092E-02
 0.10273000E+03 -0.15213E-02
 0.10278000E+03 -0.44983E-03
 0.10283000E+03 -0.52675E-03
 0.10288000E+03 -0.80425E-03
 0.10293000E+03  0.59849E-04
 0.10298000E+03  0.30704E-03
 0.10303000E+03  0.52298E-03
 0.10308000E+03  0.16977E-02
 0.10313000E+03  0.34109E-03
 0.10318000E+03 -0.27655E-03
 0.10323000E+03  0.77470E-03
 0.10328000E+03  0.88380E-04
 0.10333000E+03  0.37980E-03
 0.10338000E+03  0.10380E-02
 0.10343000E+03  0.93462E-03
 0.10348000E+03  0.20113E-02
 0.10353000E+03  0.18595E-02
 0.10358000E+03  0.11724E-02
 0.10363000E+03  0.20609E-02
 0.10368000E+03  0.12266E-02
 0.10373000E+03  0.63957E-03
 0.10378000E+03  0.70976E-03
 0.10383000E+03 -0.28715E-03
 0.10388000E+03  0.68958E-03
 0.10393000E+03  0.11785E-02
 0.10398000E+03 -0.13217E-03
 0.10403000E+03 -0.59842E-03
 0.10408000E+03 -0.89041E-03
 0.10413000E+03 -0.82894E-03
 0.10418000E+03 -0.35918E-03
 0.10423000E+03  0.42984E-03
 0.10428000E+03 -0.72377E-04
 0.10433000E+03 -0.10621E-02
 0.10438000E+03  0.40313E-03
 0.10443000E+03  0.69674E-03
 0.10448000E+03  0.74886E-03
 0.10453000E+03  0.14123E-02
 0.10458000E+03  0.14017E-02
 0.10463000E+03  0.17001E-02
 0.10468000E+03  0.88951E-05
 0.10473000E+03 -0.42171E-03
 0.10478000E+03  0.37375E-04
 0.10483000E+03 -0.88369E-03
 0.10488000E+03 -0.12952E-02
 0.10493000E+03 -0.34679E-02
 0.10498000E+03 -0.42786E-02
 0.10503000E+03 -0.45967E-02
 0.10508000E+03 -0.52205E-02
 0.10513000E+03 -0.24945E-02
 0.10518000E+03 -0.58867E-03
 0.10523000E+03  0.75553E-03
 0.10528000E+03  0.48434E-03
 0.10533000E+03  0.37783E-03
 0.10538000E+03  0.18797E-02
 0.10543000E+03  0.17051E-02
 0.10548000E+03  0.18423E-02
 0.10553000E+03  0.85517E-03
 0.10558000E+03  0.81187E-03
 0.10563000E+03  0.15452E-02
 0.10568000E+03  0.12703E-02
 0.10573000E+03  0.13196E-03
 0.10578000E+03 -0.13138E-02
 0.10583000E+03 -0.13614E-02
 0.10588000E+03 -0.26144E-02
 0.10593000E+03 -0.27268E-02
 0.10598000E+03 -0.11528E-02
 0.10603000E+03 -0.55803E-03
 0.10608000E+03  0.90537E-03
 0.10613000E+03  0.20920E-02
 0.10618000E+03  0.18344E-02
 0.10623000E+03  0.19061E-02
 0.10628000E+03  0.15360E-02
 0.10633000E+03  0.10334E-02
 0.10638000E+03  0.28110E-03
 0.10643000E+03  0.27782E-03
 0.10648000E+03  0.15498E-02
 0.10653000E+03  0.18475E-02
 0.10658000E+03  0.24590E-02
 0.10663000E+03  0.24727E-02
 0.10668000E+03  0.17829E-02
 0.10673000E+03  0.14099E-02
 0.10678000E+03  0.85599E-03
 0.10683000E+03  0.96360E-03
 0.10688000E+03  0.78545E-03
 0.10693000E+03  0.39358E-03
 0.10698000E+03 -0.44898E-03
 0.10703000E+03 -0.97194E-03
 0.10708000E+03 -0.10409E-02
 0.10713000E+03 -0.20255E-02
 0.10718000E+03 -0.20709E-02
 0.10723000E+03 -0.23515E-02
 0.10728000E+03 -0.15703E-02
 0.10733000E+03  0.23957E-03
 0.10738000E+03  0.11311E-02
 0.10743000E+03  0.13192E-02
 0.10748000E+03  0.65293E-03
 0.10753000E+03  0.14211E-02
 0.10758000E+03  0.87070E-03
 0.10763000E+03  0.11196E-03
 0.10768000E+03 -0.63548E-03
 0.10773000E+03 -0.22353E-02
 0.10778000E+03 -0.17704E-02
 0.10783000E+03 -0.29249E-02
 0.10788000E+03 -0.38594E-02
 0.10793000E+03 -0.34268E-02
 0.10798000E+03 -0.28909E-02
 0.10803000E+03 -0.15874E-02
 0.10808000E+03 -0.92424E-03
 0.10813000E+03 -0.45995E-04
 0.10818000E+03  0.34002E-03
 0.10823000E+03  0.10733E-02
 0.10828000E+03  0.59736E-03
 0.10833000E+03 -0.66988E-03
 0.10838000E+03  0.41605E-03
 0.10843000E+03  0.10977E-02
 0.10848000E+03  0.19318E-02
 0.10853000E+03  0.28935E-02
 0.10858000E+03  0.27406E-02
 0.10863000E+03  0.30081E-02
 0.10868000E+03  0.33689E-02
 0.10873000E+03  0.30704E-02
 0.10878000E+03  0.19533E-02
 0.10883000E+03 -0.22209E-03
 0.10888000E+03 -0.92791E-03
 0.10893000E+03  0.89250E-04
 0.10898000E+03 -0.45381E-03
 0.10903000E+03 -0.11313E-02
 0.10908000E+03 -0.14767E-02
 0.10913000E+03 -0.19733E-02
 0.10918000E+03 -0.27786E-02
 0.10923000E+03 -0.34319E-02
 0.10928000E+03 -0.32208E-02
 0.10933000E+03 -0.34199E-02
 0.10938000E+03 -0.29967E-02
 0.10943000E+03 -0.27719E-02
 0.10948000E+03 -0.15450E-02
 0.10953000E+03  0.70337E-03
 0.10958000E+03  0.15386E-02
 0.10963000E+03  0.17138E-02
 0.10968000E+03  0.17276E-02
 0.10973000E+03  0.25901E-02
 0.10978000E+03  0.32803E-02
 0.10983000E+03  0.25827E-02
 0.10988000E+03  0.26087E-02
 0.10993000E+03  0.34455E-02
 0.10998000E+03  0.29648E-02
 0.11003000E+03  0.22225E-02
 0.11008000E+03  0.89445E-03
 0.11013000E+03  0.34288E-04
 0.11018000E+03  0.69610E-03
 0.11023000E+03  0.76057E-03
 0.11028000E+03  0.39759E-03
 0.11033000E+03 -0.53122E-03
 0.11038000E+03 -0.12540E-02
 0.11043000E+03 -0.24637E-02
 0.11048000E+03 -0.35173E-02
 0.11053000E+03 -0.28472E-02
 0.11058000E+03 -0.28621E-02
 0.11063000E+03 -0.29700E-02
 0.11068000E+03 -0.13475E-02
 0.11073000E+03  0.10722E-03
 0.11078000E+03  0.60258E-03
 0.11083000E+03  0.14856E-02
 0.11088000E+03  0.19120E-02
 0.11093000E+03  0.12224E-02
 0.11098000E+03  0.17377E-02
 0.11103000E+03  0.24751E-02
 0.11108000E+03  0.16822E-02
 0.11113000E+03  0.15534E-02
 0.11118000E+03  0.13610E-02
 0.11123000E+03  0.65064E-03
 0.11128000E+03  0.66325E-03
 0.11133000E+03  0.21141E-03
 0.11138000E+03 -0.22035E-03
 0.11143000E+03  0.91948E-03
 0.11148000E+03  0.76707E-03
 0.11153000E+03 -0.14312E-02
 0.11158000E+03 -0.26477E-02
 0.11163000E+03 -0.30193E-02
 0.11168000E+03 -0.27988E-02
 0.11173000E+03 -0.34379E-02
 0.11178000E+03 -0.41984E-02
 0.11183000E+03 -0.36232E-02
 0.11188000E+03 -0.23552E-02
 0.11193000E+03 -0.36966E-03
 0.11198000E+03 -0.63159E-03
 0.11203000E+03 -0.85518E-03
 0.11208000E+03 -0.77393E-04
 0.11213000E+03  0.92012E-03
 0.11218000E+03  0.24354E-02
 0.11223000E+03  0.23368E-02
 0.11228000E+03  0.32255E-02
 0.11233000E+03  0.30477E-02
 0.11238000E+03  0.17617E-02
 0.11243000E+03  0.13699E-02
 0.11248000E+03  0.85940E-03
 0.11253000E+03  0.13098E-02
 0.11258000E+03  0.10980E-02
 0.11263000E+03  0.52326E-03
 0.11268000E+03  0.20029E-03
 0.11273000E+03 -0.56017E-03
 0.11278000E+03 -0.48618E-03
 0.11283000E+03  0.22709E-03
 0.11288000E+03 -0.22161E-03
 0.11293000E+03 -0.71729E-03
 0.11298000E+03 -0.61756E-03
 0.11303000E+03 -0.28760E-03
 0.11308000E+03  0.65224E-03
 0.11313000E+03  0.71574E-03
 0.11318000E+03  0.62809E-03
 0.11323000E+03  0.10530E-02
 0.11328000E+03  0.74481E-03
 0.11333000E+03  0.42550E-06
 0.11338000E+03 -0.40054E-03
 0.11343000E+03 -0.14370E-02
 0.11348000E+03 -0.16915E-02
 0.11353000E+03 -0.12786E-02
 0.11358000E+03 -0.21684E-02
 0.11363000E+03 -0.21340E-02
 0.11368000E+03 -0.20971E-02
 0.11373000E+03 -0.20132E-02
 0.11378000E+03 -0.19749E-02
 0.11383000E+03 -0.27020E-02
 0.11388000E+03 -0.21864E-02
 0.11393000E+03 -0.15887E-02
 0.11398000E+03 -0.10889E-02
 0.11403000E+03  0.23869E-03
 0.11408000E+03  0.16847E-02
 0.11413000E+03  0.30028E-02
 0.11418000E+03  0.35883E-02
 0.11423000E+03  0.35916E-02
 0.11428000E+03  0.44263E-02
 0.11433000E+03  0.42833E-02
 0.11438000E+03  0.38177E-02
 0.11443000E+03  0.39977E-02
 0.11448000E+03  0.25329E-02
 0.11453000E+03  0.17275E-02
 0.11458000E+03  0.11376E-02
 0.11463000E+03 -0.31339E-03
 0.11468000E+03 -0.44466E-03
 0.11473000E+03 -0.13270E-02
 0.11478000E+03 -0.24372E-02
 0.11483000E+03 -0.26439E-02
 0.11488000E+03 -0.32990E-02
 0.11493000E+03 -0.28199E-02
 0.11498000E+03 -0.17227E-02
 0.11503000E+03 -0.12761E-02
 0.11508000E+03 -0.82377E-03
 0.11513000E+03 -0.48053E-03
 0.11518000E+03 -0.14731E-04
 0.11523000E+03  0.44375E-03
 0.11528000E+03  0.39249E-03
 0.11533000E+03  0.83361E-03
 0.11538000E+03  0.85369E-03
 0.11543000E+03 -0.28766E-03
 0.11548000E+03 -0.10637E-02
 0.11553000E+03 -0.14461E-02
 0.11558000E+03 -0.18401E-02
 0.11563000E+03 -0.17827E-02
 0.11568000E+03 -0.61959E-03
 0.11573000E+03  0.39812E-03
 0.11578000E+03  0.74091E-03
 0.11583000E+03  0.55614E-03
 0.11588000E+03  0.45998E-04
 0.11593000E+03 -0.55722E-03
 0.11598000E+03 -0.14235E-02
 0.11603000E+03 -0.14954E-02
 0.11608000E+03 -0.12945E-02
 0.11613000E+03 -0.47598E-03
 0.11618000E+03  0.54239E-03
 0.11623000E+03  0.70986E-03
 0.11628000E+03  0.13720E-03
 0.11633000E+03 -0.61604E-03
 0.11638000E+03 -0.22888E-03
 0.11643000E+03 -0.25131E-03
 0.11648000E+03  0.67412E-03
 0.11653000E+03  0.25845E-02
 0.11658000E+03  0.31619E-02
 0.11663000E+03  0.35711E-02
 0.11668000E+03  0.32538E-02
 0.11673000E+03  0.30556E-02
 0.11678000E+03  0.30244E-02
 0.11683000E+03  0.22112E-02
 0.11688000E+03  0.32559E-03
 0.11693000E+03 -0.19638E-02
 0.11698000E+03 -0.30263E-02
 0.11703000E+03 -0.35504E-02
 0.11708000E+03 -0.27955E-02
 0.11713000E+03 -0.16391E-02
 0.11718000E+03 -0.15939E-02
 0.11723000E+03 -0.16627E-02
 0.11728000E+03 -0.70577E-03
 0.11733000E+03 -0.50289E-04
 0.11738000E+03 -0.39439E-03
 0.11743000E+03 -0.78300E-03
 0.11748000E+03 -0.90591E-03
 0.11753000E+03  0.22033E-03
 0.11758000E+03  0.14715E-02
 0.11763000E+03  0.25363E-02
 0.11768000E+03  0.33829E-02
 0.11773000E+03  0.43219E-02
 0.11778000E+03  0.47747E-02
 0.11783000E+03  0.32769E-02
 0.11788000E+03  0.14524E-02
 0.11793000E+03 -0.24111E-03
 0.11798000E+03 -0.16567E-02
 0.11803000E+03 -0.25919E-02
 0.11808000E+03 -0.36382E-02
 0.11813000E+03 -0.44200E-02
 0.11818000E+03 -0.38350E-02
 0.11823000E+03 -0.30268E-02
 0.11828000E+03 -0.28044E-02
 0.11833000E+03 -0.26025E-02
 0.11838000E+03 -0.26668E-02
 0.11843000E+03 -0.20201E-02
 0.11848000E+03 -0.14113E-02
 0.11853000E+03 -0.60713E-03
 0.11858000E+03  0.46850E-03
 0.11863000E+03  0.71594E-03
 0.11868000E+03  0.12014E-02
 0.11873000E+03  0.12446E-02
 0.11878000E+03  0.15473E-02
 0.11883000E+03  0.27830E-02
 0.11888000E+03  0.34937E-02
 0.11893000E+03  0.36408E-02
 0.11898000E+03  0.31853E-02
 0.11903000E+03  0.23836E-02
 0.11908000E+03  0.17600E-02
 0.11913000E+03  0.14798E-02
 0.11918000E+03  0.11663E-02
 0.11923000E+03  0.45187E-03
 0.11928000E+03 -0.52206E-03
 0.11933000E+03 -0.16345E-02
 0.11938000E+03 -0.22148E-02
 0.11943000E+03 -0.19856E-02
 0.11948000E+03 -0.14460E-02
 0.11953000E+03 -0.76357E-03
 0.11958000E+03 -0.46044E-03
 0.11963000E+03 -0.68232E-03
 0.11968000E+03 -0.18409E-03
 0.11973000E+03  0.56623E-03
 0.11978000E+03  0.45913E-03
 0.11983000E+03  0.69492E-03
 0.11988000E+03  0.12809E-02
 0.11993000E+03  0.11099E-02
 0.11998000E+03  0.49132E-03
 0.12003000E+03  0.94119E-03
 0.12008000E+03  0.15179E-02
 0.12013000E+03  0.35181E-03
 0.12018000E+03 -0.88878E-03
 0.12023000E+03 -0.16466E-02
 0.12028000E+03 -0.16292E-02
 0.12033000E+03 -0.12409E-02
 0.12038000E+03 -0.16756E-02
 0.12043000E+03 -0.17415E-02
 0.12048000E+03 -0.14834E-02
 0.12053000E+03 -0.11931E-02
 0.12058000E+03 -0.94281E-03
 0.12063000E+03 -0.10908E-02
 0.12068000E+03 -0.82574E-03
 0.12073000E+03 -0.35624E-03
 0.12078000E+03  0.29453E-04
 0.12083000E+03  0.52815E-03
 0.12088000E+03  0.29631E-03
 0.12093000E+03  0.70021E-03
 0.12098000E+03  0.10205E-02
 0.12103000E+03  0.45566E-03
 0.12108000E+03  0.69473E-03
 0.12113000E+03  0.30165E-03
 0.12118000E+03 -0.23397E-03
 0.12123000E+03 -0.41506E-03
 0.12128000E+03 -0.54263E-03
 0.12133000E+03 -0.41670E-03
 0.12138000E+03 -0.61211E-03
 0.12143000E+03 -0.84309E-03
 0.12148000E+03 -0.13656E-02
 0.12153000E+03 -0.85232E-03
 0.12158000E+03  0.20383E-03
 0.12163000E+03  0.93383E-03
 0.12168000E+03  0.27484E-02
 0.12173000E+03  0.35534E-02
 0.12178000E+03  0.39801E-02
 0.12183000E+03  0.44973E-02
 0.12188000E+03  0.36787E-02
 0.12193000E+03  0.32816E-02
 0.12198000E+03  0.24406E-02
 0.12203000E+03  0.17014E-02
 0.12208000E+03  0.88363E-03
 0.12213000E+03 -0.79192E-03
 0.12218000E+03 -0.15138E-02
 0.12223000E+03 -0.16108E-02
 0.12228000E+03 -0.17805E-02
 0.12233000E+03 -0.23899E-02
 0.12238000E+03 -0.32173E-02
 0.12243000E+03 -0.42301E-02
 0.12248000E+03 -0.49073E-02
 0.12253000E+03 -0.47049E-02
 0.12258000E+03 -0.36711E-02
 0.12263000E+03 -0.18458E-02
 0.12268000E+03 -0.48951E-03
 0.12273000E+03  0.44721E-04
 0.12278000E+03  0.56843E-03
 0.12283000E+03  0.13698E-02
 0.12288000E+03  0.20404E-02
 0.12293000E+03  0.12116E-02
 0.12298000E+03 -0.77572E-04
 0.12303000E+03 -0.40012E-03
 0.12308000E+03 -0.48531E-03
 0.12313000E+03  0.40003E-04
 0.12318000E+03  0.62366E-03
 0.12323000E+03  0.98893E-03
 0.12328000E+03  0.10001E-02
 0.12333000E+03  0.89150E-03
 0.12338000E+03  0.10580E-02
 0.12343000E+03  0.64518E-03
 0.12348000E+03  0.95908E-03
 0.12353000E+03  0.15590E-02
 0.12358000E+03  0.16432E-02
 0.12363000E+03  0.22684E-02
 0.12368000E+03  0.20377E-02
 0.12373000E+03  0.13193E-02
 0.12378000E+03  0.17263E-02
 0.12383000E+03  0.13991E-02
 0.12388000E+03  0.67706E-04
 0.12393000E+03 -0.13345E-02
 0.12398000E+03 -0.27832E-02
 0.12403000E+03 -0.30429E-02
 0.12408000E+03 -0.25154E-02
 0.12413000E+03 -0.22008E-02
 0.12418000E+03 -0.16469E-02
 0.12423000E+03 -0.35719E-03
 0.12428000E+03  0.66466E-03
 0.12433000E+03  0.74432E-03
 0.12438000E+03  0.10677E-02
 0.12443000E+03  0.11520E-02
 0.12448000E+03  0.56506E-03
 0.12453000E+03  0.20140E-04
 0.12458000E+03  0.14098E-03
 0.12463000E+03  0.65485E-03
 0.12468000E+03  0.53635E-03
 0.12473000E+03  0.19901E-03
 0.12478000E+03 -0.37096E-03
 0.12483000E+03 -0.83169E-03
 0.12488000E+03 -0.10025E-02
 0.12493000E+03 -0.10987E-02
 0.12498000E+03 -0.17118E-03
 0.12503000E+03  0.18936E-03
 0.12508000E+03 -0.56648E-03
 0.12513000E+03 -0.47970E-03
 0.12518000E+03 -0.32021E-03
 0.12523000E+03 -0.59886E-03
 0.12528000E+03 -0.80967E-03
 0.12533000E+03 -0.11093E-02
 0.12538000E+03 -0.12776E-02
 0.12543000E+03 -0.12437E-02
 0.12548000E+03 -0.92812E-03
 0.12553000E+03 -0.80410E-03
 0.12558000E+03 -0.64131E-03
 0.12563000E+03 -0.30071E-03
 0.12568000E+03 -0.10288E-03
 0.12573000E+03  0.84557E-03
 0.12578000E+03  0.18243E-02
 0.12583000E+03  0.22141E-02
 0.12588000E+03  0.27152E-02
 0.12593000E+03  0.28409E-02
 0.12598000E+03  0.23724E-02
 0.12603000E+03  0.25846E-02
 0.12608000E+03  0.29589E-02
 0.12613000E+03  0.27169E-02
 0.12618000E+03  0.27538E-02
 0.12623000E+03  0.24518E-02
 0.12628000E+03  0.16060E-02
 0.12633000E+03  0.57077E-03
 0.12638000E+03 -0.34561E-04
 0.12643000E+03 -0.29504E-03
 0.12648000E+03 -0.13450E-02
 0.12653000E+03 -0.26919E-02
 0.12658000E+03 -0.34477E-02
 0.12663000E+03 -0.39147E-02
 0.12668000E+03 -0.44408E-02
 0.12673000E+03 -0.41696E-02
 0.12678000E+03 -0.36961E-02
 0.12683000E+03 -0.27877E-02
 0.12688000E+03 -0.13302E-02
 0.12693000E+03 -0.36720E-04
 0.12698000E+03  0.72492E-03
 0.12703000E+03  0.63659E-03
 0.12708000E+03  0.58663E-03
 0.12713000E+03  0.52984E-03
 0.12718000E+03  0.96944E-03
 0.12723000E+03  0.58403E-03
 0.12728000E+03 -0.12605E-03
 0.12733000E+03 -0.84466E-04
 0.12738000E+03 -0.76172E-03
 0.12743000E+03 -0.12468E-02
 0.12748000E+03 -0.13011E-02
 0.12753000E+03 -0.11120E-02
 0.12758000E+03 -0.90136E-03
 0.12763000E+03 -0.61553E-03
 0.12768000E+03 -0.59168E-03
 0.12773000E+03 -0.56990E-03
 0.12778000E+03  0.18191E-03
 0.12783000E+03  0.44055E-03
 0.12788000E+03  0.76877E-03
 0.12793000E+03  0.13615E-02
 0.12798000E+03  0.14755E-02
 0.12803000E+03  0.16932E-02
 0.12808000E+03  0.22302E-02
 0.12813000E+03  0.25821E-02
 0.12818001E+03  0.30965E-02
 0.12823000E+03  0.34985E-02
 0.12828000E+03  0.33764E-02
 0.12833000E+03  0.34223E-02
 0.12838000E+03  0.33168E-02
 0.12843001E+03  0.32755E-02
 0.12848000E+03  0.26053E-02
 0.12853000E+03  0.14626E-02
 0.12858000E+03  0.71290E-03
 0.12863000E+03  0.85296E-04
 0.12868001E+03 -0.87063E-03
 0.12873000E+03 -0.18092E-02
 0.12878000E+03 -0.18144E-02
 0.12883000E+03 -0.22708E-02
 0.12888000E+03 -0.29929E-02
 0.12893001E+03 -0.37137E-02
 0.12898000E+03 -0.38011E-02
 0.12903000E+03 -0.33373E-02
 0.12908000E+03 -0.39712E-02
 0.12913000E+03 -0.42005E-02
 0.12918001E+03 -0.40717E-02
 0.12923000E+03 -0.37496E-02
 0.12928000E+03 -0.29415E-02
 0.12933000E+03 -0.22746E-02
 0.12938000E+03 -0.10374E-02
 0.12943001E+03  0.49788E-03
 0.12948000E+03  0.20768E-02
 0.12953000E+03  0.34188E-02
 0.12958000E+03  0.36485E-02
 0.12963000E+03  0.34897E-02
 0.12968001E+03  0.35049E-02
 0.12973000E+03  0.35912E-02
 0.12978000E+03  0.36845E-02
 0.12983000E+03  0.29055E-02
 0.12988000E+03  0.21352E-02
 0.12993001E+03  0.21579E-02
 0.12998000E+03  0.15384E-02
 0.13003000E+03  0.12214E-03
 0.13008000E+03 -0.98442E-03
 0.13013000E+03 -0.93230E-03
 0.13018001E+03 -0.12400E-02
 0.13023000E+03 -0.25185E-02
 0.13028000E+03 -0.29682E-02
 0.13033000E+03 -0.27477E-02
 0.13038000E+03 -0.22159E-02
 0.13043001E+03 -0.21724E-02
 0.13048000E+03 -0.24718E-02
 0.13053000E+03 -0.20474E-02
 0.13058000E+03 -0.12190E-02
 0.13063000E+03 -0.17754E-03
 0.13068001E+03  0.60913E-03
 0.13073000E+03  0.12587E-02
 0.13078000E+03  0.16862E-02
 0.13083000E+03  0.17838E-02
 0.13088000E+03  0.14308E-02
 0.13093001E+03  0.10279E-02
 0.13098000E+03  0.73351E-03
 0.13103000E+03  0.28995E-03
 0.13108000E+03  0.44665E-03
 0.13113000E+03  0.35458E-03
 0.13118001E+03 -0.31682E-03
 0.13123000E+03 -0.10298E-02
 0.13128000E+03 -0.19769E-02
 0.13133000E+03 -0.30188E-02
 0.13138000E+03 -0.31162E-02
 0.13143001E+03 -0.24806E-02
 0.13148000E+03 -0.14279E-02
 0.13153000E+03 -0.49438E-03
 0.13158000E+03 -0.12271E-03
 0.13163000E+03  0.12392E-02
 0.13168001E+03  0.20485E-02
 0.13173000E+03  0.23246E-02
 0.13178000E+03  0.31787E-02
 0.13183000E+03  0.35960E-02
 0.13188000E+03  0.39050E-02
 0.13193001E+03  0.34537E-02
 0.13198000E+03  0.26947E-02
 0.13203000E+03  0.26573E-02
 0.13208000E+03  0.22259E-02
 0.13213000E+03  0.13246E-02
 0.13218001E+03  0.68300E-03
 0.13223000E+03  0.15696E-03
 0.13228000E+03 -0.29748E-03
 0.13233000E+03 -0.26658E-03
 0.13238000E+03 -0.37458E-03
 0.13243001E+03 -0.10573E-02
 0.13248000E+03 -0.13543E-02
 0.13253000E+03 -0.15497E-02
 0.13258000E+03 -0.17259E-02
 0.13263000E+03 -0.16443E-02
 0.13268001E+03 -0.15215E-02
 0.13273000E+03 -0.16469E-02
 0.13278000E+03 -0.22050E-02
 0.13283000E+03 -0.22907E-02
 0.13288000E+03 -0.21896E-02
 0.13293001E+03 -0.16411E-02
 0.13298000E+03 -0.78436E-03
 0.13303000E+03 -0.64198E-03
 0.13308000E+03 -0.15773E-03
 0.13313000E+03 -0.39672E-04
 0.13318001E+03 -0.23498E-03
 0.13323000E+03 -0.33578E-04
 0.13328000E+03 -0.29717E-03
 0.13333000E+03 -0.20172E-03
 0.13338000E+03  0.14991E-03
 0.13343001E+03  0.25893E-03
 0.13348000E+03  0.10659E-03
 0.13353000E+03 -0.49214E-03
 0.13358000E+03 -0.11351E-02
 0.13363000E+03 -0.15644E-02
 0.13368001E+03 -0.15406E-02
 0.13373000E+03 -0.12598E-02
 0.13378000E+03 -0.95988E-03
 0.13383000E+03 -0.44230E-03
 0.13388000E+03  0.13597E-03
 0.13393001E+03  0.73842E-03
 0.13398000E+03  0.12875E-02
 0.13403000E+03  0.18122E-02
 0.13408000E+03  0.28184E-02
 0.13413000E+03  0.33791E-02
 0.13418001E+03  0.34094E-02
 0.13423000E+03  0.36231E-02
 0.13428000E+03  0.33348E-02
 0.13433000E+03  0.26993E-02
 0.13438000E+03  0.19088E-02
 0.13443001E+03  0.11664E-02
 0.13448000E+03  0.74762E-03
 0.13453000E+03  0.32864E-04
 0.13458000E+03 -0.62032E-03
 0.13463000E+03 -0.69094E-03
 0.13468001E+03 -0.63970E-03
 0.13473000E+03 -0.10833E-02
 0.13478000E+03 -0.19505E-02
 0.13483000E+03 -0.25048E-02
 0.13488000E+03 -0.26386E-02
 0.13493001E+03 -0.27381E-02
 0.13498000E+03 -0.23749E-02
 0.13503000E+03 -0.17068E-02
 0.13508000E+03 -0.13632E-02
 0.13513000E+03 -0.91396E-03
 0.13518001E+03 -0.47032E-03
 0.13523000E+03  0.59048E-04
 0.13528000E+03  0.27443E-03
 0.13533000E+03 -0.16350E-03
 0.13538000E+03 -0.26521E-03
 0.13543001E+03 -0.32139E-05
 0.13548000E+03  0.31990E-03
 0.13553000E+03  0.63068E-04
 0.13558000E+03 -0.21305E-03
 0.13563000E+03 -0.13798E-03
 0.13568001E+03 -0.26342E-03
 0.13573000E+03  0.44209E-03
 0.13578000E+03  0.14765E-02
 0.13583000E+03  0.20903E-02
 0.13588000E+03  0.25381E-02
 0.13593001E+03  0.25915E-02
 0.13598000E+03  0.25034E-02
 0.13603000E+03  0.20816E-02
 0.13608000E+03  0.93129E-03
 0.13613000E+03 -0.16481E-03
 0.13618001E+03 -0.92543E-03
 0.13623000E+03 -0.17157E-02
 0.13628000E+03 -0.16184E-02
 0.13633000E+03 -0.11984E-02
 0.13638000E+03 -0.11368E-02
 0.13643001E+03 -0.11030E-02
 0.13648000E+03 -0.14404E-02
 0.13653000E+03 -0.13172E-02
 0.13658000E+03 -0.11138E-02
 0.13663000E+03 -0.75761E-03
 0.13668001E+03 -0.30232E-03
 0.13673000E+03 -0.38266E-04
 0.13678000E+03  0.65833E-03
 0.13683000E+03  0.35456E-03
 0.13688000E+03 -0.32763E-03
 0.13693001E+03 -0.45903E-03
 0.13698000E+03 -0.71794E-04
 0.13703000E+03  0.71956E-03
 0.13708000E+03  0.11152E-02
 0.13713000E+03  0.12197E-02
 0.13718001E+03  0.85104E-03
 0.13723000E+03  0.73653E-03
 0.13728000E+03  0.91917E-03
 0.13733000E+03  0.67146E-03
 0.13738000E+03  0.23668E-03
 0.13743001E+03 -0.70906E-05
 0.13748000E+03  0.23446E-03
 0.13753000E+03  0.35190E-03
 0.13758000E+03  0.57615E-03
 0.13763000E+03  0.81733E-03
 0.13768001E+03  0.41949E-03
 0.13773000E+03  0.38246E-03
 0.13778000E+03  0.44446E-04
 0.13783000E+03 -0.83625E-03
 0.13788000E+03 -0.99068E-03
 0.13793001E+03 -0.11631E-02
 0.13798000E+03 -0.14321E-02
 0.13803000E+03 -0.16817E-02
 0.13808000E+03 -0.13075E-02
 0.13813000E+03 -0.82626E-03
 0.13818001E+03 -0.84859E-03
 0.13823000E+03 -0.21834E-03
 0.13828000E+03  0.41129E-04
 0.13833000E+03 -0.15205E-03
 0.13838000E+03 -0.54816E-04
 0.13843001E+03  0.67789E-03
 0.13848000E+03  0.83407E-03
 0.13853000E+03  0.25946E-04
 0.13858000E+03 -0.14187E-03
 0.13863000E+03 -0.41532E-03
 0.13868001E+03 -0.78491E-03
 0.13873000E+03 -0.54850E-03
 0.13878000E+03 -0.86073E-04
 0.13883000E+03  0.86845E-04
 0.13888000E+03  0.49110E-03
 0.13893001E+03  0.80605E-03
 0.13898000E+03  0.65602E-03
 0.13903000E+03  0.75706E-03
 0.13908000E+03  0.53906E-03
 0.13913000E+03  0.51264E-03
 0.13918001E+03  0.52539E-03
 0.13923000E+03  0.46525E-03
 0.13928000E+03  0.59077E-03
 0.13933000E+03  0.56038E-03
 0.13938000E+03  0.66750E-03
 0.13943001E+03  0.55013E-03
 0.13948000E+03  0.26464E-03
 0.13953000E+03 -0.98274E-04
 0.13958000E+03  0.33161E-03
 0.13963000E+03  0.75603E-03
 0.13968001E+03  0.33326E-03
 0.13973000E+03  0.24800E-03
 0.13978000E+03  0.42824E-04
 0.13983000E+03  0.53290E-04
 0.13988000E+03  0.24226E-03
 0.13993001E+03  0.13822E-04
 0.13998000E+03 -0.43039E-03
 0.14003000E+03 -0.72175E-03
 0.14008000E+03 -0.49808E-03
 0.14013000E+03 -0.62054E-03
 0.14018001E+03 -0.75928E-03
 0.14023000E+03 -0.60073E-03
 0.14028000E+03 -0.81081E-03
 0.14033000E+03 -0.81511E-03
 0.14038000E+03 -0.28978E-03
 0.14043001E+03  0.70420E-04
 0.14048000E+03 -0.17243E-03
 0.14053000E+03 -0.32660E-04
 0.14058000E+03  0.43082E-03
 0.14063000E+03  0.22711E-03
 0.14068001E+03 -0.82198E-04
 0.14073000E+03 -0.65265E-03
 0.14078000E+03 -0.12272E-02
 0.14083000E+03 -0.12938E-02
 0.14088000E+03 -0.15758E-02
 0.14093001E+03 -0.11059E-02
 0.14098000E+03 -0.24004E-03
 0.14103000E+03  0.23572E-03
 0.14108000E+03  0.96960E-03
 0.14113000E+03  0.12672E-02
 0.14118001E+03  0.12855E-02
 0.14123000E+03  0.13095E-02
 0.14128000E+03  0.11190E-02
 0.14133000E+03  0.72229E-03
 0.14138000E+03  0.53853E-03
 0.14143001E+03  0.78220E-03
 0.14148000E+03  0.10230E-02
 0.14153000E+03  0.83597E-03
 0.14158000E+03  0.51083E-03
 0.14163000E+03  0.16239E-03
 0.14168001E+03 -0.46958E-03
 0.14173000E+03 -0.60774E-03
 0.14178000E+03 -0.66244E-03
 0.14183000E+03 -0.77675E-03
 0.14188000E+03 -0.94436E-03
 0.14193001E+03 -0.78572E-03
 0.14198000E+03 -0.20488E-03
 0.14203000E+03 -0.69589E-04
 0.14208000E+03  0.10671E-03
 0.14213000E+03  0.37731E-04
 0.14218001E+03 -0.54311E-04
 0.14223000E+03 -0.11457E-03
 0.14228000E+03 -0.50404E-03
 0.14233000E+03 -0.51933E-03
 0.14238000E+03  0.10636E-04
 0.14243001E+03  0.44295E-03
 0.14248000E+03 -0.72719E-04
 0.14253000E+03 -0.56735E-03
 0.14258000E+03 -0.38012E-03
 0.14263000E+03 -0.69212E-03
 0.14268001E+03 -0.11090E-02
 0.14273000E+03 -0.11865E-02
 0.14278000E+03 -0.12603E-02
 0.14283000E+03 -0.54602E-03
 0.14288000E+03  0.64127E-04
 0.14293001E+03  0.42231E-03
 0.14298000E+03  0.11497E-02
 0.14303000E+03  0.13374E-02
 0.14308000E+03  0.14473E-02
 0.14313000E+03  0.14090E-02
 0.14318001E+03  0.11686E-02
 0.14323000E+03  0.11836E-02
 0.14328000E+03  0.85376E-03
 0.14333000E+03 -0.81111E-04
 0.14338000E+03 -0.34354E-04
 0.14343001E+03  0.48153E-03
 0.14348000E+03 -0.97536E-05
 0.14353000E+03  0.21877E-03
 0.14358000E+03  0.74322E-03
 0.14363000E+03  0.65799E-03
 0.14368001E+03  0.43668E-03
 0.14373000E+03  0.38837E-03
 0.14378000E+03  0.66756E-03
 0.14383000E+03  0.27627E-03
 0.14388000E+03  0.46034E-04
 0.14393001E+03  0.12411E-03
 0.14398000E+03 -0.39108E-04
 0.14403000E+03  0.51486E-04
 0.14408000E+03 -0.15570E-03
 0.14413000E+03 -0.53163E-03
 0.14418001E+03 -0.67220E-03
 0.14423000E+03 -0.58897E-03
 0.14428000E+03 -0.81658E-03
 0.14433000E+03 -0.96971E-03
 0.14438000E+03 -0.12363E-02
 0.14443001E+03 -0.17220E-02
 0.14448000E+03 -0.17609E-02
 0.14453000E+03 -0.17358E-02
 0.14458000E+03 -0.12818E-02
 0.14463000E+03 -0.97344E-03
 0.14468001E+03 -0.42700E-03
 0.14473000E+03  0.21704E-03
 0.14478000E+03  0.33100E-03
 0.14483000E+03  0.19655E-03
 0.14488000E+03 -0.21512E-03
 0.14493001E+03 -0.31450E-03
 0.14498000E+03 -0.98907E-03
 0.14503000E+03 -0.14150E-02
 0.14508000E+03 -0.92721E-03
 0.14513000E+03 -0.44475E-03
 0.14518001E+03  0.16157E-03
 0.14523000E+03  0.97208E-03
 0.14528000E+03  0.14530E-02
 0.14533000E+03  0.14451E-02
 0.14538000E+03  0.21055E-02
 0.14543001E+03  0.26174E-02
 0.14548000E+03  0.27690E-02
 0.14553000E+03  0.29180E-02
 0.14558000E+03  0.25963E-02
 0.14563000E+03  0.19930E-02
 0.14568001E+03  0.10972E-02
 0.14573000E+03  0.44010E-03
 0.14578000E+03 -0.59589E-04
 0.14583000E+03 -0.41072E-03
 0.14588000E+03 -0.89019E-03
 0.14593001E+03 -0.11598E-02
 0.14598000E+03 -0.11835E-02
 0.14603000E+03 -0.16894E-02
 0.14608000E+03 -0.17439E-02
 0.14613000E+03 -0.21237E-02
 0.14618001E+03 -0.20642E-02
 0.14623000E+03 -0.14536E-02
 0.14628000E+03 -0.15683E-02
 0.14633000E+03 -0.13629E-02
 0.14638000E+03 -0.13828E-02
 0.14643001E+03 -0.82000E-03
 0.14648000E+03 -0.72337E-04
 0.14653000E+03  0.43164E-03
 0.14658000E+03  0.74071E-03
 0.14663000E+03  0.10753E-02
 0.14668001E+03  0.19217E-02
 0.14673000E+03  0.17617E-02
 0.14678000E+03  0.16929E-02
 0.14683000E+03  0.14774E-02
 0.14688000E+03  0.13939E-02
 0.14693001E+03  0.11893E-02
 0.14698000E+03  0.79830E-03
 0.14703000E+03  0.83972E-03
 0.14708000E+03  0.13848E-03
 0.14713000E+03 -0.23658E-03
 0.14718001E+03 -0.64652E-03
 0.14723000E+03 -0.93585E-03
 0.14728000E+03 -0.96788E-03
 0.14733000E+03 -0.11159E-02
 0.14738000E+03 -0.10241E-02
 0.14743001E+03 -0.10211E-02
 0.14748000E+03 -0.73748E-03
 0.14753000E+03 -0.79295E-03
 0.14758000E+03 -0.10726E-02
 0.14763000E+03 -0.10278E-02
 0.14768001E+03 -0.10452E-02
 0.14773000E+03 -0.10414E-02
 0.14778000E+03 -0.12015E-02
 0.14783000E+03 -0.95027E-03
 0.14788000E+03 -0.55984E-03
 0.14793001E+03 -0.11337E-03
 0.14798000E+03  0.42645E-03
 0.14803000E+03  0.82048E-03
 0.14808000E+03  0.17460E-02
 0.14813000E+03  0.16938E-02
 0.14818001E+03  0.12836E-02
 0.14823000E+03  0.12979E-02
 0.14828000E+03  0.12010E-02
 0.14833000E+03  0.14602E-02
 0.14838000E+03  0.17721E-02
 0.14843001E+03  0.19828E-02
 0.14848000E+03  0.18318E-02
 0.14853000E+03  0.21008E-02
 0.14858000E+03  0.23265E-02
 0.14863000E+03  0.18329E-02
 0.14868001E+03  0.11602E-02
 0.14873000E+03  0.35391E-03
 0.14878000E+03 -0.62256E-03
 0.14883000E+03 -0.17379E-02
 0.14888000E+03 -0.22577E-02
 0.14893001E+03 -0.24675E-02
 0.14898000E+03 -0.28160E-02
 0.14903000E+03 -0.30279E-02
 0.14908000E+03 -0.30922E-02
 0.14913000E+03 -0.30398E-02
 0.14918001E+03 -0.27434E-02
 0.14923000E+03 -0.21668E-02
 0.14928000E+03 -0.16939E-02
 0.14933000E+03 -0.87396E-03
 0.14938000E+03  0.82136E-04
 0.14943001E+03  0.31565E-03
 0.14948000E+03  0.81127E-03
 0.14953000E+03  0.12673E-02
 0.14958000E+03  0.16818E-02
 0.14963000E+03  0.21968E-02
 0.14968001E+03  0.20671E-02
 0.14973000E+03  0.17358E-02
 0.14978000E+03  0.11245E-02
 0.14983000E+03  0.12279E-02
 0.14988000E+03  0.13243E-02
 0.14993001E+03  0.95141E-03
 0.14998000E+03  0.94362E-03
