-0.20000458E-01  0.25438E-04
 0.29999543E-01  0.14255E-04
 0.79999544E-01  0.59529E-05
 0.12999955E+00  0.15076E-06
 0.17999955E+00 -0.35768E-05
 0.22999954E+00 -0.56922E-05
 0.27999955E+00 -0.66015E-05
 0.32999954E+00 -0.66412E-05
 0.37999955E+00 -0.61328E-05
 0.42999956E+00 -0.53168E-05
 0.47999954E+00 -0.43733E-05
 0.52999955E+00 -0.34179E-05
 0.57999957E+00 -0.25086E-05
 0.62999958E+00 -0.17246E-05
 0.67999953E+00 -0.10993E-05
 0.72999954E+00 -0.61395E-06
 0.77999955E+00 -0.24262E-06
 0.82999957E+00  0.18989E-07
 0.87999958E+00  0.17360E-06
 0.92999953E+00  0.25368E-06
 0.97999954E+00  0.29189E-06
 0.10299996E+01  0.30762E-06
 0.10799996E+01  0.28159E-06
 0.11299995E+01  0.22875E-06
 0.11799996E+01  0.16927E-06
 0.12299995E+01  0.12754E-06
 0.12799996E+01  0.11383E-06
 0.13299996E+01  0.97519E-07
 0.13799995E+01  0.85517E-07
 0.14299996E+01  0.71648E-07
 0.14799995E+01  0.50243E-07
 0.15299996E+01  0.18497E-07
 0.15799996E+01 -0.87054E-08
 0.16299995E+01 -0.26203E-08
 0.16799996E+01  0.59169E-08
 0.17299995E+01  0.12083E-07
 0.17799996E+01  0.10641E-07
 0.18299996E+01 -0.69801E-08
 0.18799995E+01 -0.42097E-08
 0.19299996E+01 -0.48910E-08
 0.19799995E+01 -0.22638E-07
 0.20299995E+01 -0.33371E-07
 0.20799997E+01 -0.35475E-07
 0.21299996E+01 -0.20461E-07
 0.21799996E+01 -0.10820E-07
 0.22299995E+01 -0.17511E-07
 0.22799995E+01 -0.19466E-07
 0.23299997E+01 -0.12165E-07
 0.23799996E+01 -0.53432E-08
 0.24299996E+01 -0.13816E-07
 0.24799995E+01 -0.24662E-07
 0.25299995E+01 -0.20087E-07
 0.25799997E+01 -0.20199E-07
 0.26299996E+01 -0.27033E-07
 0.26799996E+01 -0.35537E-07
 0.27299995E+01 -0.33710E-07
 0.27799995E+01 -0.22608E-07
 0.28299997E+01 -0.15533E-07
 0.28799996E+01  0.35112E-10
 0.29299996E+01  0.70023E-09
 0.29799995E+01 -0.26602E-08
 0.30299995E+01 -0.27352E-08
 0.30799997E+01  0.69657E-09
 0.31299996E+01  0.15657E-07
 0.31799996E+01  0.13741E-07
 0.32299995E+01  0.12574E-07
 0.32799995E+01  0.21067E-07
 0.33299997E+01  0.31578E-07
 0.33799996E+01  0.24599E-07
 0.34299996E+01  0.97564E-08
 0.34799995E+01  0.12039E-07
 0.35299995E+01  0.85728E-08
 0.35799997E+01  0.37993E-08
 0.36299996E+01  0.22945E-08
 0.36799996E+01  0.55715E-08
 0.37299995E+01  0.16081E-07
 0.37799995E+01  0.18964E-07
 0.38299997E+01  0.20689E-07
 0.38799996E+01  0.16172E-07
 0.39299996E+01  0.38215E-08
 0.39799995E+01 -0.44066E-08
 0.40299997E+01 -0.14920E-07
 0.40799994E+01 -0.22094E-07
 0.41299996E+01 -0.10712E-07
 0.41799998E+01  0.16435E-08
 0.42299995E+01 -0.81534E-09
 0.42799997E+01 -0.13742E-07
 0.43299994E+01 -0.29317E-07
 0.43799996E+01 -0.31591E-07
 0.44299998E+01 -0.17698E-07
 0.44799995E+01  0.10108E-07
 0.45299997E+01  0.30389E-07
 0.45799994E+01  0.28608E-07
 0.46299996E+01  0.18877E-07
 0.46799998E+01  0.55293E-08
 0.47299995E+01 -0.18477E-08
 0.47799997E+01  0.31224E-08
 0.48299994E+01  0.47107E-09
 0.48799996E+01 -0.40658E-08
 0.49299998E+01  0.75623E-08
 0.49799995E+01  0.15347E-07
 0.50299997E+01  0.60595E-08
 0.50799994E+01 -0.66767E-08
 0.51299996E+01 -0.87138E-08
 0.51799998E+01  0.37247E-08
 0.52299995E+01  0.19790E-07
 0.52799997E+01  0.19414E-07
 0.53299994E+01  0.15522E-07
 0.53799996E+01  0.12008E-07
 0.54299998E+01 -0.72829E-08
 0.54799995E+01 -0.17672E-07
 0.55299997E+01 -0.84725E-08
 0.55799994E+01 -0.37537E-08
 0.56299996E+01 -0.25240E-08
 0.56799998E+01  0.54559E-08
 0.57299995E+01  0.81674E-09
 0.57799997E+01 -0.17133E-07
 0.58299994E+01 -0.31230E-07
 0.58799996E+01 -0.29377E-07
 0.59299998E+01 -0.22799E-07
 0.59799995E+01 -0.17678E-07
 0.60299997E+01 -0.76171E-08
 0.60799994E+01 -0.82416E-08
 0.61299996E+01 -0.77459E-08
 0.61799998E+01 -0.12130E-08
 0.62299995E+01  0.61002E-08
 0.62799997E+01  0.16359E-07
 0.63299994E+01  0.88116E-08
 0.63799996E+01  0.46612E-08
 0.64299998E+01  0.18630E-07
 0.64799995E+01  0.21666E-07
 0.65299997E+01  0.22571E-07
 0.65799994E+01  0.24368E-07
 0.66299996E+01  0.17507E-07
 0.66799998E+01  0.63394E-08
 0.67299995E+01 -0.10183E-07
 0.67799997E+01 -0.14371E-07
 0.68299994E+01 -0.84478E-08
 0.68799996E+01 -0.18720E-08
 0.69299998E+01  0.13676E-07
 0.69799995E+01  0.26278E-07
 0.70299997E+01  0.31317E-07
 0.70799994E+01  0.18518E-07
 0.71299996E+01  0.81255E-08
 0.71799998E+01 -0.26217E-07
 0.72299995E+01 -0.43340E-07
 0.72799997E+01 -0.31038E-07
 0.73299994E+01 -0.61427E-07
 0.73799996E+01  0.10131E-06
 0.74299998E+01  0.61955E-07
 0.74799995E+01  0.14519E-06
 0.75299997E+01  0.15570E-06
 0.75799994E+01 -0.76521E-07
 0.76299996E+01  0.18513E-06
 0.76799998E+01 -0.33779E-06
 0.77299995E+01  0.36228E-06
 0.77799997E+01 -0.50687E-06
 0.78299994E+01  0.13826E-06
 0.78799996E+01 -0.47230E-06
 0.79299998E+01 -0.61906E-06
 0.79799995E+01  0.12681E-05
 0.80299997E+01 -0.92532E-06
 0.80799999E+01  0.15248E-04
 0.81300001E+01  0.25870E-04
 0.81799994E+01  0.41495E-04
 0.82299995E+01  0.39985E-04
 0.82799997E+01  0.43527E-04
 0.83299999E+01  0.64615E-04
 0.83800001E+01  0.51608E-04
 0.84299994E+01  0.66905E-04
 0.84799995E+01 -0.22577E-04
 0.85299997E+01 -0.18086E-03
 0.85799999E+01 -0.28757E-03
 0.86300001E+01 -0.32547E-03
 0.86799994E+01 -0.30299E-03
 0.87299995E+01 -0.14834E-03
 0.87799997E+01  0.40299E-04
 0.88299999E+01  0.91544E-05
 0.88800001E+01  0.92260E-04
 0.89299994E+01  0.20094E-03
 0.89799995E+01  0.26169E-03
 0.90299997E+01  0.23796E-03
 0.90799999E+01  0.76231E-04
 0.91300001E+01  0.21751E-03
 0.91799994E+01  0.36518E-03
 0.92299995E+01  0.23831E-03
 0.92799997E+01  0.20351E-04
 0.93299999E+01 -0.96371E-04
 0.93800001E+01 -0.27091E-03
 0.94299994E+01 -0.37156E-03
 0.94799995E+01 -0.18076E-03
 0.95299997E+01 -0.13378E-03
 0.95799999E+01 -0.12446E-03
 0.96300001E+01 -0.23626E-04
 0.96799994E+01  0.12259E-03
 0.97299995E+01  0.65944E-04
 0.97799997E+01 -0.48107E-04
 0.98299999E+01  0.39022E-04
 0.98800001E+01 -0.23799E-04
 0.99299994E+01 -0.52871E-04
 0.99799995E+01  0.12639E-04
 0.10030000E+02  0.17426E-03
 0.10080000E+02  0.13604E-03
 0.10130000E+02  0.35064E-05
 0.10179999E+02  0.16116E-03
 0.10230000E+02  0.15314E-03
 0.10280000E+02 -0.66532E-04
 0.10330000E+02 -0.35843E-03
 0.10380000E+02 -0.29921E-03
 0.10429999E+02  0.80689E-04
 0.10480000E+02  0.13809E-03
 0.10530000E+02 -0.23459E-04
 0.10580000E+02 -0.17055E-03
 0.10630000E+02  0.84257E-04
 0.10679999E+02  0.41500E-03
 0.10730000E+02  0.23769E-03
 0.10780000E+02  0.12562E-03
 0.10830000E+02  0.13661E-03
 0.10880000E+02  0.56339E-04
 0.10929999E+02 -0.77240E-04
 0.10980000E+02 -0.22456E-03
 0.11030000E+02 -0.30146E-03
 0.11080000E+02 -0.18934E-03
 0.11130000E+02 -0.19601E-03
 0.11179999E+02 -0.17046E-03
 0.11230000E+02  0.26970E-04
 0.11280000E+02 -0.77156E-04
 0.11330000E+02  0.33066E-06
 0.11380000E+02 -0.22109E-03
 0.11429999E+02 -0.37842E-03
 0.11480000E+02 -0.79217E-04
 0.11530000E+02  0.18099E-03
 0.11580000E+02  0.28873E-03
 0.11630000E+02 -0.46539E-05
 0.11679999E+02  0.13763E-03
 0.11730000E+02  0.32599E-03
 0.11780000E+02  0.30430E-03
 0.11830000E+02  0.36973E-03
 0.11880000E+02  0.35126E-03
 0.11929999E+02  0.29320E-03
 0.11980000E+02  0.32255E-04
 0.12030000E+02 -0.26155E-03
 0.12080000E+02 -0.21033E-03
 0.12130000E+02 -0.55619E-04
 0.12179999E+02 -0.28909E-03
 0.12230000E+02 -0.41361E-03
 0.12280000E+02 -0.19956E-03
 0.12330000E+02 -0.76132E-04
 0.12380000E+02 -0.23688E-03
 0.12429999E+02 -0.28746E-03
 0.12480000E+02 -0.58780E-04
 0.12530000E+02  0.10123E-03
 0.12580000E+02  0.70052E-04
 0.12630000E+02  0.11534E-03
 0.12679999E+02  0.32901E-03
 0.12730000E+02  0.52474E-03
 0.12780000E+02  0.56639E-03
 0.12830000E+02  0.11896E-03
 0.12880000E+02 -0.49586E-04
 0.12929999E+02  0.15877E-03
 0.12980000E+02 -0.89553E-04
 0.13030000E+02 -0.80723E-04
 0.13080000E+02 -0.35586E-04
 0.13130000E+02 -0.31167E-03
 0.13179999E+02 -0.37910E-03
 0.13230000E+02 -0.41347E-03
 0.13280000E+02 -0.54747E-03
 0.13330000E+02 -0.38904E-03
 0.13380000E+02  0.51095E-03
 0.13429999E+02  0.11643E-02
 0.13480000E+02  0.14061E-02
 0.13530000E+02  0.15129E-02
 0.13580000E+02  0.18252E-02
 0.13630000E+02  0.26818E-02
 0.13679999E+02  0.24453E-02
 0.13730000E+02  0.11909E-02
 0.13780000E+02 -0.53699E-03
 0.13830000E+02 -0.21894E-02
 0.13880000E+02 -0.27899E-02
 0.13929999E+02 -0.30745E-02
 0.13980000E+02 -0.36139E-02
 0.14030000E+02 -0.41906E-02
 0.14080000E+02 -0.48832E-02
 0.14130000E+02 -0.40486E-02
 0.14179999E+02 -0.81157E-03
 0.14230000E+02  0.14677E-02
 0.14280000E+02  0.18498E-02
 0.14330000E+02  0.83390E-03
 0.14380000E+02 -0.50759E-03
 0.14429999E+02  0.12159E-03
 0.14480000E+02  0.27670E-02
 0.14530000E+02  0.46312E-02
 0.14580000E+02  0.41749E-02
 0.14630000E+02  0.39020E-02
 0.14679999E+02  0.30738E-02
 0.14730000E+02  0.24356E-02
 0.14780000E+02  0.19424E-02
 0.14830000E+02  0.22662E-03
 0.14880000E+02 -0.57555E-03
 0.14929999E+02 -0.15085E-02
 0.14980000E+02 -0.19959E-02
 0.15030000E+02 -0.18227E-02
 0.15080000E+02 -0.28848E-02
 0.15130000E+02 -0.40702E-02
 0.15179999E+02 -0.27264E-02
 0.15230000E+02 -0.53728E-03
 0.15280000E+02  0.76559E-03
 0.15330000E+02  0.19573E-02
 0.15380000E+02  0.16671E-02
 0.15429999E+02  0.53509E-03
 0.15480000E+02 -0.18294E-02
 0.15530000E+02 -0.31273E-02
 0.15580000E+02 -0.16786E-02
 0.15630000E+02 -0.31037E-03
 0.15679999E+02  0.16218E-02
 0.15730000E+02  0.20628E-02
 0.15780000E+02  0.91664E-03
 0.15830000E+02  0.18607E-03
 0.15880000E+02 -0.15201E-02
 0.15929999E+02 -0.15624E-02
 0.15980000E+02 -0.49134E-03
 0.16030001E+02  0.42120E-03
 0.16080000E+02  0.26138E-02
 0.16129999E+02  0.29677E-02
 0.16180000E+02  0.26068E-02
 0.16230000E+02  0.31474E-02
 0.16280001E+02  0.22407E-02
 0.16330000E+02 -0.68342E-03
 0.16379999E+02 -0.30484E-02
 0.16430000E+02 -0.29313E-02
 0.16480000E+02 -0.22879E-02
 0.16530001E+02 -0.92044E-03
 0.16580000E+02 -0.10454E-03
 0.16629999E+02 -0.74786E-03
 0.16680000E+02 -0.81322E-03
 0.16730000E+02 -0.10978E-02
 0.16780001E+02 -0.17941E-02
 0.16830000E+02 -0.17036E-02
 0.16879999E+02 -0.48851E-03
 0.16930000E+02  0.99258E-03
 0.16980000E+02  0.77464E-03
 0.17030001E+02 -0.28221E-04
 0.17080000E+02  0.54643E-03
 0.17129999E+02  0.10903E-02
 0.17180000E+02  0.16103E-02
 0.17230000E+02  0.18006E-02
 0.17280001E+02  0.14525E-02
 0.17330000E+02  0.17848E-02
 0.17379999E+02  0.20065E-02
 0.17430000E+02  0.13293E-02
 0.17480000E+02  0.52851E-03
 0.17530001E+02  0.41566E-03
 0.17580000E+02  0.10643E-02
 0.17629999E+02  0.52009E-03
 0.17680000E+02 -0.20650E-02
 0.17730000E+02 -0.33159E-02
 0.17780001E+02 -0.29213E-02
 0.17830000E+02 -0.18122E-02
 0.17879999E+02 -0.96888E-03
 0.17930000E+02 -0.13356E-02
 0.17980000E+02 -0.58725E-03
 0.18030001E+02 -0.47699E-04
 0.18080000E+02 -0.40648E-03
 0.18129999E+02 -0.51396E-03
 0.18180000E+02 -0.13006E-02
 0.18230000E+02 -0.93836E-03
 0.18280001E+02  0.34397E-04
 0.18330000E+02  0.40530E-05
 0.18379999E+02  0.24660E-03
 0.18430000E+02  0.70837E-03
 0.18480000E+02  0.16210E-02
 0.18530001E+02  0.22935E-02
 0.18580000E+02  0.21307E-02
 0.18629999E+02  0.26617E-02
 0.18680000E+02  0.27835E-02
 0.18730000E+02  0.17957E-02
 0.18780001E+02  0.13004E-02
 0.18830000E+02  0.46931E-03
 0.18879999E+02 -0.22816E-03
 0.18930000E+02 -0.60832E-03
 0.18980000E+02 -0.14696E-02
 0.19030001E+02 -0.17419E-02
 0.19080000E+02 -0.18811E-02
 0.19129999E+02 -0.18908E-02
 0.19180000E+02 -0.14822E-02
 0.19230000E+02 -0.96442E-03
 0.19280001E+02 -0.13269E-03
 0.19330000E+02  0.68837E-03
 0.19379999E+02  0.50125E-03
 0.19430000E+02 -0.51351E-04
 0.19480000E+02 -0.29440E-04
 0.19530001E+02 -0.54024E-03
 0.19580000E+02 -0.90304E-03
 0.19629999E+02  0.11315E-03
 0.19680000E+02  0.11141E-02
 0.19730000E+02  0.15269E-02
 0.19780001E+02  0.14810E-02
 0.19830000E+02  0.44395E-03
 0.19879999E+02 -0.97022E-04
 0.19930000E+02  0.92608E-04
 0.19980000E+02 -0.35328E-03
 0.20030001E+02 -0.40668E-03
 0.20080000E+02 -0.94887E-04
 0.20129999E+02 -0.22858E-03
 0.20180000E+02 -0.36296E-03
 0.20230000E+02 -0.78574E-03
 0.20280001E+02 -0.51539E-03
 0.20330000E+02  0.37592E-03
 0.20379999E+02  0.76690E-03
 0.20430000E+02  0.62560E-03
 0.20480000E+02 -0.78819E-03
 0.20530001E+02 -0.14105E-02
 0.20580000E+02 -0.75699E-03
 0.20629999E+02 -0.77732E-03
 0.20680000E+02 -0.83162E-03
 0.20730000E+02 -0.53255E-03
 0.20780001E+02  0.59704E-04
 0.20830000E+02  0.52124E-03
 0.20879999E+02  0.58160E-03
 0.20930000E+02  0.95069E-03
 0.20980000E+02  0.12183E-02
 0.21030001E+02  0.14189E-02
 0.21080000E+02  0.18463E-02
 0.21129999E+02  0.10876E-02
 0.21180000E+02  0.35546E-03
 0.21230000E+02  0.45690E-03
 0.21280001E+02 -0.16026E-03
 0.21330000E+02 -0.63783E-03
 0.21379999E+02 -0.65060E-03
 0.21430000E+02 -0.91081E-03
 0.21480000E+02 -0.99063E-03
 0.21530001E+02 -0.84029E-03
 0.21580000E+02 -0.11847E-02
 0.21629999E+02 -0.14025E-02
 0.21680000E+02 -0.11233E-02
 0.21730000E+02 -0.89082E-03
 0.21780001E+02 -0.18986E-03
 0.21830000E+02  0.51042E-03
 0.21879999E+02  0.11713E-02
 0.21930000E+02  0.16413E-02
 0.21980000E+02  0.11883E-02
 0.22030001E+02  0.12308E-02
 0.22080000E+02  0.11194E-02
 0.22129999E+02  0.99401E-04
 0.22180000E+02 -0.35651E-03
 0.22230000E+02 -0.81309E-03
 0.22280001E+02 -0.12012E-02
 0.22330000E+02 -0.12145E-02
 0.22379999E+02 -0.14864E-02
 0.22430000E+02 -0.10239E-02
 0.22480000E+02 -0.23162E-03
 0.22530001E+02 -0.23071E-03
 0.22580000E+02 -0.13152E-03
 0.22629999E+02  0.16706E-03
 0.22680000E+02  0.47498E-03
 0.22730000E+02  0.11885E-02
 0.22780001E+02  0.13927E-02
 0.22830000E+02  0.79797E-03
 0.22879999E+02  0.39842E-03
 0.22930000E+02  0.20803E-03
 0.22980000E+02  0.48697E-03
 0.23030001E+02  0.96942E-03
 0.23080000E+02  0.57860E-03
 0.23129999E+02 -0.17043E-03
 0.23180000E+02 -0.86801E-03
 0.23230000E+02 -0.81069E-03
 0.23280001E+02 -0.71217E-04
 0.23330000E+02  0.32027E-03
 0.23379999E+02  0.46145E-03
 0.23430000E+02  0.27644E-03
 0.23480000E+02  0.19200E-03
 0.23530001E+02  0.10631E-03
 0.23580000E+02 -0.31318E-03
 0.23629999E+02 -0.45259E-03
 0.23680000E+02 -0.39063E-03
 0.23730000E+02 -0.40151E-03
 0.23780001E+02 -0.38254E-03
 0.23830000E+02 -0.32466E-03
 0.23879999E+02  0.62135E-04
 0.23930000E+02  0.54286E-03
 0.23980000E+02  0.55512E-03
 0.24030001E+02  0.16900E-03
 0.24080000E+02 -0.20040E-03
 0.24129999E+02 -0.17593E-03
 0.24180000E+02 -0.52195E-04
 0.24230000E+02 -0.27160E-04
 0.24280001E+02 -0.21776E-03
 0.24330000E+02 -0.34791E-03
 0.24379999E+02 -0.22386E-03
 0.24430000E+02 -0.55334E-03
 0.24480000E+02 -0.11819E-02
 0.24530001E+02 -0.13632E-02
 0.24580000E+02 -0.10019E-02
 0.24629999E+02 -0.30663E-03
 0.24680000E+02  0.25523E-03
 0.24730000E+02  0.24114E-03
 0.24780001E+02 -0.10490E-03
 0.24830000E+02 -0.16257E-03
 0.24879999E+02  0.19671E-03
 0.24930000E+02  0.79962E-03
 0.24980000E+02  0.12354E-02
 0.25030001E+02  0.88278E-03
 0.25080000E+02  0.48958E-03
 0.25129999E+02  0.34439E-03
 0.25180000E+02  0.36764E-03
 0.25230000E+02  0.10098E-02
 0.25280001E+02  0.14031E-02
 0.25330000E+02  0.15112E-02
 0.25379999E+02  0.14381E-02
 0.25430000E+02  0.87581E-03
 0.25480000E+02  0.19587E-03
 0.25530001E+02 -0.36222E-03
 0.25580000E+02 -0.68315E-03
 0.25629999E+02 -0.10725E-02
 0.25680000E+02 -0.14638E-02
 0.25730000E+02 -0.15355E-02
 0.25780001E+02 -0.11886E-02
 0.25830000E+02 -0.61109E-03
 0.25879999E+02 -0.24357E-03
 0.25930000E+02 -0.30927E-03
 0.25980000E+02 -0.26967E-03
 0.26030001E+02 -0.71821E-04
 0.26080000E+02 -0.13904E-03
 0.26129999E+02 -0.11087E-03
 0.26180000E+02  0.17221E-04
 0.26230000E+02  0.17560E-03
 0.26280001E+02  0.17366E-03
 0.26330000E+02 -0.64735E-05
 0.26379999E+02 -0.14004E-03
 0.26430000E+02  0.51345E-04
 0.26480000E+02  0.26432E-03
 0.26530001E+02  0.15709E-03
 0.26580000E+02  0.37967E-03
 0.26629999E+02  0.66202E-03
 0.26680000E+02  0.60003E-03
 0.26730000E+02  0.43745E-03
 0.26780001E+02  0.40522E-03
 0.26830000E+02  0.37265E-03
 0.26879999E+02 -0.20098E-04
 0.26930000E+02 -0.71787E-03
 0.26980000E+02 -0.11693E-02
 0.27030001E+02 -0.12845E-02
 0.27080000E+02 -0.13255E-02
 0.27129999E+02 -0.97633E-03
 0.27180000E+02 -0.52075E-03
 0.27230000E+02  0.30489E-05
 0.27280001E+02  0.69627E-03
 0.27330000E+02  0.83247E-03
 0.27379999E+02  0.60362E-03
 0.27430000E+02  0.48403E-03
 0.27480000E+02  0.35034E-03
 0.27530001E+02  0.22446E-03
 0.27580000E+02  0.31480E-04
 0.27629999E+02 -0.26614E-03
 0.27680000E+02 -0.44784E-03
 0.27730000E+02 -0.46655E-03
 0.27780001E+02 -0.22846E-03
 0.27830000E+02  0.14703E-03
 0.27879999E+02  0.52370E-03
 0.27930000E+02  0.81842E-03
 0.27980000E+02  0.76639E-03
 0.28030001E+02  0.59195E-03
 0.28080000E+02  0.50799E-03
 0.28129999E+02  0.38911E-03
 0.28180000E+02  0.93264E-04
 0.28230000E+02  0.10904E-04
 0.28280001E+02  0.35041E-03
 0.28330000E+02  0.65629E-03
 0.28379999E+02  0.56177E-03
 0.28430000E+02  0.23981E-03
 0.28480000E+02  0.72896E-05
 0.28530001E+02 -0.38465E-03
 0.28580000E+02 -0.73707E-03
 0.28629999E+02 -0.75033E-03
 0.28680000E+02 -0.67435E-03
 0.28730000E+02 -0.74440E-03
 0.28780001E+02 -0.57606E-03
 0.28830000E+02 -0.16954E-03
 0.28879999E+02  0.44714E-04
 0.28930000E+02  0.30991E-03
 0.28980000E+02  0.39377E-03
 0.29030001E+02  0.16400E-03
 0.29080000E+02 -0.32158E-03
 0.29129999E+02 -0.64078E-03
 0.29180000E+02 -0.46717E-03
 0.29230000E+02 -0.34588E-03
 0.29280001E+02 -0.13665E-03
 0.29330000E+02  0.91355E-04
 0.29379999E+02  0.10843E-03
 0.29430000E+02  0.10396E-03
 0.29480000E+02  0.23884E-04
 0.29530001E+02 -0.27393E-04
 0.29580000E+02  0.10431E-03
 0.29629999E+02  0.30658E-03
 0.29680000E+02  0.55704E-03
 0.29730000E+02  0.78994E-03
 0.29780001E+02  0.86751E-03
 0.29830000E+02  0.89390E-03
 0.29879999E+02  0.86729E-03
 0.29930000E+02  0.85071E-03
 0.29980000E+02  0.60307E-03
 0.30030001E+02  0.22519E-04
 0.30080000E+02 -0.40572E-03
 0.30129999E+02 -0.66821E-03
 0.30180000E+02 -0.74917E-03
 0.30230000E+02 -0.48657E-03
 0.30280001E+02 -0.34598E-03
 0.30330000E+02 -0.46328E-03
 0.30379999E+02 -0.65513E-03
 0.30430000E+02 -0.89095E-03
 0.30480000E+02 -0.86687E-03
 0.30530001E+02 -0.66792E-03
 0.30580000E+02 -0.28460E-03
 0.30629999E+02 -0.13351E-04
 0.30680000E+02 -0.20558E-03
 0.30730000E+02 -0.40123E-03
 0.30780001E+02 -0.50387E-03
 0.30830000E+02 -0.51398E-03
 0.30879999E+02 -0.44370E-03
 0.30930000E+02 -0.36766E-03
 0.30980000E+02 -0.17401E-03
 0.31030001E+02  0.48572E-04
 0.31080000E+02  0.16015E-03
 0.31129999E+02  0.30597E-03
 0.31180000E+02  0.51684E-03
 0.31230000E+02  0.58521E-03
 0.31280001E+02  0.65149E-03
 0.31330000E+02  0.87764E-03
 0.31379999E+02  0.95561E-03
 0.31430000E+02  0.75741E-03
 0.31480000E+02  0.58655E-03
 0.31530001E+02  0.66730E-03
 0.31580000E+02  0.89254E-03
 0.31629999E+02  0.90087E-03
 0.31680000E+02  0.60791E-03
 0.31730000E+02  0.15784E-03
 0.31780001E+02 -0.16025E-03
 0.31830000E+02 -0.27622E-03
 0.31879999E+02 -0.29069E-03
 0.31930000E+02 -0.31364E-03
 0.31980000E+02 -0.57098E-03
 0.32029999E+02 -0.69783E-03
 0.32080002E+02 -0.53041E-03
 0.32130001E+02 -0.36440E-03
 0.32180000E+02 -0.35104E-03
 0.32230000E+02 -0.47675E-03
 0.32279999E+02 -0.62909E-03
 0.32330002E+02 -0.70243E-03
 0.32380001E+02 -0.61415E-03
 0.32430000E+02 -0.33477E-03
 0.32480000E+02  0.12330E-04
 0.32529999E+02  0.56672E-04
 0.32580002E+02 -0.17454E-03
 0.32630001E+02 -0.26250E-03
 0.32680000E+02 -0.99524E-06
 0.32730000E+02  0.30349E-03
 0.32779999E+02  0.37333E-03
 0.32830002E+02  0.22721E-03
 0.32880001E+02 -0.59939E-05
 0.32930000E+02  0.58995E-04
 0.32980000E+02  0.24618E-03
 0.33029999E+02  0.23901E-03
 0.33080002E+02  0.38290E-04
 0.33130001E+02 -0.21181E-03
 0.33180000E+02 -0.26521E-03
 0.33230000E+02 -0.24023E-03
 0.33279999E+02 -0.37801E-04
 0.33330002E+02  0.31250E-03
 0.33380001E+02  0.69372E-03
 0.33430000E+02  0.10347E-02
 0.33480000E+02  0.10458E-02
 0.33529999E+02  0.90111E-03
 0.33580002E+02  0.73146E-03
 0.33630001E+02  0.51860E-03
 0.33680000E+02  0.21883E-03
 0.33730000E+02 -0.18219E-03
 0.33779999E+02 -0.52063E-03
 0.33830002E+02 -0.70711E-03
 0.33880001E+02 -0.72591E-03
 0.33930000E+02 -0.63247E-03
 0.33980000E+02 -0.43632E-03
 0.34029999E+02 -0.26107E-03
 0.34080002E+02 -0.18853E-03
 0.34130001E+02 -0.26967E-03
 0.34180000E+02 -0.36557E-03
 0.34230000E+02 -0.14300E-03
 0.34279999E+02  0.15342E-03
 0.34330002E+02  0.20351E-03
 0.34380001E+02  0.10992E-03
 0.34430000E+02 -0.77525E-04
 0.34480000E+02 -0.21526E-03
 0.34529999E+02 -0.70391E-04
 0.34580002E+02  0.20091E-03
 0.34630001E+02  0.34883E-03
 0.34680000E+02  0.30067E-03
 0.34730000E+02  0.47194E-04
 0.34779999E+02 -0.25971E-03
 0.34830002E+02 -0.41224E-03
 0.34880001E+02 -0.44961E-03
 0.34930000E+02 -0.46423E-03
 0.34980000E+02 -0.39988E-03
 0.35029999E+02 -0.30955E-03
 0.35080002E+02 -0.26674E-03
 0.35130001E+02 -0.23796E-03
 0.35180000E+02 -0.18742E-03
 0.35230000E+02  0.58139E-04
 0.35279999E+02  0.56641E-03
 0.35330002E+02  0.10747E-02
 0.35380001E+02  0.12855E-02
 0.35430000E+02  0.10751E-02
 0.35480000E+02  0.77910E-03
 0.35529999E+02  0.66614E-03
 0.35580002E+02  0.62991E-03
 0.35630001E+02  0.59887E-03
 0.35680000E+02  0.40929E-03
 0.35730000E+02  0.99316E-04
 0.35779999E+02 -0.12210E-03
 0.35830002E+02 -0.29074E-03
 0.35880001E+02 -0.44816E-03
 0.35930000E+02 -0.56692E-03
 0.35980000E+02 -0.70197E-03
 0.36029999E+02 -0.71598E-03
 0.36080002E+02 -0.59266E-03
 0.36130001E+02 -0.54817E-03
 0.36180000E+02 -0.51028E-03
 0.36230000E+02 -0.45722E-03
 0.36279999E+02 -0.47474E-03
 0.36330002E+02 -0.52078E-03
 0.36380001E+02 -0.48928E-03
 0.36430000E+02 -0.33261E-03
 0.36480000E+02 -0.11697E-03
 0.36529999E+02  0.17468E-05
 0.36580002E+02 -0.10787E-04
 0.36630001E+02  0.89476E-04
 0.36680000E+02  0.19261E-03
 0.36730000E+02  0.64777E-04
 0.36779999E+02 -0.45788E-04
 0.36830002E+02 -0.66995E-04
 0.36880001E+02 -0.11064E-03
 0.36930000E+02 -0.14232E-03
 0.36980000E+02 -0.15965E-03
 0.37029999E+02 -0.81656E-04
 0.37080002E+02  0.15251E-03
 0.37130001E+02  0.43927E-03
 0.37180000E+02  0.63927E-03
 0.37230000E+02  0.66654E-03
 0.37279999E+02  0.49742E-03
 0.37330002E+02  0.22130E-03
 0.37380001E+02 -0.29037E-04
 0.37430000E+02 -0.17027E-03
 0.37480000E+02 -0.22469E-03
 0.37529999E+02 -0.15006E-03
 0.37580002E+02  0.12341E-03
 0.37630001E+02  0.39656E-03
 0.37680000E+02  0.48471E-03
 0.37730000E+02  0.38946E-03
 0.37779999E+02  0.22143E-03
 0.37830002E+02  0.91234E-04
 0.37880001E+02 -0.62934E-05
 0.37930000E+02 -0.11859E-03
 0.37980000E+02 -0.15044E-03
 0.38029999E+02 -0.22631E-04
 0.38080002E+02  0.11945E-03
 0.38130001E+02  0.18205E-03
 0.38180000E+02  0.24130E-03
 0.38230000E+02  0.35918E-03
 0.38279999E+02  0.41762E-03
 0.38330002E+02  0.26686E-03
 0.38380001E+02 -0.68028E-04
 0.38430000E+02 -0.39722E-03
 0.38480000E+02 -0.54250E-03
 0.38529999E+02 -0.48124E-03
 0.38580002E+02 -0.34649E-03
 0.38630001E+02 -0.32835E-03
 0.38680000E+02 -0.47022E-03
 0.38730000E+02 -0.56846E-03
 0.38779999E+02 -0.44892E-03
 0.38830002E+02 -0.22166E-03
 0.38880001E+02 -0.90440E-04
 0.38930000E+02 -0.11286E-03
 0.38980000E+02 -0.14676E-03
 0.39029999E+02 -0.75814E-04
 0.39080002E+02  0.11094E-03
 0.39130001E+02  0.23340E-03
 0.39180000E+02  0.22833E-03
 0.39230000E+02  0.25429E-03
 0.39279999E+02  0.31044E-03
 0.39330002E+02  0.47914E-03
 0.39380001E+02  0.66740E-03
 0.39430000E+02  0.73461E-03
 0.39480000E+02  0.68719E-03
 0.39529999E+02  0.41060E-03
 0.39580002E+02  0.39111E-04
 0.39630001E+02 -0.17303E-03
 0.39680000E+02 -0.22382E-03
 0.39730000E+02 -0.22465E-03
 0.39779999E+02 -0.20318E-03
 0.39830002E+02 -0.16068E-03
 0.39880001E+02 -0.97512E-04
 0.39930000E+02 -0.89903E-04
 0.39980000E+02 -0.22945E-03
 0.40029999E+02 -0.43433E-03
 0.40080002E+02 -0.52376E-03
 0.40130001E+02 -0.44154E-03
 0.40180000E+02 -0.34877E-03
 0.40230000E+02 -0.30233E-03
 0.40279999E+02 -0.25096E-03
 0.40330002E+02 -0.15595E-03
 0.40380001E+02 -0.14710E-04
 0.40430000E+02  0.14305E-03
 0.40480000E+02  0.33621E-03
 0.40529999E+02  0.50766E-03
 0.40580002E+02  0.54459E-03
 0.40630001E+02  0.42371E-03
 0.40680000E+02  0.26878E-03
 0.40730000E+02  0.13663E-03
 0.40779999E+02  0.18507E-04
 0.40830002E+02 -0.10513E-03
 0.40880001E+02 -0.22724E-03
 0.40930000E+02 -0.23850E-03
 0.40980000E+02 -0.12984E-03
 0.41029999E+02  0.47328E-04
 0.41080002E+02  0.19838E-03
 0.41130001E+02  0.26573E-03
 0.41180000E+02  0.19977E-03
 0.41230000E+02  0.12837E-04
 0.41279999E+02 -0.10384E-03
 0.41330002E+02 -0.17026E-03
 0.41380001E+02 -0.24726E-03
 0.41430000E+02 -0.28836E-03
 0.41480000E+02 -0.25860E-03
 0.41529999E+02 -0.93913E-04
 0.41580002E+02  0.97656E-04
 0.41630001E+02  0.19512E-03
 0.41680000E+02  0.15638E-03
 0.41730000E+02 -0.25597E-04
 0.41779999E+02 -0.22975E-03
 0.41830002E+02 -0.33990E-03
 0.41880001E+02 -0.36922E-03
 0.41930000E+02 -0.31195E-03
 0.41980000E+02 -0.12536E-03
 0.42029999E+02  0.15253E-04
 0.42080002E+02 -0.68063E-05
 0.42130001E+02 -0.83222E-04
 0.42180000E+02 -0.16284E-03
 0.42230000E+02 -0.15958E-03
 0.42279999E+02 -0.53892E-04
 0.42330002E+02  0.23346E-04
 0.42380001E+02  0.61018E-04
 0.42430000E+02  0.81327E-04
 0.42480000E+02  0.12902E-03
 0.42529999E+02  0.23728E-03
 0.42580002E+02  0.25299E-03
 0.42630001E+02  0.85771E-04
 0.42680000E+02 -0.98418E-04
 0.42730000E+02 -0.12118E-03
 0.42779999E+02 -0.49838E-04
 0.42830002E+02  0.36302E-04
 0.42880001E+02  0.15704E-03
 0.42930000E+02  0.28710E-03
 0.42980000E+02  0.39378E-03
 0.43029999E+02  0.46320E-03
 0.43080002E+02  0.47335E-03
 0.43130001E+02  0.39251E-03
 0.43180000E+02  0.30942E-03
 0.43230000E+02  0.27748E-03
 0.43279999E+02  0.22708E-03
 0.43330002E+02  0.80092E-04
 0.43380001E+02 -0.13249E-03
 0.43430000E+02 -0.28626E-03
 0.43480000E+02 -0.32811E-03
 0.43529999E+02 -0.20781E-03
 0.43580002E+02 -0.52770E-04
 0.43630001E+02 -0.10356E-04
 0.43680000E+02 -0.53910E-04
 0.43730000E+02 -0.12341E-03
 0.43779999E+02 -0.88071E-04
 0.43830002E+02  0.47111E-04
 0.43880001E+02  0.15918E-03
 0.43930000E+02  0.17476E-03
 0.43980000E+02  0.11500E-03
 0.44029999E+02  0.69699E-04
 0.44080002E+02  0.92882E-04
 0.44130001E+02  0.15367E-03
 0.44180000E+02  0.10947E-03
 0.44230000E+02  0.23762E-05
 0.44279999E+02 -0.11617E-03
 0.44330002E+02 -0.27361E-03
 0.44380001E+02 -0.37818E-03
 0.44430000E+02 -0.45118E-03
 0.44480000E+02 -0.47884E-03
 0.44529999E+02 -0.40594E-03
 0.44580002E+02 -0.22934E-03
 0.44630001E+02 -0.64883E-04
 0.44680000E+02 -0.16689E-04
 0.44730000E+02 -0.21713E-04
 0.44779999E+02 -0.49328E-04
 0.44830002E+02 -0.44434E-04
 0.44880001E+02 -0.31945E-04
 0.44930000E+02 -0.48577E-04
 0.44980000E+02 -0.49808E-04
 0.45029999E+02 -0.35750E-04
 0.45080002E+02  0.37158E-04
 0.45130001E+02  0.17747E-03
 0.45180000E+02  0.35572E-03
 0.45230000E+02  0.54030E-03
 0.45279999E+02  0.62809E-03
 0.45330002E+02  0.58443E-03
 0.45380001E+02  0.41848E-03
 0.45430000E+02  0.17694E-03
 0.45480000E+02  0.34957E-05
 0.45529999E+02 -0.14260E-03
 0.45580002E+02 -0.33579E-03
 0.45630001E+02 -0.47928E-03
 0.45680000E+02 -0.53943E-03
 0.45730000E+02 -0.49082E-03
 0.45779999E+02 -0.34099E-03
 0.45830002E+02 -0.19851E-03
 0.45880001E+02 -0.13548E-03
 0.45930000E+02 -0.13593E-03
 0.45980000E+02 -0.13656E-03
 0.46029999E+02 -0.13974E-03
 0.46080002E+02 -0.14439E-03
 0.46130001E+02 -0.13572E-03
 0.46180000E+02 -0.11464E-03
 0.46230000E+02 -0.64848E-04
 0.46279999E+02 -0.10431E-04
 0.46330002E+02  0.63354E-04
 0.46380001E+02  0.16193E-03
 0.46430000E+02  0.28105E-03
 0.46480000E+02  0.41683E-03
 0.46529999E+02  0.55277E-03
 0.46580002E+02  0.66933E-03
 0.46630001E+02  0.66536E-03
 0.46680000E+02  0.54852E-03
 0.46730000E+02  0.37821E-03
 0.46779999E+02  0.20481E-03
 0.46830002E+02  0.59056E-04
 0.46880001E+02 -0.14468E-03
 0.46930000E+02 -0.37549E-03
 0.46980000E+02 -0.53625E-03
 0.47029999E+02 -0.58273E-03
 0.47080002E+02 -0.50545E-03
 0.47130001E+02 -0.37509E-03
 0.47180000E+02 -0.27366E-03
 0.47230000E+02 -0.23683E-03
 0.47279999E+02 -0.22667E-03
 0.47330002E+02 -0.21849E-03
 0.47380001E+02 -0.21306E-03
 0.47430000E+02 -0.17262E-03
 0.47480000E+02 -0.80525E-04
 0.47529999E+02  0.53741E-04
 0.47580002E+02  0.15879E-03
 0.47630001E+02  0.16419E-03
 0.47680000E+02  0.95657E-04
 0.47730000E+02  0.31620E-04
 0.47779999E+02  0.11084E-04
 0.47830002E+02  0.11817E-04
 0.47880001E+02  0.18928E-04
 0.47930000E+02  0.10119E-04
 0.47980000E+02  0.42351E-04
 0.48029999E+02  0.15173E-03
 0.48080002E+02  0.24747E-03
 0.48130001E+02  0.28495E-03
 0.48180000E+02  0.27057E-03
 0.48230000E+02  0.28820E-03
 0.48279999E+02  0.39357E-03
 0.48330002E+02  0.51153E-03
 0.48380001E+02  0.55563E-03
 0.48430000E+02  0.49525E-03
 0.48480000E+02  0.37596E-03
 0.48529999E+02  0.22941E-03
 0.48580002E+02  0.10025E-03
 0.48630001E+02  0.14683E-04
 0.48680000E+02 -0.54644E-04
 0.48730000E+02 -0.11599E-03
 0.48779999E+02 -0.23323E-03
 0.48830002E+02 -0.37668E-03
 0.48880001E+02 -0.41556E-03
 0.48930000E+02 -0.37137E-03
 0.48980000E+02 -0.30921E-03
 0.49029999E+02 -0.28069E-03
 0.49080002E+02 -0.30940E-03
 0.49130001E+02 -0.31409E-03
 0.49180000E+02 -0.26888E-03
 0.49230000E+02 -0.16798E-03
 0.49279999E+02 -0.39980E-04
 0.49330002E+02  0.21705E-04
 0.49380001E+02  0.33264E-04
 0.49430000E+02  0.26730E-04
 0.49480000E+02 -0.81307E-05
 0.49529999E+02 -0.11388E-04
 0.49580002E+02 -0.33910E-05
 0.49630001E+02 -0.73136E-04
 0.49680000E+02 -0.14316E-03
 0.49730000E+02 -0.14772E-03
 0.49779999E+02 -0.10822E-03
 0.49830002E+02 -0.74210E-04
 0.49880001E+02 -0.91821E-04
 0.49930000E+02 -0.10839E-03
 0.49980000E+02 -0.81829E-04
 0.50029999E+02 -0.49575E-04
 0.50080002E+02 -0.40555E-04
 0.50130001E+02 -0.87790E-05
 0.50180000E+02  0.85436E-04
 0.50230000E+02  0.22960E-03
 0.50279999E+02  0.34590E-03
 0.50330002E+02  0.40508E-03
 0.50380001E+02  0.41534E-03
 0.50430000E+02  0.34415E-03
 0.50480000E+02  0.21767E-03
 0.50529999E+02  0.52548E-04
 0.50580002E+02 -0.12631E-03
 0.50630001E+02 -0.25323E-03
 0.50680000E+02 -0.27196E-03
 0.50730000E+02 -0.21112E-03
 0.50779999E+02 -0.14390E-03
 0.50830002E+02 -0.85273E-04
 0.50880001E+02 -0.46420E-04
 0.50930000E+02 -0.15819E-04
 0.50980000E+02  0.23239E-04
 0.51029999E+02  0.55112E-04
 0.51080002E+02  0.60025E-05
 0.51130001E+02 -0.16946E-03
 0.51180000E+02 -0.36276E-03
 0.51230000E+02 -0.49117E-03
 0.51279999E+02 -0.51215E-03
 0.51330002E+02 -0.35865E-03
 0.51380001E+02 -0.68661E-04
 0.51430000E+02  0.26354E-03
 0.51480000E+02  0.52426E-03
 0.51529999E+02  0.65175E-03
 0.51580002E+02  0.67520E-03
 0.51630001E+02  0.62059E-03
 0.51680000E+02  0.53662E-03
 0.51730000E+02  0.42909E-03
 0.51779999E+02  0.27223E-03
 0.51830002E+02  0.99787E-04
 0.51880001E+02 -0.30650E-04
 0.51930000E+02 -0.10910E-03
 0.51980000E+02 -0.15214E-03
 0.52029999E+02 -0.15799E-03
 0.52080002E+02 -0.15721E-03
 0.52130001E+02 -0.16342E-03
 0.52180000E+02 -0.18279E-03
 0.52230000E+02 -0.22941E-03
 0.52279999E+02 -0.27457E-03
 0.52330002E+02 -0.28010E-03
 0.52380001E+02 -0.23805E-03
 0.52430000E+02 -0.16693E-03
 0.52480000E+02 -0.63269E-04
 0.52529999E+02  0.87493E-04
 0.52580002E+02  0.23352E-03
 0.52630001E+02  0.30467E-03
 0.52680000E+02  0.31319E-03
 0.52730000E+02  0.28741E-03
 0.52779999E+02  0.21755E-03
 0.52830002E+02  0.92923E-04
 0.52880001E+02 -0.29033E-04
 0.52930000E+02 -0.96248E-04
 0.52980000E+02 -0.13151E-03
 0.53029999E+02 -0.13164E-03
 0.53080002E+02 -0.12836E-03
 0.53130001E+02 -0.17339E-03
 0.53180000E+02 -0.24338E-03
 0.53230000E+02 -0.32720E-03
 0.53279999E+02 -0.42373E-03
 0.53330002E+02 -0.49053E-03
 0.53380001E+02 -0.48756E-03
 0.53430000E+02 -0.40333E-03
 0.53480000E+02 -0.23737E-03
 0.53529999E+02 -0.21013E-04
 0.53580002E+02  0.16005E-03
 0.53630001E+02  0.27501E-03
 0.53680000E+02  0.35134E-03
 0.53730000E+02  0.39863E-03
 0.53779999E+02  0.44072E-03
 0.53830002E+02  0.46878E-03
 0.53880001E+02  0.45601E-03
 0.53930000E+02  0.43086E-03
 0.53980000E+02  0.41212E-03
 0.54029999E+02  0.35716E-03
 0.54080002E+02  0.26063E-03
 0.54130001E+02  0.15116E-03
 0.54180000E+02  0.15379E-04
 0.54230000E+02 -0.13828E-03
 0.54279999E+02 -0.28200E-03
 0.54330002E+02 -0.39068E-03
 0.54380001E+02 -0.45106E-03
 0.54430000E+02 -0.44627E-03
 0.54480000E+02 -0.36752E-03
 0.54529999E+02 -0.26442E-03
 0.54580002E+02 -0.18426E-03
 0.54630001E+02 -0.14198E-03
 0.54680000E+02 -0.11690E-03
 0.54730000E+02 -0.11404E-03
 0.54779999E+02 -0.16452E-03
 0.54830002E+02 -0.22585E-03
 0.54880001E+02 -0.25166E-03
 0.54930000E+02 -0.23249E-03
 0.54980000E+02 -0.16395E-03
 0.55029999E+02 -0.61122E-04
 0.55080002E+02  0.46691E-04
 0.55130001E+02  0.14467E-03
 0.55180000E+02  0.24902E-03
 0.55230000E+02  0.33116E-03
 0.55279999E+02  0.35067E-03
 0.55330002E+02  0.32840E-03
 0.55380001E+02  0.29242E-03
 0.55430000E+02  0.26665E-03
 0.55480000E+02  0.24756E-03
 0.55529999E+02  0.21656E-03
 0.55580002E+02  0.19628E-03
 0.55630001E+02  0.20127E-03
 0.55680000E+02  0.18358E-03
 0.55730000E+02  0.11414E-03
 0.55779999E+02  0.24704E-04
 0.55830002E+02 -0.44430E-04
 0.55880001E+02 -0.52109E-04
 0.55930000E+02 -0.11506E-04
 0.55980000E+02  0.31689E-04
 0.56029999E+02  0.66126E-04
 0.56080002E+02  0.71491E-04
 0.56130001E+02  0.43955E-04
 0.56180000E+02 -0.17269E-05
 0.56230000E+02 -0.52749E-04
 0.56279999E+02 -0.82703E-04
 0.56330002E+02 -0.88115E-04
 0.56380001E+02 -0.92159E-04
 0.56430000E+02 -0.12222E-03
 0.56480000E+02 -0.17827E-03
 0.56529999E+02 -0.23696E-03
 0.56580002E+02 -0.26886E-03
 0.56630001E+02 -0.25173E-03
 0.56680000E+02 -0.17966E-03
 0.56730000E+02 -0.79615E-04
 0.56779999E+02 -0.23467E-04
 0.56830002E+02 -0.19097E-04
 0.56880001E+02 -0.22043E-04
 0.56930000E+02 -0.33275E-04
 0.56980000E+02 -0.48016E-04
 0.57029999E+02 -0.58490E-04
 0.57080002E+02 -0.86124E-04
 0.57130001E+02 -0.12968E-03
 0.57180000E+02 -0.18747E-03
 0.57230000E+02 -0.23147E-03
 0.57279999E+02 -0.20642E-03
 0.57330002E+02 -0.13846E-03
 0.57380001E+02 -0.79791E-04
 0.57430000E+02 -0.46356E-04
 0.57480000E+02 -0.12768E-04
 0.57529999E+02  0.47824E-04
 0.57580002E+02  0.11885E-03
 0.57630001E+02  0.16369E-03
 0.57680000E+02  0.16066E-03
 0.57730000E+02  0.13217E-03
 0.57779999E+02  0.11719E-03
 0.57830002E+02  0.14217E-03
 0.57880001E+02  0.17498E-03
 0.57930000E+02  0.17144E-03
 0.57980000E+02  0.12724E-03
 0.58029999E+02  0.52683E-04
 0.58080002E+02 -0.16931E-04
 0.58130001E+02 -0.46482E-04
 0.58180000E+02 -0.36550E-04
 0.58230000E+02 -0.55947E-05
 0.58279999E+02  0.56802E-04
 0.58330002E+02  0.16236E-03
 0.58380001E+02  0.26800E-03
 0.58430000E+02  0.32411E-03
 0.58480000E+02  0.34528E-03
 0.58529999E+02  0.35297E-03
 0.58580002E+02  0.33898E-03
 0.58630001E+02  0.28924E-03
 0.58680000E+02  0.19531E-03
 0.58730000E+02  0.93010E-04
 0.58779999E+02  0.13959E-04
 0.58830002E+02 -0.43859E-04
 0.58880001E+02 -0.93284E-04
 0.58930000E+02 -0.15509E-03
 0.58980000E+02 -0.21942E-03
 0.59029999E+02 -0.25475E-03
 0.59080002E+02 -0.25420E-03
 0.59130001E+02 -0.24009E-03
 0.59180000E+02 -0.23740E-03
 0.59230000E+02 -0.25963E-03
 0.59279999E+02 -0.30439E-03
 0.59330002E+02 -0.34551E-03
 0.59380001E+02 -0.35673E-03
 0.59430000E+02 -0.34472E-03
 0.59480000E+02 -0.32245E-03
 0.59529999E+02 -0.28101E-03
 0.59580002E+02 -0.22563E-03
 0.59630001E+02 -0.15213E-03
 0.59680000E+02 -0.45410E-04
 0.59730000E+02  0.60675E-04
 0.59779999E+02  0.15063E-03
 0.59830002E+02  0.24808E-03
 0.59880001E+02  0.35252E-03
 0.59930000E+02  0.43962E-03
 0.59980000E+02  0.48112E-03
 0.60029999E+02  0.46305E-03
 0.60080002E+02  0.39252E-03
 0.60130001E+02  0.29593E-03
 0.60180000E+02  0.19143E-03
 0.60230000E+02  0.10010E-03
 0.60279999E+02  0.56720E-04
 0.60330002E+02  0.53736E-04
 0.60380001E+02  0.50372E-04
 0.60430000E+02  0.34601E-04
 0.60480000E+02 -0.39210E-05
 0.60529999E+02 -0.83122E-04
 0.60580002E+02 -0.16990E-03
 0.60630001E+02 -0.23256E-03
 0.60680000E+02 -0.26984E-03
 0.60730000E+02 -0.27842E-03
 0.60779999E+02 -0.27060E-03
 0.60830002E+02 -0.24125E-03
 0.60880001E+02 -0.17701E-03
 0.60930000E+02 -0.94960E-04
 0.60980000E+02 -0.73686E-05
 0.61029999E+02  0.69209E-04
 0.61080002E+02  0.11031E-03
 0.61130001E+02  0.11323E-03
 0.61180000E+02  0.10051E-03
 0.61230000E+02  0.10241E-03
 0.61279999E+02  0.12344E-03
 0.61330002E+02  0.14975E-03
 0.61380001E+02  0.16583E-03
 0.61430000E+02  0.16495E-03
 0.61480000E+02  0.14098E-03
 0.61529999E+02  0.73456E-04
 0.61580002E+02 -0.33931E-04
 0.61630001E+02 -0.15294E-03
 0.61680000E+02 -0.23846E-03
 0.61730000E+02 -0.24142E-03
 0.61779999E+02 -0.19048E-03
 0.61830002E+02 -0.12840E-03
 0.61880001E+02 -0.47034E-04
 0.61930000E+02  0.46251E-04
 0.61980000E+02  0.12655E-03
 0.62029999E+02  0.16153E-03
 0.62080002E+02  0.14750E-03
 0.62130001E+02  0.10431E-03
 0.62180000E+02  0.34225E-04
 0.62230000E+02 -0.61252E-04
 0.62279999E+02 -0.16755E-03
 0.62330002E+02 -0.25134E-03
 0.62380001E+02 -0.28308E-03
 0.62430000E+02 -0.26031E-03
 0.62480000E+02 -0.21545E-03
 0.62529999E+02 -0.17660E-03
 0.62580002E+02 -0.14394E-03
 0.62630001E+02 -0.12264E-03
 0.62680000E+02 -0.11064E-03
 0.62730000E+02 -0.93450E-04
 0.62779999E+02 -0.79993E-04
 0.62830002E+02 -0.70960E-04
 0.62880001E+02 -0.57379E-04
 0.62930000E+02 -0.47136E-04
 0.62980000E+02 -0.18650E-04
 0.63029999E+02  0.41645E-04
 0.63080002E+02  0.11477E-03
 0.63130001E+02  0.17436E-03
 0.63180000E+02  0.20373E-03
 0.63230000E+02  0.20773E-03
 0.63279999E+02  0.19003E-03
 0.63330002E+02  0.17399E-03
 0.63380001E+02  0.18860E-03
 0.63430000E+02  0.22370E-03
 0.63480000E+02  0.25186E-03
 0.63529999E+02  0.26121E-03
 0.63580002E+02  0.24622E-03
 0.63630001E+02  0.22041E-03
 0.63680000E+02  0.20302E-03
 0.63730000E+02  0.17901E-03
 0.63779999E+02  0.13617E-03
 0.63830002E+02  0.84842E-04
 0.63880001E+02  0.46991E-04
 0.63930000E+02  0.26228E-04
 0.63980000E+02 -0.44187E-05
 0.64029999E+02 -0.49423E-04
 0.64080002E+02 -0.83585E-04
 0.64129997E+02 -0.82673E-04
 0.64180000E+02 -0.55281E-04
 0.64230003E+02 -0.36825E-04
 0.64279999E+02 -0.39111E-04
 0.64330002E+02 -0.46790E-04
 0.64379997E+02 -0.52721E-04
 0.64430000E+02 -0.62239E-04
 0.64480003E+02 -0.70621E-04
 0.64529999E+02 -0.86553E-04
 0.64580002E+02 -0.13003E-03
 0.64629997E+02 -0.18070E-03
 0.64680000E+02 -0.19932E-03
 0.64730003E+02 -0.18685E-03
 0.64779999E+02 -0.17445E-03
 0.64830002E+02 -0.17431E-03
 0.64879997E+02 -0.18400E-03
 0.64930000E+02 -0.18917E-03
 0.64980003E+02 -0.17439E-03
 0.65029999E+02 -0.14665E-03
 0.65080002E+02 -0.10015E-03
 0.65129997E+02 -0.36423E-04
 0.65180000E+02  0.14704E-04
 0.65230003E+02  0.46769E-04
 0.65279999E+02  0.75906E-04
 0.65330002E+02  0.10404E-03
 0.65379997E+02  0.13547E-03
 0.65430000E+02  0.17489E-03
 0.65480003E+02  0.20871E-03
 0.65529999E+02  0.24053E-03
 0.65580002E+02  0.26143E-03
 0.65629997E+02  0.24666E-03
 0.65680000E+02  0.20888E-03
 0.65730003E+02  0.16516E-03
 0.65779999E+02  0.11025E-03
 0.65830002E+02  0.37103E-04
 0.65879997E+02 -0.31659E-04
 0.65930000E+02 -0.71525E-04
 0.65980003E+02 -0.92030E-04
 0.66029999E+02 -0.10311E-03
 0.66080002E+02 -0.11428E-03
 0.66129997E+02 -0.13091E-03
 0.66180000E+02 -0.14443E-03
 0.66230003E+02 -0.15974E-03
 0.66279999E+02 -0.18021E-03
 0.66330002E+02 -0.20081E-03
 0.66379997E+02 -0.21669E-03
 0.66430000E+02 -0.20847E-03
 0.66480003E+02 -0.16578E-03
 0.66529999E+02 -0.91994E-04
 0.66580002E+02 -0.64819E-05
 0.66629997E+02  0.63999E-04
 0.66680000E+02  0.11919E-03
 0.66730003E+02  0.15172E-03
 0.66779999E+02  0.14464E-03
 0.66830002E+02  0.97062E-04
 0.66879997E+02  0.32020E-04
 0.66930000E+02 -0.73939E-05
 0.66980003E+02 -0.38565E-05
 0.67029999E+02  0.24875E-04
 0.67080002E+02  0.55076E-04
 0.67129997E+02  0.78415E-04
 0.67180000E+02  0.10184E-03
 0.67230003E+02  0.12349E-03
 0.67279999E+02  0.13575E-03
 0.67330002E+02  0.13884E-03
 0.67379997E+02  0.14676E-03
 0.67430000E+02  0.16628E-03
 0.67480003E+02  0.17526E-03
 0.67529999E+02  0.16269E-03
 0.67580002E+02  0.12697E-03
 0.67629997E+02  0.65428E-04
 0.67680000E+02 -0.18297E-04
 0.67730003E+02 -0.11027E-03
 0.67779999E+02 -0.17622E-03
 0.67830002E+02 -0.19959E-03
 0.67879997E+02 -0.18361E-03
 0.67930000E+02 -0.15318E-03
 0.67980003E+02 -0.14159E-03
 0.68029999E+02 -0.15248E-03
 0.68080002E+02 -0.17441E-03
 0.68129997E+02 -0.18625E-03
 0.68180000E+02 -0.18154E-03
 0.68230003E+02 -0.16918E-03
 0.68279999E+02 -0.15624E-03
 0.68330002E+02 -0.13996E-03
 0.68379997E+02 -0.10236E-03
 0.68430000E+02 -0.47865E-04
 0.68480003E+02  0.32289E-05
 0.68529999E+02  0.35735E-04
 0.68580002E+02  0.50456E-04
 0.68629997E+02  0.53595E-04
 0.68680000E+02  0.53889E-04
 0.68730003E+02  0.71208E-04
 0.68779999E+02  0.10838E-03
 0.68830002E+02  0.15488E-03
 0.68879997E+02  0.19367E-03
 0.68930000E+02  0.23000E-03
 0.68980003E+02  0.27488E-03
 0.69029999E+02  0.30709E-03
 0.69080002E+02  0.31146E-03
 0.69129997E+02  0.28834E-03
 0.69180000E+02  0.24846E-03
 0.69230003E+02  0.20106E-03
 0.69279999E+02  0.13599E-03
 0.69330002E+02  0.52916E-04
 0.69379997E+02 -0.29972E-04
 0.69430000E+02 -0.10967E-03
 0.69480003E+02 -0.18423E-03
 0.69529999E+02 -0.24961E-03
 0.69580002E+02 -0.30709E-03
 0.69629997E+02 -0.33227E-03
 0.69680000E+02 -0.30860E-03
 0.69730003E+02 -0.24631E-03
 0.69779999E+02 -0.15087E-03
 0.69830002E+02 -0.41624E-04
 0.69879997E+02  0.56825E-04
 0.69930000E+02  0.14007E-03
 0.69980003E+02  0.20780E-03
 0.70029999E+02  0.25775E-03
 0.70080002E+02  0.27770E-03
 0.70129997E+02  0.26606E-03
 0.70180000E+02  0.23061E-03
 0.70230003E+02  0.16667E-03
 0.70279999E+02  0.84324E-04
 0.70330002E+02 -0.58330E-05
 0.70379997E+02 -0.10016E-03
 0.70430000E+02 -0.18192E-03
 0.70480003E+02 -0.23734E-03
 0.70529999E+02 -0.25893E-03
 0.70580002E+02 -0.25826E-03
 0.70629997E+02 -0.25616E-03
 0.70680000E+02 -0.24329E-03
 0.70730003E+02 -0.20254E-03
 0.70779999E+02 -0.13381E-03
 0.70830002E+02 -0.58675E-04
 0.70879997E+02 -0.41832E-05
 0.70930000E+02  0.21513E-04
 0.70980003E+02  0.31081E-04
 0.71029999E+02  0.27472E-04
 0.71080002E+02 -0.57086E-05
 0.71129997E+02 -0.51683E-04
 0.71180000E+02 -0.94593E-04
 0.71230003E+02 -0.13925E-03
 0.71279999E+02 -0.16747E-03
 0.71330002E+02 -0.16895E-03
 0.71379997E+02 -0.14412E-03
 0.71430000E+02 -0.91668E-04
 0.71480003E+02 -0.24382E-04
 0.71529999E+02  0.32113E-04
 0.71580002E+02  0.57994E-04
 0.71629997E+02  0.70176E-04
 0.71680000E+02  0.10485E-03
 0.71730003E+02  0.17120E-03
 0.71779999E+02  0.24115E-03
 0.71830002E+02  0.29209E-03
 0.71879997E+02  0.31620E-03
 0.71930000E+02  0.29626E-03
 0.71980003E+02  0.23235E-03
 0.72029999E+02  0.14690E-03
 0.72080002E+02  0.58097E-04
 0.72129997E+02 -0.18174E-04
 0.72180000E+02 -0.66963E-04
 0.72230003E+02 -0.88866E-04
 0.72279999E+02 -0.86190E-04
 0.72330002E+02 -0.58824E-04
 0.72379997E+02 -0.18395E-04
 0.72430000E+02  0.12868E-04
 0.72480003E+02  0.17417E-04
 0.72529999E+02 -0.37516E-05
 0.72580002E+02 -0.40351E-04
 0.72629997E+02 -0.72865E-04
 0.72680000E+02 -0.74999E-04
 0.72730003E+02 -0.44752E-04
 0.72779999E+02 -0.81050E-05
 0.72830002E+02  0.56427E-05
 0.72879997E+02 -0.85840E-05
 0.72930000E+02 -0.24695E-04
 0.72980003E+02 -0.30749E-04
 0.73029999E+02 -0.27430E-04
 0.73080002E+02 -0.22144E-04
 0.73129997E+02 -0.18602E-04
 0.73180000E+02  0.46737E-05
 0.73230003E+02  0.43677E-04
 0.73279999E+02  0.77268E-04
 0.73330002E+02  0.93464E-04
 0.73379997E+02  0.88021E-04
 0.73430000E+02  0.75097E-04
 0.73480003E+02  0.71060E-04
 0.73529999E+02  0.70739E-04
 0.73580002E+02  0.60746E-04
 0.73629997E+02  0.51530E-04
 0.73680000E+02  0.49286E-04
 0.73730003E+02  0.41916E-04
 0.73779999E+02  0.20678E-04
 0.73830002E+02 -0.13192E-04
 0.73879997E+02 -0.50473E-04
 0.73930000E+02 -0.83760E-04
 0.73980003E+02 -0.10636E-03
 0.74029999E+02 -0.11318E-03
 0.74080002E+02 -0.10010E-03
 0.74129997E+02 -0.68501E-04
 0.74180000E+02 -0.23612E-04
 0.74230003E+02  0.23714E-04
 0.74279999E+02  0.58404E-04
 0.74330002E+02  0.78418E-04
 0.74379997E+02  0.86860E-04
 0.74430000E+02  0.78372E-04
 0.74480003E+02  0.51886E-04
 0.74529999E+02  0.22464E-04
 0.74580002E+02 -0.22390E-05
 0.74629997E+02 -0.29653E-04
 0.74680000E+02 -0.62122E-04
 0.74730003E+02 -0.88406E-04
 0.74779999E+02 -0.99077E-04
 0.74830002E+02 -0.98721E-04
 0.74879997E+02 -0.89406E-04
 0.74930000E+02 -0.73147E-04
 0.74980003E+02 -0.60372E-04
 0.75029999E+02 -0.53366E-04
 0.75080002E+02 -0.42746E-04
 0.75129997E+02 -0.34743E-04
 0.75180000E+02 -0.46698E-04
 0.75230003E+02 -0.65817E-04
 0.75279999E+02 -0.63714E-04
 0.75330002E+02 -0.41313E-04
 0.75379997E+02 -0.21116E-04
 0.75430000E+02 -0.19380E-04
 0.75480003E+02 -0.38356E-04
 0.75529999E+02 -0.63607E-04
 0.75580002E+02 -0.81080E-04
 0.75629997E+02 -0.84058E-04
 0.75680000E+02 -0.64448E-04
 0.75730003E+02 -0.21214E-04
 0.75779999E+02  0.34841E-04
 0.75830002E+02  0.85756E-04
 0.75879997E+02  0.11519E-03
 0.75930000E+02  0.12139E-03
 0.75980003E+02  0.12013E-03
 0.76029999E+02  0.11985E-03
 0.76080002E+02  0.11213E-03
 0.76129997E+02  0.93847E-04
 0.76180000E+02  0.77400E-04
 0.76230003E+02  0.67753E-04
 0.76279999E+02  0.57538E-04
 0.76330002E+02  0.52056E-04
 0.76379997E+02  0.51355E-04
 0.76430000E+02  0.40586E-04
 0.76480003E+02  0.22002E-04
 0.76529999E+02  0.12313E-04
 0.76580002E+02  0.15654E-04
 0.76629997E+02  0.13377E-04
 0.76680000E+02 -0.11866E-04
 0.76730003E+02 -0.51117E-04
 0.76779999E+02 -0.86318E-04
 0.76830002E+02 -0.10347E-03
 0.76879997E+02 -0.10948E-03
 0.76930000E+02 -0.11841E-03
 0.76980003E+02 -0.11958E-03
 0.77029999E+02 -0.10016E-03
 0.77080002E+02 -0.58817E-04
 0.77129997E+02 -0.36942E-05
 0.77180000E+02  0.55682E-04
 0.77230003E+02  0.10606E-03
 0.77279999E+02  0.13086E-03
 0.77330002E+02  0.12626E-03
 0.77379997E+02  0.10160E-03
 0.77430000E+02  0.72656E-04
 0.77480003E+02  0.51318E-04
 0.77529999E+02  0.43679E-04
 0.77580002E+02  0.44825E-04
 0.77629997E+02  0.50367E-04
 0.77680000E+02  0.56937E-04
 0.77730003E+02  0.53019E-04
 0.77779999E+02  0.39254E-04
 0.77830002E+02  0.18467E-04
 0.77879997E+02 -0.75547E-05
 0.77930000E+02 -0.28585E-04
 0.77980003E+02 -0.35480E-04
 0.78029999E+02 -0.23860E-04
 0.78080002E+02 -0.12053E-04
 0.78129997E+02 -0.19649E-04
 0.78180000E+02 -0.38906E-04
 0.78230003E+02 -0.64189E-04
 0.78279999E+02 -0.90461E-04
 0.78330002E+02 -0.10836E-03
 0.78379997E+02 -0.11811E-03
 0.78430000E+02 -0.11999E-03
 0.78480003E+02 -0.11033E-03
 0.78529999E+02 -0.92966E-04
 0.78580002E+02 -0.76736E-04
 0.78629997E+02 -0.62313E-04
 0.78680000E+02 -0.49935E-04
 0.78730003E+02 -0.32846E-04
 0.78779999E+02  0.30308E-05
 0.78830002E+02  0.53580E-04
 0.78879997E+02  0.95398E-04
 0.78930000E+02  0.11491E-03
 0.78980003E+02  0.12232E-03
 0.79029999E+02  0.12939E-03
 0.79080002E+02  0.13386E-03
 0.79129997E+02  0.12517E-03
 0.79180000E+02  0.96104E-04
 0.79230003E+02  0.45138E-04
 0.79279999E+02 -0.21358E-04
 0.79330002E+02 -0.89549E-04
 0.79379997E+02 -0.14610E-03
 0.79430000E+02 -0.17845E-03
 0.79480003E+02 -0.18699E-03
 0.79529999E+02 -0.17766E-03
 0.79580002E+02 -0.14370E-03
 0.79629997E+02 -0.90093E-04
 0.79680000E+02 -0.33092E-04
 0.79730003E+02  0.20187E-04
 0.79779999E+02  0.65847E-04
 0.79830002E+02  0.10167E-03
 0.79879997E+02  0.12476E-03
 0.79930000E+02  0.13351E-03
 0.79980003E+02  0.13449E-03
 0.80029999E+02  0.13096E-03
 0.80080002E+02  0.12141E-03
 0.80129997E+02  0.10772E-03
 0.80180000E+02  0.91593E-04
 0.80230003E+02  0.79377E-04
 0.80279999E+02  0.71697E-04
 0.80330002E+02  0.58037E-04
 0.80379997E+02  0.34141E-04
 0.80430000E+02  0.98495E-06
 0.80480003E+02 -0.40822E-04
 0.80529999E+02 -0.88164E-04
 0.80580002E+02 -0.12462E-03
 0.80629997E+02 -0.13396E-03
 0.80680000E+02 -0.11589E-03
 0.80730003E+02 -0.77852E-04
 0.80779999E+02 -0.38658E-04
 0.80830002E+02 -0.13669E-04
 0.80879997E+02 -0.37587E-05
 0.80930000E+02 -0.75176E-05
 0.80980003E+02 -0.22601E-04
 0.81029999E+02 -0.43167E-04
 0.81080002E+02 -0.57940E-04
 0.81129997E+02 -0.59659E-04
 0.81180000E+02 -0.54072E-04
 0.81230003E+02 -0.43676E-04
 0.81279999E+02 -0.23124E-04
 0.81330002E+02  0.67442E-05
 0.81379997E+02  0.39458E-04
 0.81430000E+02  0.69180E-04
 0.81480003E+02  0.96790E-04
 0.81529999E+02  0.12075E-03
 0.81580002E+02  0.13641E-03
 0.81629997E+02  0.13559E-03
 0.81680000E+02  0.10518E-03
 0.81730003E+02  0.58775E-04
 0.81779999E+02  0.10845E-04
 0.81830002E+02 -0.29849E-04
 0.81879997E+02 -0.59600E-04
 0.81930000E+02 -0.88277E-04
 0.81980003E+02 -0.99252E-04
 0.82029999E+02 -0.89347E-04
 0.82080002E+02 -0.73234E-04
 0.82129997E+02 -0.55467E-04
 0.82180000E+02 -0.34531E-04
 0.82230003E+02 -0.23490E-04
 0.82279999E+02 -0.21353E-04
 0.82330002E+02 -0.48678E-06
 0.82379997E+02  0.23345E-04
 0.82430000E+02  0.37065E-04
 0.82480003E+02  0.41345E-04
 0.82529999E+02  0.36834E-04
 0.82580002E+02  0.37285E-04
 0.82629997E+02  0.38247E-04
 0.82680000E+02  0.22144E-04
 0.82730003E+02 -0.47225E-05
 0.82779999E+02 -0.24999E-04
 0.82830002E+02 -0.43078E-04
 0.82879997E+02 -0.50045E-04
 0.82930000E+02 -0.46298E-04
 0.82980003E+02 -0.48098E-04
 0.83029999E+02 -0.52096E-04
 0.83080002E+02 -0.46704E-04
 0.83129997E+02 -0.29019E-04
 0.83180000E+02 -0.46273E-05
 0.83230003E+02  0.20419E-04
 0.83279999E+02  0.41582E-04
 0.83330002E+02  0.66134E-04
 0.83379997E+02  0.94837E-04
 0.83430000E+02  0.10180E-03
 0.83480003E+02  0.85790E-04
 0.83529999E+02  0.60747E-04
 0.83580002E+02  0.23817E-04
 0.83629997E+02 -0.21427E-05
 0.83680000E+02 -0.20406E-04
 0.83730003E+02 -0.33470E-04
 0.83779999E+02 -0.32499E-04
 0.83830002E+02 -0.35578E-04
 0.83879997E+02 -0.35675E-04
 0.83930000E+02 -0.22635E-04
 0.83980003E+02 -0.34001E-05
 0.84029999E+02  0.89318E-05
 0.84080002E+02  0.19494E-04
 0.84129997E+02  0.28210E-04
 0.84180000E+02  0.34441E-04
 0.84230003E+02  0.48237E-04
 0.84279999E+02  0.59022E-04
 0.84330002E+02  0.57440E-04
 0.84379997E+02  0.38854E-04
 0.84430000E+02  0.11715E-04
 0.84480003E+02 -0.13148E-04
 0.84529999E+02 -0.33212E-04
 0.84580002E+02 -0.42859E-04
 0.84629997E+02 -0.45428E-04
 0.84680000E+02 -0.47186E-04
 0.84730003E+02 -0.50747E-04
 0.84779999E+02 -0.57945E-04
 0.84830002E+02 -0.67756E-04
 0.84879997E+02 -0.68219E-04
 0.84930000E+02 -0.57498E-04
 0.84980003E+02 -0.45609E-04
 0.85029999E+02 -0.33105E-04
 0.85080002E+02 -0.27358E-04
 0.85129997E+02 -0.20281E-04
 0.85180000E+02  0.23809E-05
 0.85230003E+02  0.25968E-04
 0.85279999E+02  0.37593E-04
 0.85330002E+02  0.31202E-04
 0.85379997E+02  0.15252E-04
 0.85430000E+02  0.56430E-05
 0.85480003E+02 -0.16135E-05
 0.85529999E+02 -0.83141E-05
 0.85580002E+02 -0.15284E-04
 0.85629997E+02 -0.22185E-04
 0.85680000E+02 -0.26960E-04
 0.85730003E+02 -0.24421E-04
 0.85779999E+02 -0.16017E-04
 0.85830002E+02 -0.11771E-04
 0.85879997E+02 -0.16697E-06
 0.85930000E+02  0.24564E-04
 0.85980003E+02  0.51888E-04
 0.86029999E+02  0.74464E-04
 0.86080002E+02  0.87990E-04
 0.86129997E+02  0.82780E-04
 0.86180000E+02  0.63173E-04
 0.86230003E+02  0.45640E-04
 0.86279999E+02  0.29487E-04
 0.86330002E+02  0.21636E-04
 0.86379997E+02  0.24970E-04
 0.86430000E+02  0.31035E-04
 0.86480003E+02  0.39828E-04
 0.86529999E+02  0.40886E-04
 0.86580002E+02  0.30078E-04
 0.86629997E+02  0.12043E-04
 0.86680000E+02 -0.11316E-04
 0.86730003E+02 -0.35084E-04
 0.86779999E+02 -0.53840E-04
 0.86830002E+02 -0.61089E-04
 0.86879997E+02 -0.68677E-04
 0.86930000E+02 -0.81348E-04
 0.86980003E+02 -0.86936E-04
 0.87029999E+02 -0.81859E-04
 0.87080002E+02 -0.66198E-04
 0.87129997E+02 -0.47965E-04
 0.87180000E+02 -0.26954E-04
 0.87230003E+02 -0.34346E-05
 0.87279999E+02  0.11745E-04
 0.87330002E+02  0.14910E-04
 0.87379997E+02  0.11207E-04
 0.87430000E+02  0.12888E-04
 0.87480003E+02  0.22008E-04
 0.87529999E+02  0.27058E-04
 0.87580002E+02  0.15198E-04
 0.87629997E+02 -0.65604E-05
 0.87680000E+02 -0.18334E-04
 0.87730003E+02 -0.14973E-04
 0.87779999E+02 -0.36191E-05
 0.87830002E+02  0.10181E-04
 0.87879997E+02  0.27543E-04
 0.87930000E+02  0.42629E-04
 0.87980003E+02  0.49985E-04
 0.88029999E+02  0.50013E-04
 0.88080002E+02  0.43996E-04
 0.88129997E+02  0.39945E-04
 0.88180000E+02  0.40228E-04
 0.88230003E+02  0.35368E-04
 0.88279999E+02  0.22555E-04
 0.88330002E+02  0.85687E-05
 0.88379997E+02 -0.41334E-05
 0.88430000E+02 -0.19032E-04
 0.88480003E+02 -0.36247E-04
 0.88529999E+02 -0.48760E-04
 0.88580002E+02 -0.52265E-04
 0.88629997E+02 -0.48309E-04
 0.88680000E+02 -0.40392E-04
 0.88730003E+02 -0.29177E-04
 0.88779999E+02 -0.18829E-04
 0.88830002E+02 -0.66611E-05
 0.88879997E+02  0.11033E-04
 0.88930000E+02  0.23924E-04
 0.88980003E+02  0.35431E-04
 0.89029999E+02  0.44573E-04
 0.89080002E+02  0.40320E-04
 0.89129997E+02  0.23658E-04
 0.89180000E+02  0.14643E-07
 0.89230003E+02 -0.23314E-04
 0.89279999E+02 -0.42122E-04
 0.89330002E+02 -0.50072E-04
 0.89379997E+02 -0.45366E-04
 0.89430000E+02 -0.36330E-04
 0.89480003E+02 -0.26238E-04
 0.89529999E+02 -0.11659E-04
 0.89580002E+02  0.50060E-05
 0.89629997E+02  0.17516E-04
 0.89680000E+02  0.28828E-04
 0.89730003E+02  0.37442E-04
 0.89779999E+02  0.41728E-04
 0.89830002E+02  0.47829E-04
 0.89879997E+02  0.52834E-04
 0.89930000E+02  0.55495E-04
 0.89980003E+02  0.53496E-04
 0.90029999E+02  0.41642E-04
 0.90080002E+02  0.29300E-04
 0.90129997E+02  0.23604E-04
 0.90180000E+02  0.26164E-04
 0.90230003E+02  0.33404E-04
 0.90279999E+02  0.36277E-04
 0.90330002E+02  0.32712E-04
 0.90379997E+02  0.21518E-04
 0.90430000E+02  0.10309E-04
 0.90480003E+02  0.48582E-05
 0.90529999E+02 -0.19238E-05
 0.90580002E+02 -0.14859E-04
 0.90629997E+02 -0.37662E-04
 0.90680000E+02 -0.67910E-04
 0.90730003E+02 -0.94499E-04
 0.90779999E+02 -0.11116E-03
 0.90830002E+02 -0.11685E-03
 0.90879997E+02 -0.10993E-03
 0.90930000E+02 -0.92840E-04
 0.90980003E+02 -0.70730E-04
 0.91029999E+02 -0.48609E-04
 0.91080002E+02 -0.32632E-04
 0.91129997E+02 -0.20767E-04
 0.91180000E+02 -0.95113E-05
 0.91230003E+02  0.16028E-05
 0.91279999E+02  0.18855E-04
 0.91330002E+02  0.37728E-04
 0.91379997E+02  0.52891E-04
 0.91430000E+02  0.64637E-04
 0.91480003E+02  0.70018E-04
 0.91529999E+02  0.73033E-04
 0.91580002E+02  0.71893E-04
 0.91629997E+02  0.66543E-04
 0.91680000E+02  0.62307E-04
 0.91730003E+02  0.59455E-04
 0.91779999E+02  0.57753E-04
 0.91830002E+02  0.55069E-04
 0.91879997E+02  0.47170E-04
 0.91930000E+02  0.30533E-04
 0.91980003E+02  0.12378E-04
 0.92029999E+02 -0.80655E-05
 0.92080002E+02 -0.33254E-04
 0.92129997E+02 -0.58181E-04
 0.92180000E+02 -0.86782E-04
 0.92230003E+02 -0.10854E-03
 0.92279999E+02 -0.11494E-03
 0.92330002E+02 -0.10733E-03
 0.92379997E+02 -0.90589E-04
 0.92430000E+02 -0.74032E-04
 0.92480003E+02 -0.57243E-04
 0.92529999E+02 -0.42601E-04
 0.92580002E+02 -0.25446E-04
 0.92629997E+02 -0.74177E-05
 0.92680000E+02  0.41844E-05
 0.92730003E+02  0.14310E-04
 0.92779999E+02  0.24139E-04
 0.92830002E+02  0.33247E-04
 0.92879997E+02  0.43903E-04
 0.92930000E+02  0.60168E-04
 0.92980003E+02  0.73281E-04
 0.93029999E+02  0.77940E-04
 0.93080002E+02  0.73203E-04
 0.93129997E+02  0.58174E-04
 0.93180000E+02  0.40588E-04
 0.93230003E+02  0.18406E-04
 0.93279999E+02 -0.27170E-05
 0.93330002E+02 -0.19430E-04
 0.93379997E+02 -0.36163E-04
 0.93430000E+02 -0.46661E-04
 0.93480003E+02 -0.46923E-04
 0.93529999E+02 -0.37099E-04
 0.93580002E+02 -0.22817E-04
 0.93629997E+02 -0.10063E-04
 0.93680000E+02  0.52552E-05
 0.93730003E+02  0.21717E-04
 0.93779999E+02  0.35053E-04
 0.93830002E+02  0.47706E-04
 0.93879997E+02  0.56386E-04
 0.93930000E+02  0.58040E-04
 0.93980003E+02  0.61256E-04
 0.94029999E+02  0.64998E-04
 0.94080002E+02  0.58115E-04
 0.94129997E+02  0.41622E-04
 0.94180000E+02  0.18023E-04
 0.94230003E+02 -0.11328E-04
 0.94279999E+02 -0.39305E-04
 0.94330002E+02 -0.58536E-04
 0.94379997E+02 -0.71170E-04
 0.94430000E+02 -0.70521E-04
 0.94480003E+02 -0.58835E-04
 0.94529999E+02 -0.46112E-04
 0.94580002E+02 -0.22586E-04
 0.94629997E+02 -0.27339E-05
 0.94680000E+02  0.86268E-07
 0.94730003E+02 -0.11467E-04
 0.94779999E+02 -0.31609E-04
 0.94830002E+02 -0.44898E-04
 0.94879997E+02 -0.46909E-04
 0.94930000E+02 -0.35626E-04
 0.94980003E+02 -0.15751E-04
 0.95029999E+02  0.72711E-05
 0.95080002E+02  0.30977E-04
 0.95129997E+02  0.50920E-04
 0.95180000E+02  0.63620E-04
 0.95230003E+02  0.67652E-04
 0.95279999E+02  0.69828E-04
 0.95330002E+02  0.67113E-04
 0.95379997E+02  0.57784E-04
 0.95430000E+02  0.43185E-04
 0.95480003E+02  0.22196E-04
 0.95529999E+02  0.41634E-05
 0.95580002E+02 -0.12177E-04
 0.95629997E+02 -0.33075E-04
 0.95680000E+02 -0.56095E-04
 0.95730003E+02 -0.75604E-04
 0.95779999E+02 -0.87757E-04
 0.95830002E+02 -0.92047E-04
 0.95879997E+02 -0.87976E-04
 0.95930000E+02 -0.81196E-04
 0.95980003E+02 -0.72323E-04
 0.96029999E+02 -0.57073E-04
 0.96080002E+02 -0.34675E-04
 0.96129997E+02 -0.56649E-05
 0.96180000E+02  0.21326E-04
 0.96230003E+02  0.40329E-04
 0.96279999E+02  0.54994E-04
 0.96330002E+02  0.65364E-04
 0.96379997E+02  0.71554E-04
 0.96430000E+02  0.73361E-04
 0.96480003E+02  0.63080E-04
 0.96529999E+02  0.45529E-04
 0.96580002E+02  0.28646E-04
 0.96629997E+02  0.15376E-04
 0.96680000E+02  0.50004E-05
 0.96730003E+02 -0.77045E-05
 0.96779999E+02 -0.16575E-04
 0.96830002E+02 -0.18767E-04
 0.96879997E+02 -0.16550E-04
 0.96930000E+02 -0.11198E-04
 0.96980003E+02 -0.36718E-05
 0.97029999E+02  0.66654E-05
 0.97080002E+02  0.13943E-04
 0.97129997E+02  0.11789E-04
 0.97180000E+02  0.57728E-05
 0.97230003E+02  0.43598E-05
 0.97279999E+02  0.10159E-04
 0.97330002E+02  0.19027E-04
 0.97379997E+02  0.26074E-04
 0.97430000E+02  0.28683E-04
 0.97480003E+02  0.28492E-04
 0.97529999E+02  0.32309E-04
 0.97580002E+02  0.36608E-04
 0.97629997E+02  0.40842E-04
 0.97680000E+02  0.44722E-04
 0.97730003E+02  0.43328E-04
 0.97779999E+02  0.38611E-04
 0.97830002E+02  0.29188E-04
 0.97879997E+02  0.18081E-04
 0.97930000E+02  0.13718E-04
 0.97980003E+02  0.12583E-04
 0.98029999E+02  0.47873E-05
 0.98080002E+02 -0.90405E-05
 0.98129997E+02 -0.24951E-04
 0.98180000E+02 -0.42789E-04
 0.98230003E+02 -0.60041E-04
 0.98279999E+02 -0.71952E-04
 0.98330002E+02 -0.75748E-04
 0.98379997E+02 -0.72514E-04
 0.98430000E+02 -0.64604E-04
 0.98480003E+02 -0.53320E-04
 0.98529999E+02 -0.39129E-04
 0.98580002E+02 -0.23487E-04
 0.98629997E+02 -0.78669E-05
 0.98680000E+02  0.49685E-05
 0.98730003E+02  0.11632E-04
 0.98779999E+02  0.16560E-04
 0.98830002E+02  0.24837E-04
 0.98879997E+02  0.30732E-04
 0.98930000E+02  0.29035E-04
 0.98980003E+02  0.21728E-04
 0.99029999E+02  0.14752E-04
 0.99080002E+02  0.10530E-04
 0.99129997E+02  0.36920E-05
 0.99180000E+02 -0.51278E-05
 0.99230003E+02 -0.15381E-04
 0.99279999E+02 -0.28922E-04
 0.99330002E+02 -0.38079E-04
 0.99379997E+02 -0.44422E-04
 0.99430000E+02 -0.53546E-04
 0.99480003E+02 -0.63213E-04
 0.99529999E+02 -0.72434E-04
 0.99580002E+02 -0.76883E-04
 0.99629997E+02 -0.75174E-04
 0.99680000E+02 -0.68513E-04
 0.99730003E+02 -0.59103E-04
 0.99779999E+02 -0.49784E-04
 0.99830002E+02 -0.40179E-04
 0.99879997E+02 -0.27420E-04
 0.99930000E+02 -0.92068E-05
 0.99980003E+02  0.10583E-04
 0.10003000E+03  0.31164E-04
 0.10008000E+03  0.52383E-04
 0.10013000E+03  0.71770E-04
 0.10018000E+03  0.85108E-04
 0.10023000E+03  0.88804E-04
 0.10028000E+03  0.85185E-04
 0.10033000E+03  0.75830E-04
 0.10038000E+03  0.63808E-04
 0.10043000E+03  0.53218E-04
 0.10048000E+03  0.47346E-04
 0.10053000E+03  0.44714E-04
 0.10058000E+03  0.40314E-04
 0.10063000E+03  0.32587E-04
 0.10068000E+03  0.21574E-04
 0.10073000E+03  0.77137E-05
 0.10078000E+03 -0.73546E-05
 0.10083000E+03 -0.19927E-04
 0.10088000E+03 -0.26895E-04
 0.10093000E+03 -0.23445E-04
 0.10098000E+03 -0.11863E-04
 0.10103000E+03 -0.12701E-05
 0.10108000E+03  0.30308E-05
 0.10113000E+03  0.77681E-06
 0.10118000E+03 -0.88660E-06
 0.10123000E+03  0.19809E-05
 0.10128000E+03  0.81158E-05
 0.10133000E+03  0.15379E-04
 0.10138000E+03  0.21799E-04
 0.10143000E+03  0.28760E-04
 0.10148000E+03  0.37467E-04
 0.10153000E+03  0.43960E-04
 0.10158000E+03  0.45324E-04
 0.10163000E+03  0.43289E-04
 0.10168000E+03  0.38445E-04
 0.10173000E+03  0.29899E-04
 0.10178000E+03  0.18620E-04
 0.10183000E+03  0.69332E-05
 0.10188000E+03 -0.57496E-05
 0.10193000E+03 -0.18937E-04
 0.10198000E+03 -0.32783E-04
 0.10203000E+03 -0.47368E-04
 0.10208000E+03 -0.58526E-04
 0.10213000E+03 -0.61530E-04
 0.10218000E+03 -0.57578E-04
 0.10223000E+03 -0.50731E-04
 0.10228000E+03 -0.42644E-04
 0.10233000E+03 -0.38429E-04
 0.10238000E+03 -0.35958E-04
 0.10243000E+03 -0.32193E-04
 0.10248000E+03 -0.28546E-04
 0.10253000E+03 -0.23583E-04
 0.10258000E+03 -0.17203E-04
 0.10263000E+03 -0.66812E-05
 0.10268000E+03  0.69106E-05
 0.10273000E+03  0.21611E-04
 0.10278000E+03  0.35303E-04
 0.10283000E+03  0.46956E-04
 0.10288000E+03  0.60197E-04
 0.10293000E+03  0.70261E-04
 0.10298000E+03  0.71810E-04
 0.10303000E+03  0.65044E-04
 0.10308000E+03  0.49370E-04
 0.10313000E+03  0.27493E-04
 0.10318000E+03  0.12719E-05
 0.10323000E+03 -0.26641E-04
 0.10328000E+03 -0.49340E-04
 0.10333000E+03 -0.64794E-04
 0.10338000E+03 -0.73035E-04
 0.10343000E+03 -0.75224E-04
 0.10348000E+03 -0.71914E-04
 0.10353000E+03 -0.60593E-04
 0.10358000E+03 -0.41875E-04
 0.10363000E+03 -0.21547E-04
 0.10368000E+03 -0.39784E-05
 0.10373000E+03  0.10315E-04
 0.10378000E+03  0.20953E-04
 0.10383000E+03  0.26244E-04
 0.10388000E+03  0.24671E-04
 0.10393000E+03  0.17187E-04
 0.10398000E+03  0.46914E-05
 0.10403000E+03 -0.88216E-05
 0.10408000E+03 -0.16449E-04
 0.10413000E+03 -0.14889E-04
 0.10418000E+03 -0.78873E-05
 0.10423000E+03  0.12440E-06
 0.10428000E+03  0.67009E-05
 0.10433000E+03  0.10035E-04
 0.10438000E+03  0.11094E-04
 0.10443000E+03  0.75059E-05
 0.10448000E+03 -0.65753E-06
 0.10453000E+03 -0.63182E-05
 0.10458000E+03 -0.64337E-05
 0.10463000E+03 -0.29937E-05
 0.10468000E+03  0.17674E-05
 0.10473000E+03  0.66480E-05
 0.10478000E+03  0.10444E-04
 0.10483000E+03  0.12880E-04
 0.10488000E+03  0.17548E-04
 0.10493000E+03  0.23574E-04
 0.10498000E+03  0.27733E-04
 0.10503000E+03  0.31767E-04
 0.10508000E+03  0.36011E-04
 0.10513000E+03  0.38731E-04
 0.10518000E+03  0.36515E-04
 0.10523000E+03  0.29752E-04
 0.10528000E+03  0.22265E-04
 0.10533000E+03  0.15673E-04
 0.10538000E+03  0.10480E-04
 0.10543000E+03  0.37703E-05
 0.10548000E+03 -0.63920E-05
 0.10553000E+03 -0.17346E-04
 0.10558000E+03 -0.23190E-04
 0.10563000E+03 -0.24335E-04
 0.10568000E+03 -0.25855E-04
 0.10573000E+03 -0.28948E-04
 0.10578000E+03 -0.32697E-04
 0.10583000E+03 -0.34658E-04
 0.10588000E+03 -0.33151E-04
 0.10593000E+03 -0.26191E-04
 0.10598000E+03 -0.16789E-04
 0.10603000E+03 -0.68669E-05
 0.10608000E+03  0.28951E-05
 0.10613000E+03  0.10017E-04
 0.10618000E+03  0.14299E-04
 0.10623000E+03  0.11859E-04
 0.10628000E+03  0.55703E-05
 0.10633000E+03 -0.10981E-05
 0.10638000E+03 -0.81394E-05
 0.10643000E+03 -0.95093E-05
 0.10648000E+03 -0.54671E-05
 0.10653000E+03 -0.45080E-05
 0.10658000E+03 -0.68920E-05
 0.10663000E+03 -0.77369E-05
 0.10668000E+03 -0.12678E-04
 0.10673000E+03 -0.21580E-04
 0.10678000E+03 -0.23486E-04
 0.10683000E+03 -0.19172E-04
 0.10688000E+03 -0.14656E-04
 0.10693000E+03 -0.63225E-05
 0.10698000E+03  0.42416E-05
 0.10703000E+03  0.11939E-04
 0.10708000E+03  0.17709E-04
 0.10713000E+03  0.17424E-04
 0.10718000E+03  0.11496E-04
 0.10723000E+03  0.46269E-05
 0.10728000E+03  0.83007E-06
 0.10733000E+03  0.19619E-05
 0.10738000E+03  0.52900E-05
 0.10743000E+03  0.92340E-05
 0.10748000E+03  0.11062E-04
 0.10753000E+03  0.15206E-04
 0.10758000E+03  0.20993E-04
 0.10763000E+03  0.21029E-04
 0.10768000E+03  0.21154E-04
 0.10773000E+03  0.25100E-04
 0.10778000E+03  0.30259E-04
 0.10783000E+03  0.35420E-04
 0.10788000E+03  0.35473E-04
 0.10793000E+03  0.29880E-04
 0.10798000E+03  0.20477E-04
 0.10803000E+03  0.64651E-05
 0.10808000E+03 -0.10142E-04
 0.10813000E+03 -0.28757E-04
 0.10818000E+03 -0.42883E-04
 0.10823000E+03 -0.47905E-04
 0.10828000E+03 -0.47742E-04
 0.10833000E+03 -0.41529E-04
 0.10838000E+03 -0.32520E-04
 0.10843000E+03 -0.24686E-04
 0.10848000E+03 -0.19521E-04
 0.10853000E+03 -0.14666E-04
 0.10858000E+03 -0.33805E-05
 0.10863000E+03  0.88264E-05
 0.10868000E+03  0.17774E-04
 0.10873000E+03  0.23286E-04
 0.10878000E+03  0.23586E-04
 0.10883000E+03  0.23360E-04
 0.10888000E+03  0.25088E-04
 0.10893000E+03  0.22096E-04
 0.10898000E+03  0.16033E-04
 0.10903000E+03  0.12696E-04
 0.10908000E+03  0.12308E-04
 0.10913000E+03  0.20485E-04
 0.10918000E+03  0.29170E-04
 0.10923000E+03  0.37282E-04
 0.10928000E+03  0.46131E-04
 0.10933000E+03  0.47385E-04
 0.10938000E+03  0.45429E-04
 0.10943000E+03  0.38147E-04
 0.10948000E+03  0.27555E-04
 0.10953000E+03  0.16605E-04
 0.10958000E+03  0.55887E-05
 0.10963000E+03 -0.57324E-05
 0.10968000E+03 -0.18852E-04
 0.10973000E+03 -0.32157E-04
 0.10978000E+03 -0.45729E-04
 0.10983000E+03 -0.59392E-04
 0.10988000E+03 -0.73044E-04
 0.10993000E+03 -0.79417E-04
 0.10998000E+03 -0.81357E-04
 0.11003000E+03 -0.76799E-04
 0.11008000E+03 -0.63698E-04
 0.11013000E+03 -0.51905E-04
 0.11018000E+03 -0.39591E-04
 0.11023000E+03 -0.28302E-04
 0.11028000E+03 -0.15478E-04
 0.11033000E+03  0.19902E-05
 0.11038000E+03  0.18324E-04
 0.11043000E+03  0.29548E-04
 0.11048000E+03  0.32915E-04
 0.11053000E+03  0.30561E-04
 0.11058000E+03  0.23572E-04
 0.11063000E+03  0.15378E-04
 0.11068000E+03  0.77565E-05
 0.11073000E+03  0.44144E-06
 0.11078000E+03 -0.19662E-06
 0.11083000E+03  0.26073E-05
 0.11088000E+03  0.63122E-05
 0.11093000E+03  0.12589E-04
 0.11098000E+03  0.17645E-04
 0.11103000E+03  0.24705E-04
 0.11108000E+03  0.35175E-04
 0.11113000E+03  0.45840E-04
 0.11118000E+03  0.52041E-04
 0.11123000E+03  0.53790E-04
 0.11128000E+03  0.49681E-04
 0.11133000E+03  0.35450E-04
 0.11138000E+03  0.18670E-04
 0.11143000E+03  0.99954E-06
 0.11148000E+03 -0.14030E-04
 0.11153000E+03 -0.26107E-04
 0.11158000E+03 -0.39914E-04
 0.11163000E+03 -0.54086E-04
 0.11168000E+03 -0.67223E-04
 0.11173000E+03 -0.75096E-04
 0.11178000E+03 -0.77303E-04
 0.11183000E+03 -0.71969E-04
 0.11188000E+03 -0.61575E-04
 0.11193000E+03 -0.48623E-04
 0.11198000E+03 -0.31677E-04
 0.11203000E+03 -0.11851E-04
 0.11208000E+03  0.73895E-05
 0.11213000E+03  0.21719E-04
 0.11218000E+03  0.29016E-04
 0.11223000E+03  0.31595E-04
 0.11228000E+03  0.35663E-04
 0.11233000E+03  0.37700E-04
 0.11238000E+03  0.35292E-04
 0.11243000E+03  0.29624E-04
 0.11248000E+03  0.21641E-04
 0.11253000E+03  0.14685E-04
 0.11258000E+03  0.65942E-05
 0.11263000E+03 -0.57529E-06
 0.11268000E+03 -0.54245E-05
 0.11273000E+03 -0.54068E-05
 0.11278000E+03  0.22433E-05
 0.11283000E+03  0.11140E-04
 0.11288000E+03  0.20746E-04
 0.11293000E+03  0.31346E-04
 0.11298000E+03  0.40775E-04
 0.11303000E+03  0.48851E-04
 0.11308000E+03  0.54636E-04
 0.11313000E+03  0.56343E-04
 0.11318000E+03  0.52701E-04
 0.11323000E+03  0.46411E-04
 0.11328000E+03  0.39087E-04
 0.11333000E+03  0.28917E-04
 0.11338000E+03  0.15258E-04
 0.11343000E+03 -0.35847E-06
 0.11348000E+03 -0.16286E-04
 0.11353000E+03 -0.31294E-04
 0.11358000E+03 -0.43840E-04
 0.11363000E+03 -0.52172E-04
 0.11368000E+03 -0.55874E-04
 0.11373000E+03 -0.56829E-04
 0.11378000E+03 -0.56587E-04
 0.11383000E+03 -0.54919E-04
 0.11388000E+03 -0.52892E-04
 0.11393000E+03 -0.50889E-04
 0.11398000E+03 -0.48780E-04
 0.11403000E+03 -0.45812E-04
 0.11408000E+03 -0.40948E-04
 0.11413000E+03 -0.35630E-04
 0.11418000E+03 -0.27734E-04
 0.11423000E+03 -0.19786E-04
 0.11428000E+03 -0.14784E-04
 0.11433000E+03 -0.89046E-05
 0.11438000E+03 -0.21128E-05
 0.11443000E+03  0.80001E-05
 0.11448000E+03  0.19597E-04
 0.11453000E+03  0.28832E-04
 0.11458000E+03  0.37486E-04
 0.11463000E+03  0.45251E-04
 0.11468000E+03  0.52120E-04
 0.11473000E+03  0.55959E-04
 0.11478000E+03  0.56640E-04
 0.11483000E+03  0.55372E-04
 0.11488000E+03  0.50178E-04
 0.11493000E+03  0.40427E-04
 0.11498000E+03  0.28483E-04
 0.11503000E+03  0.17116E-04
 0.11508000E+03  0.86848E-05
 0.11513000E+03  0.45965E-05
 0.11518000E+03  0.33113E-05
 0.11523000E+03  0.46966E-05
 0.11528000E+03  0.69757E-05
 0.11533000E+03  0.76679E-05
 0.11538000E+03  0.66357E-05
 0.11543000E+03  0.36024E-05
 0.11548000E+03  0.83114E-06
 0.11553000E+03 -0.13326E-05
 0.11558000E+03 -0.33740E-05
 0.11563000E+03 -0.16845E-05
 0.11568000E+03  0.38399E-05
 0.11573000E+03  0.11389E-04
 0.11578000E+03  0.18427E-04
 0.11583000E+03  0.21207E-04
 0.11588000E+03  0.19516E-04
 0.11593000E+03  0.12281E-04
 0.11598000E+03  0.16685E-05
 0.11603000E+03 -0.76491E-05
 0.11608000E+03 -0.14486E-04
 0.11613000E+03 -0.19603E-04
 0.11618000E+03 -0.23360E-04
 0.11623000E+03 -0.25233E-04
 0.11628000E+03 -0.27521E-04
 0.11633000E+03 -0.30836E-04
 0.11638000E+03 -0.33620E-04
 0.11643000E+03 -0.35422E-04
 0.11648000E+03 -0.35444E-04
 0.11653000E+03 -0.31072E-04
 0.11658000E+03 -0.24415E-04
 0.11663000E+03 -0.20110E-04
 0.11668000E+03 -0.17667E-04
 0.11673000E+03 -0.17827E-04
 0.11678000E+03 -0.19177E-04
 0.11683000E+03 -0.19926E-04
 0.11688000E+03 -0.20036E-04
 0.11693000E+03 -0.17970E-04
 0.11698000E+03 -0.13669E-04
 0.11703000E+03 -0.87180E-05
 0.11708000E+03 -0.36825E-05
 0.11713000E+03  0.17524E-05
 0.11718000E+03  0.53832E-05
 0.11723000E+03  0.72948E-05
 0.11728000E+03  0.80743E-05
 0.11733000E+03  0.90606E-05
 0.11738000E+03  0.12139E-04
 0.11743000E+03  0.16264E-04
 0.11748000E+03  0.22485E-04
 0.11753000E+03  0.30190E-04
 0.11758000E+03  0.38707E-04
 0.11763000E+03  0.49503E-04
 0.11768000E+03  0.60009E-04
 0.11773000E+03  0.66070E-04
 0.11778000E+03  0.67305E-04
 0.11783000E+03  0.63614E-04
 0.11788000E+03  0.54492E-04
 0.11793000E+03  0.43718E-04
 0.11798000E+03  0.32203E-04
 0.11803000E+03  0.19113E-04
 0.11808000E+03  0.63726E-05
 0.11813000E+03 -0.77507E-05
 0.11818000E+03 -0.23292E-04
 0.11823000E+03 -0.38203E-04
 0.11828000E+03 -0.51488E-04
 0.11833000E+03 -0.61559E-04
 0.11838000E+03 -0.66534E-04
 0.11843000E+03 -0.65954E-04
 0.11848000E+03 -0.62080E-04
 0.11853000E+03 -0.56213E-04
 0.11858000E+03 -0.49492E-04
 0.11863000E+03 -0.42767E-04
 0.11868000E+03 -0.35900E-04
 0.11873000E+03 -0.27489E-04
 0.11878000E+03 -0.18279E-04
 0.11883000E+03 -0.11900E-04
 0.11888000E+03 -0.91590E-05
 0.11893000E+03 -0.77120E-05
 0.11898000E+03 -0.62970E-05
 0.11903000E+03 -0.63343E-05
 0.11908000E+03 -0.86148E-05
 0.11913000E+03 -0.10086E-04
 0.11918000E+03 -0.85290E-05
 0.11923000E+03 -0.63380E-05
 0.11928000E+03 -0.45221E-05
 0.11933000E+03 -0.27823E-05
 0.11938000E+03 -0.68943E-07
 0.11943000E+03  0.36119E-05
 0.11948000E+03  0.86552E-05
 0.11953000E+03  0.16436E-04
 0.11958000E+03  0.25211E-04
 0.11963000E+03  0.33569E-04
 0.11968000E+03  0.40358E-04
 0.11973000E+03  0.45882E-04
 0.11978000E+03  0.50238E-04
 0.11983000E+03  0.51713E-04
 0.11988000E+03  0.50649E-04
 0.11993000E+03  0.45599E-04
 0.11998000E+03  0.34929E-04
 0.12003000E+03  0.21634E-04
 0.12008000E+03  0.70181E-05
 0.12013000E+03 -0.76115E-05
 0.12018000E+03 -0.19244E-04
 0.12023000E+03 -0.27961E-04
 0.12028000E+03 -0.33448E-04
 0.12033000E+03 -0.36215E-04
 0.12038000E+03 -0.37882E-04
 0.12043000E+03 -0.36465E-04
 0.12048000E+03 -0.31608E-04
 0.12053000E+03 -0.25311E-04
 0.12058000E+03 -0.18066E-04
 0.12063000E+03 -0.10868E-04
 0.12068000E+03 -0.35611E-05
 0.12073000E+03  0.44802E-05
 0.12078000E+03  0.13515E-04
 0.12083000E+03  0.21979E-04
 0.12088000E+03  0.27196E-04
 0.12093000E+03  0.28416E-04
 0.12098000E+03  0.25590E-04
 0.12103000E+03  0.19912E-04
 0.12108000E+03  0.12058E-04
 0.12113000E+03  0.11672E-05
 0.12118000E+03 -0.11158E-04
 0.12123000E+03 -0.20916E-04
 0.12128000E+03 -0.28144E-04
 0.12133000E+03 -0.33620E-04
 0.12138000E+03 -0.36439E-04
 0.12143000E+03 -0.35093E-04
 0.12148000E+03 -0.29003E-04
 0.12153000E+03 -0.20384E-04
 0.12158000E+03 -0.89588E-05
 0.12163000E+03  0.47355E-05
 0.12168000E+03  0.18775E-04
 0.12173000E+03  0.32357E-04
 0.12178000E+03  0.44822E-04
 0.12183000E+03  0.57160E-04
 0.12188000E+03  0.69239E-04
 0.12193000E+03  0.78246E-04
 0.12198000E+03  0.82639E-04
 0.12203000E+03  0.81164E-04
 0.12208000E+03  0.72244E-04
 0.12213000E+03  0.57179E-04
 0.12218000E+03  0.38245E-04
 0.12223000E+03  0.19247E-04
 0.12228000E+03  0.23024E-05
 0.12233000E+03 -0.13211E-04
 0.12238000E+03 -0.26390E-04
 0.12243000E+03 -0.35330E-04
 0.12248000E+03 -0.36326E-04
 0.12253000E+03 -0.29953E-04
 0.12258000E+03 -0.21041E-04
 0.12263000E+03 -0.12245E-04
 0.12268000E+03 -0.68757E-05
 0.12273000E+03 -0.63499E-05
 0.12278000E+03 -0.93575E-05
 0.12283000E+03 -0.14375E-04
 0.12288000E+03 -0.18948E-04
 0.12293000E+03 -0.23357E-04
 0.12298000E+03 -0.27998E-04
 0.12303000E+03 -0.30776E-04
 0.12308000E+03 -0.30795E-04
 0.12313000E+03 -0.27789E-04
 0.12318000E+03 -0.22683E-04
 0.12323000E+03 -0.17778E-04
 0.12328000E+03 -0.15025E-04
 0.12333000E+03 -0.13711E-04
 0.12338000E+03 -0.12760E-04
 0.12343000E+03 -0.12566E-04
 0.12348000E+03 -0.14617E-04
 0.12353000E+03 -0.18498E-04
 0.12358000E+03 -0.21600E-04
 0.12363000E+03 -0.25420E-04
 0.12368000E+03 -0.29818E-04
 0.12373000E+03 -0.34145E-04
 0.12378000E+03 -0.36794E-04
 0.12383000E+03 -0.36508E-04
 0.12388000E+03 -0.35887E-04
 0.12393000E+03 -0.33883E-04
 0.12398000E+03 -0.29855E-04
 0.12403000E+03 -0.23575E-04
 0.12408000E+03 -0.15879E-04
 0.12413000E+03 -0.78584E-05
 0.12418000E+03  0.62678E-06
 0.12423000E+03  0.95230E-05
 0.12428000E+03  0.20625E-04
 0.12433000E+03  0.32016E-04
 0.12438000E+03  0.40888E-04
 0.12443000E+03  0.47063E-04
 0.12448000E+03  0.50166E-04
 0.12453000E+03  0.49874E-04
 0.12458000E+03  0.47185E-04
 0.12463000E+03  0.43167E-04
 0.12468000E+03  0.37978E-04
 0.12473000E+03  0.32035E-04
 0.12478000E+03  0.24894E-04
 0.12483000E+03  0.15629E-04
 0.12488000E+03  0.47596E-05
 0.12493000E+03 -0.44105E-05
 0.12498000E+03 -0.10798E-04
 0.12503000E+03 -0.15527E-04
 0.12508000E+03 -0.18148E-04
 0.12513000E+03 -0.18806E-04
 0.12518000E+03 -0.18338E-04
 0.12523000E+03 -0.18447E-04
 0.12528000E+03 -0.18767E-04
 0.12533000E+03 -0.17673E-04
 0.12538000E+03 -0.15048E-04
 0.12543000E+03 -0.10984E-04
 0.12548000E+03 -0.64522E-05
 0.12553000E+03 -0.16311E-05
 0.12558000E+03  0.37607E-05
 0.12563000E+03  0.90676E-05
 0.12568000E+03  0.15409E-04
 0.12573000E+03  0.23656E-04
 0.12578000E+03  0.31521E-04
 0.12583000E+03  0.37351E-04
 0.12588000E+03  0.40042E-04
 0.12593000E+03  0.39205E-04
 0.12598000E+03  0.36608E-04
 0.12603000E+03  0.32338E-04
 0.12608000E+03  0.25422E-04
 0.12613000E+03  0.17394E-04
 0.12618000E+03  0.10705E-04
 0.12623000E+03  0.58493E-05
 0.12628000E+03  0.27276E-05
 0.12633000E+03 -0.45395E-06
 0.12638000E+03 -0.54936E-05
 0.12643000E+03 -0.12153E-04
 0.12648000E+03 -0.20189E-04
 0.12653000E+03 -0.27419E-04
 0.12658000E+03 -0.33140E-04
 0.12663000E+03 -0.38177E-04
 0.12668000E+03 -0.42153E-04
 0.12673000E+03 -0.44433E-04
 0.12678000E+03 -0.44157E-04
 0.12683000E+03 -0.40859E-04
 0.12688000E+03 -0.33998E-04
 0.12693000E+03 -0.24152E-04
 0.12698000E+03 -0.12400E-04
 0.12703000E+03 -0.10507E-05
 0.12708000E+03  0.85011E-05
 0.12713000E+03  0.15561E-04
 0.12718000E+03  0.17933E-04
 0.12723000E+03  0.16747E-04
 0.12728000E+03  0.11927E-04
 0.12733000E+03  0.43593E-05
 0.12738000E+03 -0.28723E-05
 0.12743000E+03 -0.11285E-04
 0.12748000E+03 -0.19438E-04
 0.12753000E+03 -0.25464E-04
 0.12758000E+03 -0.28717E-04
 0.12763000E+03 -0.27828E-04
 0.12768000E+03 -0.24749E-04
 0.12773000E+03 -0.19049E-04
 0.12778000E+03 -0.11370E-04
 0.12783000E+03 -0.21916E-05
 0.12788000E+03  0.10090E-04
 0.12793000E+03  0.23824E-04
 0.12798000E+03  0.37457E-04
 0.12803000E+03  0.49091E-04
 0.12808000E+03  0.55779E-04
 0.12813000E+03  0.56395E-04
 0.12818001E+03  0.51983E-04
 0.12823000E+03  0.43436E-04
 0.12828000E+03  0.31276E-04
 0.12833000E+03  0.17230E-04
 0.12838000E+03  0.43870E-05
 0.12843001E+03 -0.47657E-05
 0.12848000E+03 -0.10039E-04
 0.12853000E+03 -0.12664E-04
 0.12858000E+03 -0.13796E-04
 0.12863000E+03 -0.14441E-04
 0.12868001E+03 -0.14149E-04
 0.12873000E+03 -0.13860E-04
 0.12878000E+03 -0.14329E-04
 0.12883000E+03 -0.13109E-04
 0.12888000E+03 -0.10256E-04
 0.12893001E+03 -0.54395E-05
 0.12898000E+03  0.64739E-06
 0.12903000E+03  0.55108E-05
 0.12908000E+03  0.97081E-05
 0.12913000E+03  0.12736E-04
 0.12918001E+03  0.13001E-04
 0.12923000E+03  0.10553E-04
 0.12928000E+03  0.62146E-05
 0.12933000E+03  0.23182E-06
 0.12938000E+03 -0.66453E-05
 0.12943001E+03 -0.13359E-04
 0.12948000E+03 -0.19793E-04
 0.12953000E+03 -0.24365E-04
 0.12958000E+03 -0.26030E-04
 0.12963000E+03 -0.25109E-04
 0.12968001E+03 -0.22092E-04
 0.12973000E+03 -0.17633E-04
 0.12978000E+03 -0.11569E-04
 0.12983000E+03 -0.41064E-05
 0.12988000E+03  0.46370E-05
 0.12993001E+03  0.13197E-04
 0.12998000E+03  0.20495E-04
 0.13003000E+03  0.25817E-04
 0.13008000E+03  0.26856E-04
 0.13013000E+03  0.24531E-04
 0.13018001E+03  0.21066E-04
 0.13023000E+03  0.17005E-04
 0.13028000E+03  0.12865E-04
 0.13033000E+03  0.98812E-05
 0.13038000E+03  0.83900E-05
 0.13043001E+03  0.82518E-05
 0.13048000E+03  0.89396E-05
 0.13053000E+03  0.91891E-05
 0.13058000E+03  0.79180E-05
 0.13063000E+03  0.43127E-05
 0.13068001E+03 -0.56653E-06
 0.13073000E+03 -0.63313E-05
 0.13078000E+03 -0.10910E-04
 0.13083000E+03 -0.13057E-04
 0.13088000E+03 -0.14790E-04
 0.13093001E+03 -0.15718E-04
 0.13098000E+03 -0.14871E-04
 0.13103000E+03 -0.12886E-04
 0.13108000E+03 -0.12268E-04
 0.13113000E+03 -0.13138E-04
 0.13118001E+03 -0.14129E-04
 0.13123000E+03 -0.16525E-04
 0.13128000E+03 -0.19941E-04
 0.13133000E+03 -0.23346E-04
 0.13138000E+03 -0.25675E-04
 0.13143001E+03 -0.24244E-04
 0.13148000E+03 -0.20822E-04
 0.13153000E+03 -0.16906E-04
 0.13158000E+03 -0.10964E-04
 0.13163000E+03 -0.45381E-05
 0.13168001E+03  0.14450E-05
 0.13173000E+03  0.69580E-05
 0.13178000E+03  0.13256E-04
 0.13183000E+03  0.20705E-04
 0.13188000E+03  0.27577E-04
 0.13193001E+03  0.33494E-04
 0.13198000E+03  0.37944E-04
 0.13203000E+03  0.41175E-04
 0.13208000E+03  0.42364E-04
 0.13213000E+03  0.40472E-04
 0.13218001E+03  0.36502E-04
 0.13223000E+03  0.31546E-04
 0.13228000E+03  0.25710E-04
 0.13233000E+03  0.18983E-04
 0.13238000E+03  0.11264E-04
 0.13243001E+03  0.13215E-05
 0.13248000E+03 -0.98018E-05
 0.13253000E+03 -0.19475E-04
 0.13258000E+03 -0.25689E-04
 0.13263000E+03 -0.26766E-04
 0.13268001E+03 -0.23105E-04
 0.13273000E+03 -0.16296E-04
 0.13278000E+03 -0.84291E-05
 0.13283000E+03 -0.26309E-05
 0.13288000E+03 -0.55653E-06
 0.13293001E+03 -0.12004E-05
 0.13298000E+03 -0.31211E-05
 0.13303000E+03 -0.46192E-05
 0.13308000E+03 -0.54699E-05
 0.13313000E+03 -0.71388E-05
 0.13318001E+03 -0.88760E-05
 0.13323000E+03 -0.99596E-05
 0.13328000E+03 -0.10578E-04
 0.13333000E+03 -0.10466E-04
 0.13338000E+03 -0.10212E-04
 0.13343001E+03 -0.96915E-05
 0.13348000E+03 -0.86701E-05
 0.13353000E+03 -0.77249E-05
 0.13358000E+03 -0.69023E-05
 0.13363000E+03 -0.66473E-05
 0.13368001E+03 -0.78289E-05
 0.13373000E+03 -0.11398E-04
 0.13378000E+03 -0.17259E-04
 0.13383000E+03 -0.24293E-04
 0.13388000E+03 -0.31113E-04
 0.13393001E+03 -0.36466E-04
 0.13398000E+03 -0.39404E-04
 0.13403000E+03 -0.38458E-04
 0.13408000E+03 -0.34141E-04
 0.13413000E+03 -0.27045E-04
 0.13418001E+03 -0.18051E-04
 0.13423000E+03 -0.97472E-05
 0.13428000E+03 -0.28773E-05
 0.13433000E+03  0.23872E-05
 0.13438000E+03  0.62395E-05
 0.13443001E+03  0.98007E-05
 0.13448000E+03  0.13021E-04
 0.13453000E+03  0.15911E-04
 0.13458000E+03  0.19826E-04
 0.13463000E+03  0.24077E-04
 0.13468001E+03  0.27136E-04
 0.13473000E+03  0.29203E-04
 0.13478000E+03  0.30083E-04
 0.13483000E+03  0.29858E-04
 0.13488000E+03  0.29016E-04
 0.13493001E+03  0.27452E-04
 0.13498000E+03  0.24854E-04
 0.13503000E+03  0.21640E-04
 0.13508000E+03  0.18928E-04
 0.13513000E+03  0.17162E-04
 0.13518001E+03  0.17324E-04
 0.13523000E+03  0.19126E-04
 0.13528000E+03  0.20378E-04
 0.13533000E+03  0.20257E-04
 0.13538000E+03  0.17084E-04
 0.13543001E+03  0.10457E-04
 0.13548000E+03  0.25949E-05
 0.13553000E+03 -0.47793E-05
 0.13558000E+03 -0.10901E-04
 0.13563000E+03 -0.15171E-04
 0.13568001E+03 -0.16741E-04
 0.13573000E+03 -0.16776E-04
 0.13578000E+03 -0.15672E-04
 0.13583000E+03 -0.13888E-04
 0.13588000E+03 -0.11460E-04
 0.13593001E+03 -0.77107E-05
 0.13598000E+03 -0.42643E-05
 0.13603000E+03 -0.19279E-05
 0.13608000E+03 -0.36234E-06
 0.13613000E+03  0.39942E-06
 0.13618001E+03 -0.60625E-06
 0.13623000E+03 -0.15327E-05
 0.13628000E+03 -0.92613E-07
 0.13633000E+03  0.24948E-05
 0.13638000E+03  0.56553E-05
 0.13643001E+03  0.87837E-05
 0.13648000E+03  0.11360E-04
 0.13653000E+03  0.13759E-04
 0.13658000E+03  0.14930E-04
 0.13663000E+03  0.15001E-04
 0.13668001E+03  0.13365E-04
 0.13673000E+03  0.98078E-05
 0.13678000E+03  0.70914E-05
 0.13683000E+03  0.64229E-05
 0.13688000E+03  0.72761E-05
 0.13693001E+03  0.88071E-05
 0.13698000E+03  0.10513E-04
 0.13703000E+03  0.11774E-04
 0.13708000E+03  0.12743E-04
 0.13713000E+03  0.12932E-04
 0.13718001E+03  0.11616E-04
 0.13723000E+03  0.91726E-05
 0.13728000E+03  0.62891E-05
 0.13733000E+03  0.22028E-05
 0.13738000E+03 -0.34950E-05
 0.13743001E+03 -0.97450E-05
 0.13748000E+03 -0.15175E-04
 0.13753000E+03 -0.19400E-04
 0.13758000E+03 -0.22181E-04
 0.13763000E+03 -0.22830E-04
 0.13768001E+03 -0.22692E-04
 0.13773000E+03 -0.20253E-04
 0.13778000E+03 -0.19334E-04
 0.13783000E+03 -0.19338E-04
 0.13788000E+03 -0.21537E-04
 0.13793001E+03 -0.26785E-04
 0.13798000E+03 -0.29442E-04
 0.13803000E+03 -0.33108E-04
 0.13808000E+03 -0.33040E-04
 0.13813000E+03 -0.32758E-04
 0.13818001E+03 -0.30947E-04
 0.13823000E+03 -0.24909E-04
 0.13828000E+03 -0.19857E-04
 0.13833000E+03 -0.11010E-04
 0.13838000E+03 -0.23919E-05
 0.13843001E+03  0.61336E-05
 0.13848000E+03  0.16486E-04
 0.13853000E+03  0.24423E-04
 0.13858000E+03  0.28908E-04
 0.13863000E+03  0.28609E-04
 0.13868001E+03  0.24116E-04
 0.13873000E+03  0.20691E-04
 0.13878000E+03  0.16708E-04
 0.13883000E+03  0.12536E-04
 0.13888000E+03  0.10276E-04
 0.13893001E+03  0.81251E-05
 0.13898000E+03  0.61505E-05
 0.13903000E+03  0.24271E-05
 0.13908000E+03 -0.32001E-06
 0.13913000E+03 -0.25561E-05
 0.13918001E+03 -0.59161E-05
 0.13923000E+03 -0.80221E-05
 0.13928000E+03 -0.90734E-05
 0.13933000E+03 -0.78201E-05
 0.13938000E+03 -0.55359E-05
 0.13943001E+03 -0.44826E-05
 0.13948000E+03 -0.20603E-05
 0.13953000E+03  0.10459E-05
 0.13958000E+03  0.41599E-05
 0.13963000E+03  0.75010E-05
 0.13968001E+03  0.95803E-05
 0.13973000E+03  0.10756E-04
 0.13978000E+03  0.11155E-04
 0.13983000E+03  0.78044E-05
 0.13988000E+03  0.11910E-05
 0.13993001E+03 -0.38794E-05
 0.13998000E+03 -0.73242E-05
 0.14003000E+03 -0.93250E-05
 0.14008000E+03 -0.95056E-05
 0.14013000E+03 -0.71797E-05
 0.14018001E+03 -0.37067E-05
 0.14023000E+03  0.26912E-05
 0.14028000E+03  0.11614E-04
 0.14033000E+03  0.19323E-04
 0.14038000E+03  0.26687E-04
 0.14043001E+03  0.31750E-04
 0.14048000E+03  0.35415E-04
 0.14053000E+03  0.36250E-04
 0.14058000E+03  0.36545E-04
 0.14063000E+03  0.35037E-04
 0.14068001E+03  0.29621E-04
 0.14073000E+03  0.22542E-04
 0.14078000E+03  0.12329E-04
 0.14083000E+03  0.87908E-06
 0.14088000E+03 -0.13378E-04
 0.14093001E+03 -0.27202E-04
 0.14098000E+03 -0.40762E-04
 0.14103000E+03 -0.52051E-04
 0.14108000E+03 -0.60079E-04
 0.14113000E+03 -0.63553E-04
 0.14118001E+03 -0.59272E-04
 0.14123000E+03 -0.52399E-04
 0.14128000E+03 -0.40173E-04
 0.14133000E+03 -0.29595E-04
 0.14138000E+03 -0.21931E-04
 0.14143001E+03 -0.16240E-04
 0.14148000E+03 -0.15043E-04
 0.14153000E+03 -0.11550E-04
 0.14158000E+03 -0.10038E-04
 0.14163000E+03 -0.67205E-05
 0.14168001E+03 -0.26988E-06
 0.14173000E+03  0.62669E-05
 0.14178000E+03  0.13279E-04
 0.14183000E+03  0.16696E-04
 0.14188000E+03  0.21889E-04
 0.14193001E+03  0.26664E-04
 0.14198000E+03  0.29407E-04
 0.14203000E+03  0.33131E-04
 0.14208000E+03  0.34389E-04
 0.14213000E+03  0.35700E-04
 0.14218001E+03  0.34986E-04
 0.14223000E+03  0.33252E-04
 0.14228000E+03  0.35029E-04
 0.14233000E+03  0.33998E-04
 0.14238000E+03  0.30989E-04
 0.14243001E+03  0.28886E-04
 0.14248000E+03  0.24466E-04
 0.14253000E+03  0.19690E-04
 0.14258000E+03  0.17151E-04
 0.14263000E+03  0.12938E-04
 0.14268001E+03  0.10950E-04
 0.14273000E+03  0.10600E-04
 0.14278000E+03  0.26654E-05
 0.14283000E+03 -0.21261E-05
 0.14288000E+03 -0.13409E-05
 0.14293001E+03 -0.19466E-05
 0.14298000E+03 -0.55244E-05
 0.14303000E+03 -0.86976E-05
 0.14308000E+03 -0.12348E-04
 0.14313000E+03 -0.21071E-04
 0.14318001E+03 -0.29978E-04
 0.14323000E+03 -0.39184E-04
 0.14328000E+03 -0.39703E-04
 0.14333000E+03 -0.35995E-04
 0.14338000E+03 -0.36115E-04
 0.14343001E+03 -0.32781E-04
 0.14348000E+03 -0.26862E-04
 0.14353000E+03 -0.23122E-04
 0.14358000E+03 -0.23289E-04
 0.14363000E+03 -0.22492E-04
 0.14368001E+03 -0.16375E-04
 0.14373000E+03 -0.68705E-05
 0.14378000E+03  0.61612E-06
 0.14383000E+03  0.28232E-05
 0.14388000E+03  0.22432E-05
 0.14393001E+03  0.50155E-05
 0.14398000E+03  0.13065E-05
 0.14403000E+03 -0.49288E-05
 0.14408000E+03 -0.34377E-05
 0.14413000E+03 -0.80764E-06
 0.14418001E+03  0.10625E-04
 0.14423000E+03  0.20071E-04
 0.14428000E+03  0.25853E-04
 0.14433000E+03  0.39501E-04
 0.14438000E+03  0.46204E-04
 0.14443001E+03  0.48333E-04
 0.14448000E+03  0.44405E-04
 0.14453000E+03  0.33394E-04
 0.14458000E+03  0.25526E-04
 0.14463000E+03  0.17251E-04
 0.14468001E+03  0.11249E-04
 0.14473000E+03  0.50014E-06
 0.14478000E+03 -0.14672E-04
 0.14483000E+03 -0.22485E-04
 0.14488000E+03 -0.28078E-04
 0.14493001E+03 -0.32694E-04
 0.14498000E+03 -0.36182E-04
 0.14503000E+03 -0.36150E-04
 0.14508000E+03 -0.30439E-04
 0.14513000E+03 -0.27083E-04
 0.14518001E+03 -0.24532E-04
 0.14523000E+03 -0.20008E-04
 0.14528000E+03 -0.12769E-04
 0.14533000E+03 -0.58864E-05
 0.14538000E+03 -0.39381E-05
 0.14543001E+03 -0.22274E-05
 0.14548000E+03  0.19195E-05
 0.14553000E+03  0.50801E-05
 0.14558000E+03  0.35460E-05
 0.14563000E+03  0.31875E-05
 0.14568001E+03  0.48215E-06
 0.14573000E+03 -0.19123E-05
 0.14578000E+03  0.14272E-06
 0.14583000E+03 -0.15007E-05
 0.14588000E+03 -0.82170E-06
 0.14593001E+03  0.20861E-05
 0.14598000E+03  0.84779E-05
 0.14603000E+03  0.14582E-04
 0.14608000E+03  0.17451E-04
 0.14613000E+03  0.24017E-04
 0.14618001E+03  0.25925E-04
 0.14623000E+03  0.24645E-04
 0.14628000E+03  0.19753E-04
 0.14633000E+03  0.12312E-04
 0.14638000E+03  0.83472E-05
 0.14643001E+03  0.59479E-06
 0.14648000E+03 -0.88736E-05
 0.14653000E+03 -0.17256E-04
 0.14658000E+03 -0.23322E-04
 0.14663000E+03 -0.28759E-04
 0.14668001E+03 -0.30214E-04
 0.14673000E+03 -0.26026E-04
 0.14678000E+03 -0.23920E-04
 0.14683000E+03 -0.18515E-04
 0.14688000E+03 -0.12429E-04
 0.14693001E+03 -0.63182E-05
 0.14698000E+03  0.11518E-05
 0.14703000E+03  0.88836E-05
 0.14708000E+03  0.19833E-04
 0.14713000E+03  0.28419E-04
 0.14718001E+03  0.35564E-04
 0.14723000E+03  0.38511E-04
 0.14728000E+03  0.40602E-04
 0.14733000E+03  0.44051E-04
 0.14738000E+03  0.40685E-04
 0.14743001E+03  0.35598E-04
 0.14748000E+03  0.32041E-04
 0.14753000E+03  0.26833E-04
 0.14758000E+03  0.20649E-04
 0.14763000E+03  0.12601E-04
 0.14768001E+03  0.25356E-05
 0.14773000E+03 -0.42337E-05
 0.14778000E+03 -0.11868E-04
 0.14783000E+03 -0.19736E-04
 0.14788000E+03 -0.24616E-04
 0.14793001E+03 -0.29307E-04
 0.14798000E+03 -0.29386E-04
 0.14803000E+03 -0.27877E-04
 0.14808000E+03 -0.27502E-04
 0.14813000E+03 -0.27530E-04
 0.14818001E+03 -0.28210E-04
 0.14823000E+03 -0.26399E-04
 0.14828000E+03 -0.25264E-04
 0.14833000E+03 -0.24842E-04
 0.14838000E+03 -0.22338E-04
 0.14843001E+03 -0.20406E-04
 0.14848000E+03 -0.16166E-04
 0.14853000E+03 -0.12624E-04
 0.14858000E+03 -0.10022E-04
 0.14863000E+03 -0.58625E-05
 0.14868001E+03 -0.22174E-05
 0.14873000E+03  0.36188E-05
 0.14878000E+03  0.68973E-05
 0.14883000E+03  0.82722E-05
 0.14888000E+03  0.77809E-05
 0.14893001E+03  0.73887E-05
 0.14898000E+03  0.81120E-05
 0.14903000E+03  0.85912E-05
 0.14908000E+03  0.10683E-04
 0.14913000E+03  0.11046E-04
 0.14918001E+03  0.15028E-04
 0.14923000E+03  0.19487E-04
 0.14928000E+03  0.21660E-04
 0.14933000E+03  0.23276E-04
 0.14938000E+03  0.23505E-04
 0.14943001E+03  0.21661E-04
 0.14948000E+03  0.16932E-04
 0.14953000E+03  0.13293E-04
 0.14958000E+03  0.88836E-05
 0.14963000E+03  0.44818E-05
 0.14968001E+03  0.14431E-05
 0.14973000E+03 -0.83792E-06
 0.14978000E+03 -0.19700E-05
 0.14983000E+03 -0.26133E-05
 0.14988000E+03 -0.57062E-05
 0.14993001E+03 -0.10840E-04
 0.14998000E+03 -0.12361E-04
